#Acq. time (s)=	30
#Accumulations=	2
#Range (cm-¹)=	1200...2365
#Windows=	3
#Auto scanning=	Off
#Autofocus=	Off
#Macrospot=	Off
#AutoExposure=	Off
#Spike filter=	Multiple accum.
#Delay time (s)=	2
#Binning=	1
#Readout mode=	Signal
#DeNoise=	Off
#ICS correction=	On
#Dark correction=	Off
#Inst. Process=	Off
#Detector Gain=	Best Dynamic
#Detector ADC=	50 kHz HS
#Detector temperature (°C)=	-60.09
#Instrument=	LabRAM HR Evol
#Detector=	SIN-EM FIVIS
#Objective=	x100_VIS_LWD
#Grating=	1800 (450-850nm)
#ND Filter=	100%
#Laser=	532nm_Edge
#Hole=	49.98
#Temperature=	0
#Range=	Visible
#StageXY=	75x50mm Scan+
#StageZ=	Z motor
#X (µm)=	0
#Y (µm)=	0
#Z (µm)=	-10.3
#Full time(mm:ss)=	3:11
#Project=	21_11_26
#Sample=	BU02Aw
#Site=	
#Title=	BU02aW-A-FF1-FI01-V_1800 (450-850nm)_532nm_Edge_100%_x100_VIS_LWD_H50um_30sX2
#Remark=	
#Date=	26.11.2021 10:39
#Acquired=	26.11.2021 10:39:57
#Base:Fit=	16.12.2021 16:15:35
#Base:Fit=	16.12.2021 16:17:26
#Base:Sub=	16.12.2021 16:17:28
1202.72	-0.0367336
1203	4.28773
1203.28	3.2002
1203.56	-0.067009
1203.84	2.04509
1204.11	2.01168
1204.39	0.905788
1204.67	4.11169
1204.95	-0.205627
1205.23	1.91891
1205.5	7.26037
1205.78	-1.36602
1206.06	3.96999
1206.34	1.7892
1206.61	7.1185
1206.89	4.93843
1207.17	4.90321
1207.45	1.65734
1207.73	1.62968
1208	5.8847
1208.28	3.718
1208.56	4.76138
1208.84	2.59169
1209.11	3.63269
1209.39	2.53477
1209.67	4.64881
1209.95	3.55758
1210.23	2.46497
1210.5	-0.768169
1210.78	0.268801
1211.06	3.44125
1211.34	0.208017
1211.61	-0.890213
1211.89	2.28198
1212.17	0.116743
1212.45	-0.980337
1212.72	3.25489
1213	2.15992
1213.28	0.000173569
1213.56	3.1687
1213.83	3.14399
1214.11	2.05222
1214.39	-0.096859
1214.67	-0.116909
1214.94	0.927099
1215.22	0.905882
1215.5	0.883821
1215.78	1.92603
1216.05	-2.35514
1216.33	1.87455
1216.61	-0.284081
1216.89	0.747089
1217.16	0.715366
1217.44	-0.376465
1217.72	-1.46731
1218	2.75261
1218.27	-0.460306
1218.55	-1.54847
1218.83	-1.57453
1219.1	1.58524
1219.38	-2.68189
1219.66	0.478092
1219.94	-1.66776
1220.21	-0.632204
1220.49	0.406916
1220.77	5.68959
1221.04	-0.696377
1221.32	2.46185
1221.6	-2.8654
1221.88	0.290087
1222.15	1.32153
1222.43	3.40887
1222.71	-0.860975
1222.98	-1.95274
1223.26	0.130806
1223.54	0.0982037
1223.81	2.18059
1224.09	-1.01958
1224.37	-1.04893
1224.65	-1.07563
1224.92	2.0665
1225.2	-0.0687218
1225.48	2.02157
1225.76	-1.16199
1226.03	-0.123425
1226.31	-1.19582
1226.59	-0.161291
1226.86	0.872726
1227.14	0.847639
1227.42	1.87851
1227.69	-0.265942
1227.97	-1.3653
1228.25	-1.40051
1228.52	-4.59256
1228.8	-1.47864
1229.08	0.583923
1229.35	2.66379
1229.63	-0.441582
1229.91	-0.403791
1230.18	2.7154
1230.46	-1.54658
1230.74	-2.62811
1231.01	-2.64447
1231.29	2.58554
1231.57	-0.644276
1231.84	3.54508
1232.12	-1.72848
1232.4	0.353424
1232.67	0.331366
1232.95	-0.738605
1233.23	1.34242
1233.5	-1.83035
1233.78	0.2514
1234.06	-0.815994
1234.33	-1.88252
1234.61	2.30458
1234.89	1.23989
1235.16	5.43064
1235.44	1.21086
1235.71	-3.00934
1235.99	0.129763
1236.27	-1.98869
1236.54	-2.00695
1236.82	1.12594
1237.1	1.1037
1237.37	-2.07288
1237.65	1.05249
1237.93	-0.0254898
1238.2	5.19609
1238.48	0.969221
1238.76	0.941586
1239.03	-0.132193
1239.31	-2.25122
1239.58	-0.174971
1239.86	0.853477
1240.14	-1.26176
1240.41	-1.27946
1240.69	2.89643
1240.97	1.8324
1241.24	1.81738
1241.52	-1.34284
1241.79	-3.45812
1242.07	-1.38289
1242.35	-0.354321
1242.62	-3.51379
1242.9	-1.43242
1243.18	0.651594
1243.45	-4.60192
1243.73	0.62319
1244	-0.440536
1244.28	2.69061
1244.56	-3.61538
1244.83	-1.53603
1245.11	2.63849
1245.39	1.56847
1245.66	2.59331
1245.94	0.472862
1246.21	0.448128
1246.49	1.47579
1246.76	3.55189
1247.04	0.396963
1247.32	-1.71185
1247.59	0.364399
1247.87	1.39586
1248.14	1.37807
1248.42	4.49083
1248.7	1.33234
1248.97	-3.91265
1249.25	-0.787645
1249.52	1.29234
1249.8	1.27628
1250.08	-0.830431
1250.35	4.38547
1250.63	2.27342
1250.9	2.25183
1251.18	3.2765
1251.45	1.16675
1251.73	4.28244
1252.01	2.17419
1252.28	3.19971
1252.56	-0.99612
1252.83	3.16172
1253.11	-2.07704
1253.39	4.16659
1253.66	-1.06697
1253.94	-0.0360012
1254.21	-2.1314
1254.49	0.99267
1254.76	-2.14564
1255.04	2.02107
1255.31	5.14134
1255.59	0.954739
1255.87	-0.101656
1256.14	0.929142
1256.42	6.13996
1256.69	1.95351
1256.97	6.12426
1257.24	4.0252
1257.52	1.923
1257.79	6.08452
1258.07	1.89301
1258.35	5.01189
1258.62	3.95376
1258.9	3.93903
1259.17	6.00771
1259.45	-0.26626
1259.72	2.8577
1260	3.89566
1260.27	4.94298
1260.55	4.92369
1260.82	0.729578
1261.1	6.96951
1261.37	6.95045
1261.65	2.76212
1261.92	7.97268
1262.2	10.0839
1262.48	8.03416
1262.75	12.2324
1263.02	10.0662
1263.3	16.2688
1263.58	16.2385
1263.85	20.4485
1264.13	18.388
1264.4	25.7422
1264.68	28.8987
1264.95	16.3084
1265.23	26.7398
1265.5	15.2341
1265.78	13.1314
1266.05	9.98046
1266.33	16.2408
1266.6	11.0109
1266.88	3.69234
1267.15	7.87126
1267.43	8.91714
1267.7	3.69027
1267.98	11.0145
1268.25	13.1127
1268.53	8.93603
1268.8	7.89484
1269.08	2.65698
1269.35	9.98829
1269.63	9.98574
1269.9	8.92824
1270.18	7.86505
1270.45	13.0824
1270.73	4.69056
1271	12.0024
1271.28	8.8487
1271.55	6.74636
1271.83	9.87382
1272.1	3.5917
1272.38	11.9659
1272.65	13.0181
1272.93	6.7439
1273.2	8.84222
1273.47	8.8461
1273.75	14.0911
1274.03	11.9996
1274.3	12.0047
1274.57	5.7123
1274.85	7.80611
1275.12	14.0924
1275.4	8.84248
1275.67	8.84127
1275.95	11.9898
1276.22	7.79422
1276.5	7.79802
1276.77	5.70004
1277.05	7.8019
1277.32	6.75205
1277.6	8.85702
1277.87	6.76023
1278.14	10.9681
1278.42	15.1762
1278.69	12.026
1278.97	8.87856
1279.24	10.9842
1279.52	10.9866
1279.79	8.87639
1280.07	14.1286
1280.34	19.3782
1280.61	12.0106
1280.89	18.3208
1281.16	22.5293
1281.44	23.5909
1281.71	25.709
1281.99	26.7658
1282.26	32.0243
1282.53	42.5539
1282.81	55.1929
1283.08	89.9131
1283.36	105.634
1283.63	149.664
1283.91	206.34
1284.18	270.432
1284.45	332.619
1284.73	359.704
1285	367.148
1285.28	264.928
1285.55	172.102
1285.83	98.3317
1286.1	72.0107
1286.37	46.7567
1286.65	29.9048
1286.92	27.7861
1287.2	21.4664
1287.47	18.3032
1287.75	13.0313
1288.02	8.81241
1288.29	7.75455
1288.57	11.9623
1288.84	5.64786
1289.12	7.75416
1289.39	5.65345
1289.66	14.0813
1289.94	3.55836
1290.21	5.67091
1290.49	4.62286
1290.76	1.46183
1291.03	2.51118
1291.31	7.77511
1291.58	3.56124
1291.86	3.56055
1292.13	5.66544
1292.4	6.71877
1292.68	-0.65177
1292.95	3.55936
1293.22	2.50373
1293.5	1.45235
1293.77	4.62326
1294.05	1.47582
1294.32	1.48942
1294.59	1.49353
1294.87	-3.77849
1295.14	3.60158
1295.42	2.55362
1295.69	2.56797
1295.96	5.75343
1296.24	-0.558979
1296.51	1.56783
1296.79	-3.71272
1297.06	1.57423
1297.33	-1.59858
1297.61	3.68155
1297.88	1.56319
1298.15	-1.61121
1298.43	-0.561003
1298.7	2.61244
1298.97	2.61161
1299.25	1.55222
1299.52	3.66132
1299.79	-2.67545
1300.07	1.5485
1300.34	-0.555429
1300.62	4.72899
1300.89	1.56454
1301.16	2.62126
1301.44	-3.71237
1301.71	0.514809
1301.98	-2.6457
1302.25	-0.526497
1302.53	-3.69021
1302.8	-0.517727
1303.08	-0.515282
1303.35	2.65449
1303.62	2.65394
1303.9	-2.62856
1304.17	-3.68234
1304.44	-0.510744
1304.72	-2.61933
1304.99	3.71925
1305.26	-0.504642
1305.54	0.549339
1305.81	0.546074
1306.08	-0.512209
1306.35	1.5942
1306.63	-0.517586
1306.9	-1.57097
1307.18	4.76047
1307.45	1.60332
1307.72	-2.61072
1308	-0.497566
1308.27	-0.493656
1308.54	0.566896
1308.81	-3.64952
1309.09	0.575325
1309.36	-1.52543
1309.63	1.64825
1309.91	5.8783
1310.18	4.83088
1310.45	-1.49734
1310.73	-0.43915
1311	-0.434324
1311.27	0.627073
1311.55	-2.53251
1311.82	5.91709
1312.09	-0.408066
1312.37	-0.397955
1312.64	-1.44442
1312.91	-0.381344
1313.18	0.678587
1313.46	2.79063
1313.73	-0.372149
1314	2.79751
1314.28	3.85622
1314.55	-0.360336
1314.82	-4.5753
1315.09	0.711321
1315.37	-2.44665
1315.64	-3.49356
1315.91	1.7962
1316.18	2.86244
1316.46	3.92327
1316.73	-2.40952
1317	-1.34847
1317.28	4.99329
1317.55	-0.280798
1317.82	0.785847
1318.09	-2.37385
1318.37	3.97265
1318.64	1.86757
1318.91	2.93126
1319.18	0.825022
1319.46	2.94369
1319.73	-1.27653
1320	-0.214457
1320.28	0.850756
1320.55	-1.25494
1320.82	-1.24959
1321.09	-0.190434
1321.37	1.92216
1321.64	2.97615
1321.91	-1.24844
1322.18	0.86413
1322.46	-0.192043
1322.73	-2.29825
1323	-4.40393
1323.27	-2.29126
1323.55	1.92805
1323.82	-2.27849
1324.09	-3.32425
1324.36	1.95609
1324.64	-1.20055
1324.91	0.916452
1325.18	-2.23997
1325.45	-2.23047
1325.73	0.933134
1326	-0.126236
1326.27	-0.134922
1326.54	0.904978
1326.81	-0.147881
1327.09	0.90999
1327.36	-0.124346
1327.63	2.00893
1327.9	0.974672
1328.18	-1.11422
1328.45	-1.09518
1328.72	-2.13063
1328.99	-2.11372
1329.27	0.00736046
1329.54	0.0122318
1329.81	4.24403
1330.08	1.08611
1330.35	0.0373688
1330.63	-2.06735
1330.9	1.10023
1331.17	-1.00689
1331.44	0.0476055
1331.71	0.0452671
1331.99	5.30743
1332.26	-3.11806
1332.53	-1.01123
1332.8	2.14598
1333.07	1.09249
1333.35	1.09095
1333.62	5.29489
1333.89	-1.01131
1334.16	0.0404549
1334.43	1.09192
1334.71	0.0433884
1334.98	2.14511
1335.25	2.14796
1335.52	0.0527496
1335.79	1.10584
1336.07	-2.03673
1336.34	7.40712
1336.61	0.0710793
1336.88	2.17367
1337.15	-0.965326
1337.43	3.23463
1337.7	-3.04733
1337.97	1.15171
1338.24	2.20194
1338.51	4.29968
1338.78	0.11512
1339.06	0.120188
1339.33	-0.920162
1339.6	-0.911087
1339.87	0.147011
1340.14	2.25294
1340.42	4.35808
1340.69	1.22764
1340.96	0.191408
1341.23	4.38999
1341.5	0.209793
1341.77	-0.829224
1342.04	1.27197
1342.32	3.37117
1342.59	2.32801
1342.86	-0.808943
1343.13	-0.805838
1343.4	4.43046
1343.67	-0.791019
1343.95	-0.781532
1344.22	1.32035
1344.49	0.285528
1344.76	-2.84153
1345.03	2.39549
1345.3	1.35543
1345.58	2.40479
1345.85	-0.729389
1346.12	-1.77046
1346.39	0.320057
1346.66	5.53607
1346.93	1.3617
1347.2	5.53664
1347.47	0.322206
1347.75	0.325096
1348.02	3.45809
1348.29	1.38024
1348.56	1.38855
1348.83	-0.687031
1349.1	1.40363
1349.37	2.45098
1349.65	0.372749
1349.92	1.41996
1350.19	0.384428
1350.46	-0.650606
1350.73	2.47805
1351	4.56293
1351.27	3.52545
1351.54	2.49126
1351.81	3.53453
1352.09	0.423788
1352.36	-0.605299
1352.63	-1.63081
1352.9	1.50668
1353.17	2.56748
1353.44	-0.538324
1353.71	-1.54526
1353.98	2.66072
1354.25	4.7264
1354.53	-0.511002
1354.8	2.58908
1355.07	3.64295
1355.34	-0.499466
1355.61	3.65747
1355.88	3.66322
1356.15	2.6465
1356.42	2.66045
1356.69	4.74304
1356.96	3.71271
1357.24	1.64437
1357.51	1.65306
1357.78	1.66085
1358.05	1.6679
1358.32	4.78858
1358.59	3.75652
1358.86	2.72521
1359.13	4.80565
1359.4	5.84836
1359.67	2.74393
1359.94	7.93673
1360.22	3.79243
1360.49	3.7949
1360.76	2.76178
1361.03	5.8757
1361.3	3.81314
1361.57	6.93201
1361.84	-0.308069
1362.11	7.9882
1362.38	6.96024
1362.65	8.00389
1362.92	-0.270992
1363.19	5.95228
1363.46	2.85997
1363.73	4.9484
1364	4.96444
1364.28	4.98047
1364.55	8.09972
1364.82	1.89451
1365.09	8.11759
1365.36	11.2298
1365.63	9.16268
1365.9	8.13099
1366.17	10.2046
1366.44	9.17368
1366.71	7.10842
1366.98	10.2127
1367.25	9.1781
1367.52	5.05038
1367.79	8.15962
1368.06	7.14285
1368.33	10.2586
1368.6	8.20561
1368.87	6.15239
1369.15	6.16654
1369.41	11.351
1369.68	21.7059
1369.95	26.8816
1370.23	22.7526
1370.5	16.5572
1370.77	12.4246
1371.04	12.4317
1371.31	13.4697
1371.58	6.24117
1371.85	12.4368
1372.12	11.4014
1372.39	12.4306
1372.66	10.3665
1372.93	13.4619
1373.2	11.4055
1373.47	7.2899
1373.74	14.5118
1374.01	13.4893
1374.28	16.5893
1374.55	18.6592
1374.82	13.5172
1375.09	17.647
1375.36	14.5636
1375.63	14.5775
1375.9	13.5648
1376.17	17.6969
1376.44	22.863
1376.71	18.7426
1376.98	24.9222
1377.25	20.7997
1377.52	25.9372
1377.79	30.0726
1378.06	30.0995
1378.33	28.0748
1378.6	34.296
1378.87	31.2493
1379.14	33.3335
1379.41	38.4986
1379.68	34.3789
1379.95	41.5975
1380.22	40.5652
1380.49	37.4585
1380.76	46.6824
1381.03	39.4596
1381.3	51.7879
1381.57	50.7846
1381.84	51.8053
1382.11	46.6422
1382.38	53.8093
1382.65	57.8956
1382.92	55.8242
1383.19	60.9357
1383.46	56.8202
1383.73	54.7572
1384	56.8058
1384.27	56.8064
1384.54	57.8468
1384.81	56.8412
1385.08	56.8687
1385.34	65.1103
1385.61	77.473
1385.88	72.3805
1386.15	79.6015
1386.42	96.0575
1386.69	136.15
1386.96	171.101
1387.23	238.902
1387.5	388.548
1387.77	603.902
1388.04	798.171
1388.31	842.678
1388.58	585.852
1388.85	315.235
1389.12	173.04
1389.39	113.628
1389.66	82.8482
1389.93	57.2007
1390.2	44.8662
1390.46	40.72
1390.73	35.5808
1391	32.5148
1391.27	27.3784
1391.54	25.3362
1391.81	21.2446
1392.08	21.246
1392.35	22.2701
1392.62	20.2234
1392.89	19.2039
1393.16	13.0673
1393.43	17.1694
1393.7	14.1066
1393.97	12.0682
1394.23	15.1472
1394.5	14.1332
1394.77	13.1196
1395.04	9.03729
1395.31	11.0998
1395.58	14.1885
1395.85	13.1817
1396.12	15.243
1396.39	13.2065
1396.66	11.1682
1396.93	9.12898
1397.2	10.1598
1397.46	12.2112
1397.73	7.10156
1398	10.1789
1398.27	3.03075
1398.54	6.11334
1398.81	14.3132
1399.08	10.2356
1399.35	10.2494
1399.62	7.1976
1399.89	4.14281
1400.16	6.20465
1400.42	7.23979
1400.69	7.25627
1400.96	12.3961
1401.23	5.24423
1401.5	9.35091
1401.77	-1.89849
1402.04	6.30614
1402.31	7.35333
1402.58	9.43402
1402.84	11.5187
1403.11	4.36399
1403.38	9.51774
1403.65	9.53488
1403.92	8.52036
1404.19	6.47218
1404.46	6.46584
1404.73	6.48233
1404.99	7.51707
1405.26	8.55067
1405.53	6.50503
1405.8	9.58708
1406.07	7.54201
1406.34	9.59852
1406.61	8.58146
1406.87	10.6402
1407.14	12.7035
1407.41	14.768
1407.68	18.8836
1407.95	15.8222
1408.22	16.8615
1408.49	18.9262
1408.76	30.2198
1409.02	35.3629
1409.29	38.4568
1409.56	40.525
1409.83	49.7736
1410.1	34.4021
1410.37	29.2847
1410.63	21.0804
1410.9	18.0031
1411.17	14.926
1411.44	8.77924
1411.71	5.71086
1411.98	1.62007
1412.25	4.70386
1412.51	8.81783
1412.78	8.83897
1413.05	5.79493
1413.32	4.81662
1413.59	3.81887
1413.86	4.83437
1414.12	3.78067
1414.39	1.74724
1414.66	3.82894
1414.93	5.90698
1415.2	4.88951
1415.47	0.795038
1415.73	6.96634
1416	3.89826
1416.27	0.831387
1416.54	2.89858
1416.81	-2.22259
1417.07	2.92637
1417.34	3.96801
1417.61	5.00981
1417.88	2.96911
1418.15	2.98165
1418.42	1.96562
1418.68	5.06051
1418.95	1.98989
1419.22	0.97341
1419.49	5.09571
1419.76	-0.0347481
1420.02	0.99888
1420.29	4.08616
1420.56	5.11864
1420.83	1.0159
1421.1	5.12758
1421.36	-1.02592
1421.63	4.11449
1421.9	4.12688
1422.17	6.19869
1422.44	5.19284
1422.7	2.13143
1422.97	2.15667
1423.24	0.132776
1423.51	-0.864218
1423.77	0.116879
1424.04	1.10041
1424.31	1.11792
1424.58	-0.945568
1424.85	4.18771
1425.11	5.23133
1425.38	3.2116
1425.65	1.17429
1425.92	3.23216
1426.19	-1.87724
1426.45	4.28643
1426.72	2.24034
1426.99	1.21831
1427.26	7.37222
1427.52	3.27387
1427.79	7.37045
1428.06	1.22568
1428.33	-1.84002
1428.59	1.2403
1428.86	2.27474
1429.13	3.31051
1429.4	-0.773184
1429.67	4.36061
1429.93	1.30222
1430.2	1.31786
1430.47	1.33491
1430.74	0.325415
1431	-3.75841
1431.27	5.4932
1431.54	-3.72213
1431.81	3.47602
1432.07	3.48608
1432.34	3.49093
1432.61	-0.609629
1432.87	1.44825
1433.14	-0.600748
1433.41	4.52579
1433.68	-0.600216
1433.95	0.42449
1434.21	3.50037
1434.48	-3.66051
1434.75	-0.567705
1435.01	2.52103
1435.28	-0.542253
1435.55	-1.55718
1435.82	4.60021
1436.08	2.55921
1436.35	-1.53133
1436.62	1.55031
1436.89	4.63092
1437.15	3.61329
1437.42	3.6204
1437.69	0.556383
1437.95	4.65972
1438.22	3.64361
1438.49	1.60618
1438.76	3.66824
1439.02	1.63135
1439.29	3.69054
1439.56	1.65233
1439.82	-1.4084
1440.09	-0.368919
1440.36	0.672293
1440.63	3.76075
1440.89	1.72091
1441.16	-1.34581
1441.43	-1.33533
1441.69	0.722963
1441.96	-4.39839
1442.23	1.76016
1442.49	-3.35247
1442.76	0.758959
1443.03	2.82431
1443.3	0.778875
1443.56	3.85975
1443.83	-1.26136
1444.1	1.82068
1444.36	1.82866
1444.63	1.83926
1444.9	-0.195307
1445.16	0.845121
1445.43	0.861958
1445.7	0.868759
1445.97	1.9011
1446.23	1.90768
1446.5	-1.16284
1446.77	0.895451
1447.03	1.92781
1447.3	-0.116526
1447.57	0.915176
1447.83	2.97124
1448.1	-1.12357
1448.37	0.935226
1448.63	1.97358
1448.9	-5.19121
1449.17	3.02379
1449.43	2.00629
1449.7	2.01263
1449.97	-1.05862
1450.23	0.996647
1450.5	1.00099
1450.77	-4.11799
1451.03	4.08865
1451.3	3.06989
1451.57	0.0014782
1451.83	-4.09151
1452.1	1.03799
1452.37	-1.00476
1452.63	2.07604
1452.9	-5.08712
1453.17	1.06949
1453.43	3.12999
1453.7	-0.958538
1453.97	-2.99989
1454.23	-0.943737
1454.5	0.0877838
1454.77	0.0958729
1455.03	-1.94549
1455.3	2.16066
1455.56	-3.98088
1455.83	2.17545
1456.1	-2.93627
1456.36	-1.90145
1456.63	3.23113
1456.9	-0.862715
1457.16	0.165939
1457.43	-0.854595
1457.7	1.20046
1457.96	0.18222
1458.23	4.28649
1458.49	1.22126
1458.76	0.20517
1459.03	0.214211
1459.29	0.223063
1459.56	-2.84217
1459.82	-0.784925
1460.09	3.32004
1460.36	-1.79661
1460.62	2.3071
1460.89	0.263817
1461.16	2.31723
1461.42	3.34548
1461.69	1.30149
1461.95	1.30534
1462.22	-0.738781
1462.49	3.35845
1462.75	1.3138
1463.02	0.292704
1463.28	3.36312
1463.55	0.296137
1463.82	-2.76885
1464.08	0.304794
1464.35	3.38756
1464.61	-1.70867
1464.88	0.353382
1465.15	2.41982
1465.41	-0.662615
1465.68	2.36727
1465.94	-3.77022
1466.21	1.33733
1466.48	-0.689581
1466.74	-2.72613
1467.01	-1.70798
1467.27	-3.7442
1467.54	-0.674631
1467.8	0.35103
1468.07	-1.68394
1468.34	1.38219
1468.6	2.40867
1468.87	1.39491
1469.13	-2.67962
1469.4	1.40464
1469.67	0.388634
1469.93	-0.628733
1470.2	0.391973
1470.46	-0.624964
1470.73	-1.64041
1470.99	1.42041
1471.26	0.406406
1471.53	-1.62761
1471.79	1.43025
1472.06	-0.603289
1472.32	0.419926
1472.59	-0.592701
1472.85	0.431414
1473.12	-0.581011
1473.39	-0.576258
1473.65	-1.59111
1473.92	-1.58793
1474.18	0.451298
1474.45	1.47363
1474.71	4.53287
1474.98	0.470737
1475.24	0.478632
1475.51	-0.532593
1475.78	1.50857
1476.04	0.494873
1476.31	2.53309
1476.57	-0.515661
1476.84	-1.52885
1477.1	-0.508905
1477.37	-1.52356
1477.63	2.54874
1477.9	-0.496958
1478.16	0.525488
1478.43	-0.48801
1478.69	0.530247
1478.96	0.532804
1479.22	-2.51372
1479.49	2.5696
1479.76	-1.49321
1480.02	-0.476179
1480.29	2.57164
1480.55	-1.49246
1480.82	-5.55248
1481.08	1.55293
1481.35	3.58576
1481.61	1.55812
1481.88	-2.49204
1482.14	2.59061
1482.41	-1.45857
1482.67	-3.47861
1482.94	-1.43929
1483.2	-1.43367
1483.47	0.605444
1483.73	0.612665
1484	1.63384
1484.26	-0.3923
1484.53	-2.42591
1484.79	1.62609
1485.06	-2.44827
1485.32	0.565649
1485.59	0.559742
1485.85	1.55787
1486.12	-1.41923
1486.38	-1.40768
1486.65	0.633505
1486.91	-0.398771
1487.18	6.71084
1487.44	-2.39985
1487.71	0.638727
1487.97	0.638603
1488.24	-2.39758
1488.5	-0.370476
1488.77	-0.370159
1489.03	-3.40671
1489.3	0.642591
1489.56	-1.37844
1489.83	-0.363356
1490.09	0.651943
1490.36	-1.3664
1490.62	-1.36158
1490.89	3.69856
1491.15	1.67571
1491.42	4.70939
1491.68	0.667654
1491.95	-0.339355
1492.21	0.676598
1492.48	-0.328405
1492.74	-2.34619
1493	0.690554
1493.27	-0.316219
1493.53	-0.311325
1493.8	4.74632
1494.06	-2.3256
1494.33	-0.298784
1494.59	1.72939
1494.86	5.78028
1495.12	0.729179
1495.39	0.730211
1495.65	3.75962
1495.92	-1.29589
1496.18	-0.287474
1496.45	2.74218
1496.71	-0.285246
1496.97	-0.283333
1497.24	1.73685
1497.5	2.75058
1497.77	3.76427
1498.03	0.739737
1498.3	1.75297
1498.56	-0.260635
1498.82	0.75366
1499.09	1.76828
1499.35	-2.26335
1499.62	-1.24811
1499.88	-4.27012
1500.15	-1.2354
1500.41	-2.23973
1500.68	-1.22586
1500.94	-2.2317
1501.2	1.81014
1501.47	3.83076
1501.73	-1.21609
1502	-2.22223
1502.26	-1.20935
1502.52	-2.21498
1502.79	1.82341
1503.05	-1.20387
1503.32	-0.195229
1503.58	-1.20207
1503.85	0.814899
1504.11	-1.19755
1504.37	-1.19128
1504.64	-0.177654
1504.9	-1.18177
1505.17	0.838247
1505.43	0.839973
1505.7	1.84869
1505.96	1.84592
1506.22	0.83382
1506.49	-2.18606
1506.75	0.839663
1507.02	1.85222
1507.28	-1.16307
1507.54	2.87243
1507.81	-0.145514
1508.07	-1.1494
1508.34	1.87599
1508.6	-5.1744
1508.86	2.89067
1509.13	3.90316
1509.39	3.9075
1509.66	-0.11952
1509.92	-2.13099
1510.18	0.898369
1510.45	-0.104052
1510.71	-1.11211
1510.98	0.902435
1511.24	1.90801
1511.5	4.92578
1511.77	-0.114096
1512.03	0.883909
1512.29	0.875444
1512.56	-1.14233
1512.82	-4.16134
1513.08	0.859169
1513.35	-2.15476
1513.61	0.856707
1513.88	0.858458
1514.14	-2.14458
1514.4	-0.124163
1514.67	2.89528
1514.93	-2.12614
1515.2	-0.118771
1515.46	0.882765
1515.72	-0.123283
1515.99	-0.126501
1516.25	3.88273
1516.51	2.87784
1516.78	3.88167
1517.04	2.88035
1517.3	2.88218
1517.57	2.88499
1517.83	0.883606
1518.09	1.89147
1518.36	0.896458
1518.62	1.90408
1518.88	1.90926
1519.15	-1.09514
1519.41	-1.08989
1519.67	-0.0815697
1519.94	0.926214
1520.2	1.93231
1520.47	0.930248
1520.73	2.93819
1520.99	2.94297
1521.26	6.96194
1521.52	-0.0557632
1521.78	2.95855
1522.05	-1.0527
1522.31	0.955202
1522.57	-0.0473289
1522.84	2.9624
1523.1	-1.04885
1523.36	0.956406
1523.62	0.952591
1523.89	-0.0555897
1524.15	3.94902
1524.41	0.941729
1524.68	1.94226
1524.94	0.940245
1525.2	5.95316
1525.47	2.95321
1525.73	0.954212
1525.99	0.960716
1526.26	1.96998
1526.52	-0.0246964
1526.78	1.98759
1527.05	-1.01462
1527.31	-2.01446
1527.57	1.9946
1527.84	0.99387
1528.1	-1.00929
1528.36	-0.00605011
1528.63	1.99805
1528.89	-0.00517464
1529.15	0.997463
1529.41	-0.00243378
1529.68	4.00664
1529.94	0.00153732
1530.2	1.00229
1530.47	1.00416
1530.73	2.01065
1530.99	2.0185
1531.25	-1.98117
1531.52	-0.973164
1531.78	0.032196
1532.04	2.03754
1532.31	2.04102
1532.57	-1.96692
1532.83	3.04829
1533.09	1.05331
1533.36	-1.94343
1533.62	0.0715885
1533.88	-0.925554
1534.15	0.0820789
1534.41	2.09094
1534.67	4.09852
1534.94	3.09618
1535.2	-0.915466
1535.46	5.10233
1535.72	3.09456
1535.99	3.08463
1536.25	1.07592
1536.51	0.0717163
1536.77	-3.93849
1537.04	3.06379
1537.3	0.0563335
1537.56	2.05679
1537.82	3.05403
1538.09	1.05643
1538.35	2.05432
1538.61	2.04933
1538.87	2.04946
1539.14	0.0505867
1539.4	2.05889
1539.66	0.0745487
1539.92	1.09451
1540.19	3.11203
1540.45	0.119196
1540.71	3.13887
1540.97	-0.862617
1541.24	1.14799
1541.5	1.14083
1541.76	1.14218
1542.02	0.136189
1542.29	1.13499
1542.55	1.13159
1542.81	-1.87591
1543.07	8.13337
1543.34	-0.879377
1543.6	2.11988
1543.86	-1.88706
1544.12	1.10858
1544.39	5.11237
1544.65	3.11614
1544.91	1.12312
1545.17	0.13192
1545.43	5.14355
1545.7	1.15175
1545.96	3.16214
1546.22	1.16456
1546.48	2.17125
1546.74	0.168825
1547.01	2.17569
1547.27	1.17896
1547.53	5.19191
1547.79	4.19509
1548.06	1.18612
1548.32	1.17632
1548.58	0.17724
1548.84	2.1835
1549.1	2.19295
1549.37	1.17204
1549.63	3.14973
1549.89	3.14642
1550.15	-0.837515
1550.42	2.1903
1550.68	4.23452
1550.94	-2.76022
1551.2	1.27959
1551.46	4.27808
1551.73	2.27472
1551.99	1.26812
1552.25	2.26661
1552.51	2.27972
1552.77	2.29191
1553.03	3.29527
1553.3	3.29018
1553.56	4.27719
1553.82	4.27519
1554.08	4.27515
1554.34	4.27199
1554.61	0.256266
1554.87	0.250917
1555.13	5.2547
1555.39	3.24981
1555.65	4.25199
1555.91	-0.754606
1556.18	4.25778
1556.44	2.2566
1556.7	3.25664
1556.96	3.25907
1557.22	4.26455
1557.48	1.26285
1557.75	3.26896
1558.01	2.26791
1558.27	1.26397
1558.53	-0.743809
1558.79	-0.747061
1559.06	1.24911
1559.32	1.24404
1559.58	7.24049
1559.84	3.23664
1560.1	2.23452
1560.36	2.23312
1560.63	1.23315
1560.89	0.233932
1561.15	3.23261
1561.41	1.23576
1561.67	1.23941
1561.93	6.24357
1562.19	2.25396
1562.46	3.26335
1562.72	3.2656
1562.98	0.26606
1563.24	1.26629
1563.5	0.269333
1563.76	2.26911
1564.02	2.26963
1564.29	6.28125
1564.55	5.29354
1564.81	1.2958
1565.07	5.29901
1565.33	2.28517
1565.59	1.2461
1565.85	3.18378
1566.11	0.169619
1566.38	1.26184
1566.64	1.29181
1566.9	1.28183
1567.16	1.2684
1567.42	5.28803
1567.68	5.31415
1567.94	4.30945
1568.2	3.29335
1568.47	4.29808
1568.73	4.30371
1568.99	0.307642
1569.25	4.30691
1569.51	3.29965
1569.77	1.29756
1570.03	2.29895
1570.29	-0.695347
1570.55	-0.692955
1570.82	3.30692
1571.08	5.30713
1571.34	3.3091
1571.6	2.30944
1571.86	2.30752
1572.12	0.307228
1572.38	6.30182
1572.64	3.30382
1572.9	2.3022
1573.17	2.30053
1573.43	3.29727
1573.69	4.29312
1573.95	3.2933
1574.21	1.29968
1574.47	2.30395
1574.73	3.30982
1574.99	1.3204
1575.25	6.32273
1575.51	5.33224
1575.78	8.33709
1576.04	6.34162
1576.3	4.34282
1576.56	3.34489
1576.82	5.34224
1577.08	1.34005
1577.34	5.32691
1577.6	6.31706
1577.86	5.31133
1578.12	2.31212
1578.38	1.30956
1578.64	3.30109
1578.9	3.30142
1579.17	4.29995
1579.43	1.3108
1579.69	4.30364
1579.95	5.30396
1580.21	4.31261
1580.47	4.31635
1580.73	3.32146
1580.99	2.32506
1581.25	0.329971
1581.51	3.31901
1581.77	5.31107
1582.03	2.31768
1582.29	1.31796
1582.55	3.31066
1582.81	10.2843
1583.07	4.30671
1583.33	8.29138
1583.59	5.30409
1583.85	4.30918
1584.11	6.30024
1584.38	2.31828
1584.64	3.31821
1584.9	6.30996
1585.16	2.32842
1585.42	2.32999
1585.68	4.32258
1585.94	5.31976
1586.2	6.3149
1586.46	3.32303
1586.72	5.30957
1586.98	4.31123
1587.24	5.30471
1587.5	6.29867
1587.76	6.29806
1588.02	6.29848
1588.28	3.31573
1588.54	5.3096
1588.8	6.30962
1589.06	5.3203
1589.32	1.34392
1589.58	7.32173
1589.84	7.32625
1590.1	4.34219
1590.36	5.33955
1590.62	4.34784
1590.88	2.36106
1591.14	7.34471
1591.4	5.3539
1591.66	4.35965
1591.92	5.35551
1592.18	5.35452
1592.44	3.35929
1592.7	1.36279
1592.96	8.3238
1593.22	5.3366
1593.48	0.356348
1593.74	5.31955
1594	3.32288
1594.26	6.29837
1594.52	3.31666
1594.78	9.27795
1595.04	5.31001
1595.3	3.33017
1595.56	7.31013
1595.82	3.3372
1596.08	7.30058
1596.34	6.30856
1596.6	4.32391
1596.86	5.31918
1597.12	4.32876
1597.38	2.34575
1597.64	4.33654
1597.9	4.34062
1598.16	8.31571
1598.42	4.34113
1598.68	6.32471
1598.94	5.32601
1599.2	3.33585
1599.46	4.32552
1599.72	10.277
1599.98	9.28124
1600.24	6.30178
1600.5	2.33163
1600.76	5.30378
1601.02	5.29897
1601.28	8.26576
1601.54	7.2669
1601.8	5.27842
1602.06	8.24358
1602.32	7.24917
1602.58	8.23521
1602.84	2.29307
1603.1	6.2465
1603.36	5.25303
1603.62	8.21672
1603.88	7.22597
1604.14	6.23667
1604.4	8.21531
1604.66	5.25147
1604.92	4.26537
1605.17	8.22259
1605.43	5.25874
1605.69	7.23927
1605.95	11.1992
1606.21	7.24876
1606.47	6.26528
1606.73	14.185
1606.99	4.29686
1607.25	6.28234
1607.51	6.285
1607.77	9.2474
1608.03	8.28668
1608.29	9.15715
1608.55	6.43681
1608.81	6.15869
1609.07	7.40658
1609.32	7.33126
1609.58	6.56944
1609.84	5.6573
1610.1	9.12142
1610.36	7.96642
1610.62	8.82434
1610.88	7.38575
1611.14	8.02954
1611.4	7.72385
1611.66	7.74143
1611.92	4.90549
1612.18	11.4012
1612.44	7.67545
1612.69	6.67907
1612.95	6.80579
1613.21	2.37969
1613.47	7.29943
1613.73	8.2882
1613.99	7.08815
1614.25	7.13438
1614.51	4.14235
1614.77	6.00051
1615.03	9.95331
1615.29	5.34378
1615.54	9.86171
1615.8	7.39766
1616.06	9.662
1616.32	7.66013
1616.58	6.41993
1616.84	8.54534
1617.1	8.71446
1617.36	9.14635
1617.62	10.4262
1617.88	9.30473
1618.13	7.14426
1618.39	8.02792
1618.65	7.33836
1618.91	6.70003
1619.17	7.5225
1619.43	10.2394
1619.69	6.49954
1619.95	6.32527
1620.2	7.99458
1620.46	7.18715
1620.72	8.16668
1620.98	10.0524
1621.24	5.31859
1621.5	8.19372
1621.76	9.51793
1622.02	8.39279
1622.27	8.96599
1622.53	9.82409
1622.79	8.8371
1623.05	8.21795
1623.31	8.91798
1623.57	8.64339
1623.83	7.17743
1624.09	9.2558
1624.34	8.23041
1624.6	7.4006
1624.86	9.35056
1625.12	9.72317
1625.38	7.76259
1625.64	7.89534
1625.9	7.5823
1626.15	9.38122
1626.41	10.5611
1626.67	10.1832
1626.93	5.96406
1627.19	8.6353
1627.45	8.41067
1627.7	8.13478
1627.96	8.72513
1628.22	9.22527
1628.48	6.49862
1628.74	8.57323
1629	8.80564
1629.26	10.4047
1629.51	9.86674
1629.77	7.64286
1630.03	6.8747
1630.29	9.66731
1630.55	7.90324
1630.81	10.9098
1631.06	8.99757
1631.32	7.43228
1631.53	7.46201
1631.79	10.424
1632.05	11.4175
1632.31	7.48329
1632.57	14.3822
1632.84	7.49413
1633.1	11.4563
1633.36	10.4604
1633.62	13.4019
1633.88	11.4294
1634.14	11.4363
1634.4	11.4437
1634.66	10.4619
1634.93	8.49347
1635.19	10.4665
1635.45	7.5104
1635.71	11.4531
1635.97	8.4959
1636.23	12.4366
1636.49	12.4344
1636.75	10.4619
1637.02	10.4596
1637.28	8.48674
1637.54	9.46801
1637.8	7.49799
1638.06	10.4529
1638.32	14.39
1638.58	11.4352
1638.84	10.4505
1639.1	10.453
1639.37	13.4084
1639.63	8.48841
1639.89	13.4121
1640.15	14.398
1640.41	6.52448
1640.67	7.51186
1640.93	9.48868
1641.19	12.4491
1641.46	9.49856
1641.72	11.4678
1641.98	10.4818
1642.24	8.51278
1642.5	11.4666
1642.76	9.49861
1643.02	10.4838
1643.28	7.53187
1643.54	9.50198
1643.8	14.4247
1644.06	11.4714
1644.33	8.51763
1644.59	11.4669
1644.85	6.54561
1645.11	10.482
1645.37	11.4706
1645.63	14.4293
1645.89	12.4662
1646.15	6.56434
1646.41	3.61172
1646.67	9.51418
1646.93	8.52931
1647.19	7.54583
1647.46	11.4795
1647.72	10.4946
1647.98	8.52702
1648.24	11.4789
1648.5	8.53206
1648.76	11.4905
1649.02	10.5155
1649.28	9.54974
1649.54	13.4964
1649.8	7.58821
1650.06	11.5245
1650.32	18.4167
1650.58	12.5234
1650.85	12.534
1651.11	9.58758
1651.37	8.6107
1651.63	10.5877
1651.89	10.5919
1652.15	12.5652
1652.41	11.5822
1652.67	9.61487
1652.93	11.5849
1653.19	9.61252
1653.45	7.64265
1653.71	10.6008
1653.97	12.5753
1654.23	4.69786
1654.49	11.6002
1654.75	11.6039
1655.01	7.66623
1655.27	12.6009
1655.53	9.65245
1655.8	7.69156
1656.06	11.6508
1656.32	6.72715
1656.57	12.6559
1656.84	8.71307
1657.1	12.6654
1657.36	8.71837
1657.62	10.6921
1657.88	9.704
1658.14	6.74373
1658.4	14.6382
1658.66	9.70329
1658.92	6.74158
1659.18	6.73978
1659.44	6.7379
1659.7	7.72219
1659.96	8.70613
1660.22	9.68764
1660.48	8.7068
1660.74	5.75522
1661	9.7064
1661.26	12.6734
1661.52	9.7228
1661.78	6.77159
1662.04	10.7236
1662.3	10.7286
1662.56	7.74338
1662.82	10.7653
1663.08	9.81272
1663.34	9.79773
1663.6	5.84352
1663.86	9.79096
1664.12	11.7003
1664.38	9.76413
1664.64	7.79981
1664.9	10.7669
1665.16	8.80995
1665.42	4.86632
1665.68	7.80103
1665.94	9.74801
1666.2	6.86571
1666.46	10.8297
1666.72	7.86252
1666.98	9.7983
1667.24	7.7343
1667.5	7.82366
1667.76	5.84573
1668.02	10.7777
1668.28	9.7901
1668.54	8.80075
1668.8	5.8442
1669.06	8.82021
1669.32	8.84002
1669.58	9.83357
1669.84	3.91027
1670.1	7.86484
1670.36	6.87658
1670.62	10.8298
1670.88	11.8374
1671.14	7.89696
1671.4	7.89645
1671.66	7.89662
1671.92	8.88615
1672.18	6.91323
1672.44	8.89517
1672.69	8.8987
1672.95	3.95849
1673.21	4.94937
1673.47	8.9068
1673.73	5.94486
1673.99	6.93792
1674.25	9.90976
1674.51	7.93876
1674.77	7.94494
1675.03	6.96212
1675.29	4.00197
1675.55	8.95605
1675.81	7.97166
1676.07	7.97461
1676.33	9.95591
1676.59	5.01124
1676.85	8.97402
1677.11	9.96716
1677.37	8.97949
1677.63	7.00093
1677.89	8.98005
1678.14	3.04151
1678.4	1.06073
1678.66	6.0036
1678.92	6.00112
1679.18	8.96604
1679.44	6.98762
1679.7	10.9419
1679.96	7.97579
1680.22	4.02196
1680.48	5.99908
1680.74	8.96326
1681	6.98658
1681.26	8.96254
1681.52	9.95153
1681.78	6.98976
1682.03	8.96786
1682.29	4.03081
1682.55	7.98527
1682.81	5.02461
1683.07	6.01395
1683.33	6.0157
1683.59	10.9573
1683.85	7.00828
1684.11	3.05865
1684.37	8.98633
1684.63	7.00894
1684.89	3.05886
1685.14	7.99766
1685.4	6.02428
1685.66	6.0263
1685.92	1.09144
1686.18	4.05654
1686.44	6.03465
1686.7	6.03946
1686.96	8.0232
1687.22	4.07725
1687.48	7.0441
1687.73	3.09315
1687.99	3.09284
1688.25	4.08019
1688.51	5.06785
1688.77	7.04234
1689.03	10.0025
1689.29	8.02428
1689.55	7.03496
1689.81	2.09892
1690.06	8.016
1690.32	6.03935
1690.58	7.02639
1690.84	6.04906
1691.1	2.10877
1691.36	7.0469
1691.62	9.02446
1691.88	3.10912
1692.13	7.06165
1692.39	5.09037
1692.65	3.11765
1692.91	5.09013
1693.17	4.10106
1693.43	3.11151
1693.69	9.02392
1693.95	2.11692
1694.2	3.10032
1694.46	7.03964
1694.72	8.02144
1694.98	3.09452
1695.24	4.08174
1695.5	7.04105
1695.76	4.08977
1696.01	3.10861
1696.27	5.0834
1696.53	6.07503
1696.79	5.09466
1697.05	7.06802
1697.31	3.12626
1697.57	7.06519
1697.82	-3.77425
1698.08	5.08611
1698.34	3.11408
1698.6	5.08107
1698.86	4.09511
1699.12	4.09421
1699.38	-0.824921
1699.63	6.06472
1699.89	4.10079
1700.15	1.15152
1700.41	3.1225
1700.67	4.10442
1700.92	-0.813185
1701.18	3.1235
1701.44	1.15724
1701.7	3.12504
1701.96	4.10708
1702.22	6.07111
1702.47	6.06877
1702.73	5.083
1702.99	2.13258
1703.25	5.08173
1703.51	1.15303
1703.77	5.08438
1704.02	4.10192
1704.28	1.15569
1704.54	1.16026
1704.8	-0.799498
1705.06	3.13438
1705.32	3.13575
1705.57	5.10188
1705.83	3.13927
1706.09	5.10696
1706.35	3.14054
1706.61	6.08451
1706.86	5.09865
1707.12	5.09458
1707.38	5.0906
1707.64	5.08746
1707.9	3.12093
1708.16	1.15437
1708.41	2.1302
1708.67	5.06554
1708.93	1.13965
1709.19	3.09372
1709.44	1.13237
1709.7	6.02666
1709.96	2.11145
1710.22	6.02934
1710.48	3.09551
1710.73	3.09877
1710.99	5.06144
1711.25	5.06786
1711.51	1.15558
1711.77	0.180653
1712.02	2.14371
1712.28	5.08506
1712.54	4.10528
1712.8	3.1216
1713.06	5.07156
1713.31	2.12792
1713.57	4.07693
1713.83	4.07031
1714.09	5.04048
1714.34	1.13021
1714.6	4.06046
1714.86	5.03738
1715.12	4.06163
1715.38	4.06367
1715.63	1.13985
1715.89	0.170124
1716.15	3.10369
1716.41	0.173151
1716.66	4.08
1716.92	3.10045
1717.18	2.11971
1717.44	2.11403
1717.69	2.1067
1717.95	-2.77796
1718.21	5.0141
1718.47	0.134968
1718.72	3.05243
1718.98	0.128201
1719.24	1.10167
1719.5	-1.81726
1719.75	5.00038
1720.01	2.08061
1720.27	3.05837
1720.53	3.06182
1720.78	1.11468
1721.04	1.11311
1721.3	1.10952
1721.56	2.0802
1721.81	1.10523
1722.07	2.07514
1722.33	1.09954
1722.59	-1.81984
1722.84	2.06484
1723.1	-0.852884
1723.36	4.00193
1723.62	3.02886
1723.87	2.0574
1724.13	-0.853609
1724.39	0.118053
1724.64	2.06119
1724.9	2.05985
1725.16	3.02668
1725.42	3.98976
1725.67	-0.865625
1725.93	3.97618
1726.19	4.9416
1726.45	3.00275
1726.7	2.03777
1726.96	3.00744
1727.22	3.97515
1727.47	-1.84272
1727.73	1.06476
1727.99	1.07239
1728.24	3.01076
1728.5	1.07199
1728.76	0.0978355
1729.02	-0.895693
1729.27	0.0411453
1729.53	1.96119
1729.79	1.0113
1730.05	1.99092
1730.3	2.0022
1730.56	1.99054
1730.82	0.0558662
1731.07	1.02144
1731.33	-0.88422
1731.59	3.95169
1731.84	1.05507
1732.1	1.05688
1732.36	1.05788
1732.61	1.05804
1732.87	0.0917587
1733.13	4.9211
1733.39	1.05453
1733.64	1.05014
1733.9	3.9392
1734.16	2.96634
1734.41	1.03243
1734.67	2.95616
1734.93	-0.90464
1735.18	-0.908875
1735.44	-1.87619
1735.7	1.00955
1735.95	-1.88099
1736.21	0.0435257
1736.47	1.96885
1736.72	0.0439167
1736.98	0.0433769
1737.24	3.89138
1737.49	3.89
1737.75	1.96511
1738.01	-0.920845
1738.26	1.96266
1738.52	0.998646
1738.78	2.91862
1739.03	0.993864
1739.29	-2.85217
1739.55	0.986715
1739.8	3.86104
1740.06	0.973074
1740.32	2.88449
1740.57	2.87768
1740.83	-1.92058
1741.09	0.952038
1741.34	0.949318
1741.6	1.90458
1741.86	-1.92885
1742.11	2.85807
1742.37	-1.92967
1742.63	1.90106
1742.88	3.81607
1743.14	2.85839
1743.4	0.944656
1743.65	4.77485
1743.91	-0.967993
1744.16	1.90068
1744.42	2.85556
1744.68	-0.0155525
1744.93	-0.0149364
1745.19	4.7696
1745.45	1.90258
1745.7	0.948154
1745.96	-0.963831
1746.22	-0.964251
1746.47	4.77079
1746.73	-1.92514
1746.98	0.938129
1747.24	4.75674
1747.5	1.88612
1747.75	-0.0268478
1748.01	2.83438
1748.27	1.87913
1748.52	-1.93757
1748.78	1.88297
1749.03	-0.0233021
1749.29	-0.974539
1749.55	-0.970255
1749.8	2.85477
1750.06	0.951153
1750.32	2.86884
1750.57	0.00959778
1750.83	-0.939775
1751.08	3.84322
1751.34	-1.88791
1751.6	0.0266438
1751.85	-0.92996
1752.11	0.0219669
1752.36	0.972931
1752.62	-0.940348
1752.88	2.87701
1753.13	0.964209
1753.39	0.00680733
1753.64	-0.949501
1753.9	0.00318527
1754.15	0.00175476
1754.41	-1.90847
1754.67	0.949951
1754.92	-1.91174
1755.18	2.85393
1755.43	-1.91276
1755.69	2.85201
1755.95	0.944138
1756.2	-0.0113029
1756.46	-0.966978
1756.71	0.93399
1756.97	-0.0230522
1757.23	-0.979416
1757.48	2.82195
1757.74	4.7233
1757.99	-0.0333824
1758.25	3.77431
1758.5	1.88056
1758.76	2.83602
1759.02	0.935308
1759.27	-0.96575
1759.53	0.939478
1759.78	2.84565
1760.04	2.84706
1760.3	3.79863
1760.55	1.89537
1760.81	-0.959152
1761.06	1.89414
1761.32	-0.00998116
1761.57	1.88947
1761.83	-1.91584
1762.08	-1.91643
1762.34	-0.965561
1762.6	-1.91516
1762.85	1.89256
1763.11	-0.00482941
1763.36	3.80067
1763.62	0.948929
1763.87	0.000497818
1764.13	-1.89813
1764.38	-1.89448
1764.64	0.96471
1764.89	3.82921
1765.15	1.9313
1765.4	1.93597
1765.66	0.987814
1765.92	0.990936
1766.17	2.8975
1766.43	0.0430012
1766.68	-1.86013
1766.94	1.94785
1767.19	0.995989
1767.45	0.0453682
1767.7	-0.906555
1767.96	3.85073
1768.21	-0.909107
1768.47	0.993044
1768.73	0.0413933
1768.98	-0.909842
1769.24	2.88716
1769.49	1.92531
1769.75	-0.934414
1770	0.00988007
1770.26	-0.937569
1770.51	1.91802
1770.77	-4.72514
1771.02	0.0269909
1771.28	0.0299892
1771.53	-0.913363
1771.79	0.996744
1772.04	-0.900761
1772.3	1.00368
1772.55	-1.84456
1772.81	1.96593
1773.06	2.92235
1773.32	-1.83117
1773.57	0.0758438
1773.83	1.03125
1774.08	0.0828438
1774.34	-2.77
1774.59	0.0885315
1774.85	5.80342
1775.1	1.99969
1775.36	-0.854021
1775.61	2.9608
1775.87	1.06709
1776.12	1.07412
1776.38	0.124987
1776.63	0.127129
1776.89	-0.825796
1777.14	-0.826963
1777.4	-3.68812
1777.65	-1.7828
1777.91	-2.7376
1778.16	0.118244
1778.42	-1.78911
1778.67	2.01775
1778.93	1.06217
1779.18	2.96129
1779.44	2.00446
1779.69	-1.80345
1779.95	2.95425
1780.2	-3.69915
1780.46	1.06182
1780.71	0.112854
1780.97	0.115908
1781.22	-0.83276
1781.47	-0.831133
1781.73	2.02704
1781.98	-1.77824
1782.24	-0.822195
1782.49	0.134604
1782.75	-0.811995
1783	-0.807804
1783.26	1.10155
1783.51	-3.66011
1783.77	-0.797276
1784.02	1.11305
1784.28	0.1639
1784.53	1.1224
1784.79	3.03683
1785.04	-1.72852
1785.29	-0.771746
1785.55	0.183451
1785.8	-1.72472
1786.06	0.182341
1786.31	1.13506
1786.57	0.182579
1786.82	1.13939
1787.08	-0.764351
1787.33	0.195274
1787.58	-1.70723
1787.84	-0.744101
1788.09	-2.64234
1788.35	1.19501
1788.6	0.253038
1788.86	0.262877
1789.11	-0.689966
1789.37	1.23099
1789.62	2.19819
1789.87	0.28838
1790.13	1.25043
1790.38	7.00542
1790.64	0.299364
1790.89	2.21785
1791.15	-0.658215
1791.4	5.08875
1791.65	-5.46228
1791.91	0.283808
1792.16	-0.675035
1792.42	1.24143
1792.67	-0.672243
1792.93	0.287464
1793.18	0.290998
1793.43	2.2096
1793.69	1.25299
1793.94	3.17012
1794.2	0.299555
1794.45	1.25939
1794.7	3.1762
1794.96	2.21529
1795.21	1.26418
1795.47	1.28193
1795.72	-2.54446
1795.97	1.30046
1796.23	0.344671
1796.48	-0.610992
1796.74	0.353926
1796.99	0.358784
1797.25	1.32454
1797.5	1.32935
1797.75	2.29474
1798.01	1.33718
1798.26	-0.582478
1798.51	0.381533
1798.77	0.383446
1799.02	0.384258
1799.28	-2.50084
1799.53	-0.579363
1799.78	0.379389
1800.04	-0.585209
1800.29	1.33357
1800.55	-1.55132
1800.8	2.28965
1801.05	0.367004
1801.31	2.28734
1801.56	-0.594345
1801.81	-1.55432
1802.07	0.367952
1802.32	-0.590723
1802.58	2.29384
1802.83	2.29737
1803.08	0.379683
1803.34	0.384327
1803.59	1.35074
1803.84	-0.56814
1804.1	-1.52754
1804.35	1.35918
1804.61	0.40056
1804.86	0.40493
1805.11	-2.47752
1805.37	-0.548141
1805.62	1.3827
1805.87	-3.42636
1806.13	3.31995
1806.38	-2.45556
1806.64	0.438215
1806.89	-1.48589
1807.14	-2.44762
1807.4	2.37225
1807.65	4.3004
1807.9	-1.48201
1808.16	1.40998
1808.41	-1.48085
1808.66	0.447639
1808.92	2.37638
1809.17	1.41356
1809.42	1.41468
1809.68	0.451675
1809.93	0.452827
1810.18	0.453941
1810.44	0.454882
1810.69	0.455315
1810.94	-0.50964
1811.2	3.34587
1811.45	0.453501
1811.7	-0.510836
1811.96	0.453094
1812.21	1.41755
1812.46	-1.47357
1812.72	0.457075
1812.97	-0.504198
1813.22	-1.46506
1813.48	0.467176
1813.73	2.39804
1813.98	-2.42307
1814.24	-0.488737
1814.49	-0.483295
1814.74	2.41935
1815	-0.470953
1815.25	2.43151
1815.5	0.502497
1815.76	-0.462122
1816.01	1.47191
1816.26	0.506424
1816.52	2.4407
1816.77	1.4756
1817.02	0.510448
1817.27	0.509186
1817.53	1.47265
1817.78	-1.43593
1818.03	1.4549
1818.29	-2.40736
1818.54	4.35774
1818.79	0.499378
1819.05	3.40186
1819.3	1.46779
1819.55	-0.46361
1819.8	2.43837
1820.06	-0.459091
1820.31	-0.457415
1820.56	0.511686
1820.82	-0.45266
1821.07	-0.450628
1821.32	-3.35067
1821.58	2.45577
1821.83	-2.37847
1822.08	-0.440691
1822.33	-0.438568
1822.59	1.49886
1822.84	3.43607
1823.09	-1.40297
1823.34	0.533882
1823.6	-0.434858
1823.85	-0.436855
1824.1	1.49662
1824.36	0.527864
1824.61	3.43311
1824.86	3.43495
1825.11	-0.435823
1825.37	1.50231
1825.62	2.47269
1825.87	4.41088
1826.12	0.537254
1826.38	-0.431664
1826.63	-2.36859
1826.88	2.47399
1827.14	3.44268
1827.39	0.538031
1827.64	0.539621
1827.89	-0.427269
1828.15	-1.39462
1828.4	-1.39495
1828.65	-1.39619
1828.9	0.539026
1829.16	-3.33903
1829.41	-1.40402
1829.66	-0.436726
1829.91	1.49896
1830.17	-0.439703
1830.42	1.49407
1830.67	5.36391
1830.92	2.45629
1831.18	0.519571
1831.43	1.4896
1831.68	3.42875
1831.93	-0.442556
1832.19	-0.440611
1832.44	0.530117
1832.69	-0.436432
1832.94	2.47432
1833.2	0.538479
1833.45	0.538267
1833.7	-1.4005
1833.95	3.44759
1834.2	0.539738
1834.46	-0.429029
1834.71	0.534382
1834.96	1.49137
1835.21	0.511549
1835.47	-1.43451
1835.72	-0.473337
1835.97	0.487751
1836.22	1.45399
1836.48	2.41522
1836.73	2.50735
1836.98	0.561911
1837.23	-0.436733
1837.48	0.522062
1837.74	0.506365
1837.99	-0.475342
1838.24	0.470371
1838.49	2.38919
1838.74	0.453253
1839	0.48752
1839.25	2.43884
1839.5	-1.42882
1839.75	2.44892
1840	-1.42527
1840.26	0.517294
1840.51	0.497105
1840.76	-0.486225
1841.01	0.468172
1841.27	-3.41023
1841.52	-1.48669
1841.77	1.40138
1842.02	-3.43563
1842.27	-2.47773
1842.53	0.40946
1842.78	-0.562899
1843.03	-0.560402
1843.28	-2.49244
1843.53	-1.52678
1843.78	1.36577
1844.04	-2.49376
1844.29	-0.567665
1844.54	-1.53337
1844.79	0.397213
1845.04	4.25526
1845.3	-0.572481
1845.55	-0.5728
1845.8	0.390839
1846.05	-3.46151
1846.3	1.37183
1846.55	3.3109
1846.81	-3.43875
1847.06	1.3803
1847.31	1.34775
1847.56	1.30977
1847.81	-0.623787
1848.07	-1.58718
1848.32	-0.615713
1848.57	1.31946
1848.82	0.344002
1849.07	0.337214
1849.32	2.26233
1849.57	1.29397
1849.83	4.1736
1850.08	-0.645769
1850.33	0.308901
1850.58	2.22269
1850.83	-0.668743
1851.09	1.24658
1851.34	-1.64148
1851.59	-0.685854
1851.84	-2.61081
1852.09	-0.693422
1852.34	3.14525
1852.59	0.263002
1852.84	2.18218
1853.1	3.14099
1853.35	-2.62231
1853.6	1.21577
1853.85	2.17203
1854.1	1.20635
1854.35	2.15848
1854.6	2.1497
1854.86	-0.735205
1855.11	-2.65744
1855.36	2.13197
1855.61	-0.751377
1855.86	-2.67558
1856.11	-1.72244
1856.36	-1.72561
1856.61	-0.770271
1856.87	3.0595
1857.12	0.184433
1857.37	0.182003
1857.62	1.13635
1857.87	0.174686
1858.12	-0.786852
1858.37	2.08046
1858.63	0.160103
1858.88	0.153841
1859.13	0.147467
1859.38	-0.815609
1859.63	-1.77845
1859.88	2.0408
1860.13	2.03867
1860.38	0.125128
1860.63	-3.69954
1860.89	1.08336
1861.14	-0.827358
1861.39	1.08709
1861.64	1.08954
1861.89	1.09135
1862.14	0.133877
1862.39	-1.78273
1862.64	-2.74402
1862.9	-0.836369
1863.15	2.02635
1863.4	0.106987
1863.65	1.05644
1863.9	1.05006
1864.15	-1.82247
1864.4	0.0830708
1864.65	-0.877502
1864.9	1.02726
1865.15	1.97582
1865.4	-1.85001
1865.66	3.86834
1865.91	0.0425053
1866.16	-0.920782
1866.41	0.0223827
1866.66	0.964539
1866.91	-1.90352
1867.16	2.84685
1867.41	0.932165
1867.66	1.87345
1867.91	0.914005
1868.16	-0.993223
1868.41	0.90411
1868.67	-1.95117
1868.92	-0.0514259
1869.17	0.8985
1869.42	-1.00499
1869.67	-2.90923
1869.92	1.84073
1870.17	0.886976
1870.42	2.78496
1870.67	1.83139
1870.92	0.878141
1871.17	-2.92593
1871.42	1.82377
1871.67	-0.0804443
1871.92	-0.0847549
1872.17	-1.99035
1872.42	1.80518
1872.68	-2.94829
1872.93	1.79482
1873.18	-2.0097
1873.43	-1.06491
1873.68	4.62805
1873.93	-0.122187
1874.18	-2.02531
1874.43	-7.72442
1874.68	0.809057
1874.93	-0.146822
1875.18	2.69056
1875.43	-2.05781
1875.68	-1.1174
1875.93	2.66302
1876.18	-3.0331
1876.43	0.744287
1876.68	-0.210587
1876.93	-3.0556
1877.18	-0.222689
1877.43	-2.12579
1877.68	0.69523
1877.93	2.55612
1878.18	0.683935
1878.44	3.60334
1878.69	-1.16584
1878.93	-0.23056
1879.19	0.710709
1879.44	1.67584
1879.69	1.684
1879.94	0.72784
1880.19	1.66596
1880.44	0.71583
1880.69	2.60565
1880.94	-2.12612
1881.19	6.38824
1881.44	-1.18898
1881.69	0.693272
1881.94	2.5721
1882.19	0.667421
1882.44	-0.291185
1882.69	0.63903
1882.94	1.5655
1883.19	0.613485
1883.44	-1.28978
1883.69	0.734806
1883.94	-0.305302
1884.19	2.46618
1884.44	1.52322
1884.69	-0.351889
1884.94	0.577429
1885.19	0.583107
1885.44	0.591803
1885.69	-0.351
1885.94	0.592903
1886.19	-2.23128
1886.44	-1.28496
1886.69	-1.28428
1886.94	-0.344236
1887.19	-2.24319
1887.44	-1.30596
1887.69	-0.369331
1887.94	3.39657
1888.19	-2.27057
1888.44	2.43586
1888.69	-1.3455
1888.94	-0.412586
1889.19	-3.24697
1889.44	1.45279
1889.69	0.505226
1889.94	0.502018
1890.19	-0.442757
1890.44	0.498074
1890.69	3.32529
1890.94	3.32843
1891.19	2.38574
1891.43	-2.32695
1891.68	0.494215
1891.94	1.43308
1892.18	2.37082
1892.43	0.483755
1892.68	0.480465
1892.93	-0.466629
1893.18	-0.473389
1893.43	3.28065
1893.68	-1.43754
1893.93	0.430393
1894.18	2.30498
1894.43	2.30621
1894.68	-0.523855
1894.93	2.28848
1895.18	0.405239
1895.43	2.28222
1895.68	-0.53726
1895.93	0.401901
1896.18	2.28135
1896.43	-0.537886
1896.68	-0.537159
1896.93	-5.23697
1897.18	-1.47532
1897.42	1.34619
1897.68	0.40505
1897.92	0.403416
1898.17	2.28202
1898.42	-1.48446
1898.67	1.33213
1898.92	2.26595
1899.17	5.07841
1899.42	1.30956
1899.67	1.30264
1899.92	0.358015
1900.17	3.1711
1900.42	1.28661
1900.67	1.28317
1900.92	-0.597563
1901.16	-0.598183
1901.41	1.28179
1901.66	-1.53578
1901.91	3.16544
1902.16	1.2872
1902.41	-1.53159
1902.66	-2.47079
1902.91	-0.591936
1903.16	1.2848
1903.41	-0.60124
1903.66	0.333975
1903.91	2.20998
1904.16	0.325228
1904.41	1.26167
1904.65	-1.56232
1904.9	-2.50592
1905.15	1.25073
1905.4	-3.45329
1905.65	-0.636143
1905.9	0.299932
1906.15	3.11041
1906.4	-2.53721
1906.65	2.15394
1906.9	1.20922
1907.14	0.265066
1907.39	-2.55636
1907.64	-1.61993
1907.89	0.256596
1908.14	3.07425
1908.39	1.19716
1908.64	0.256701
1908.89	1.19465
1909.14	0.254501
1909.39	-1.62457
1909.63	-1.62348
1909.88	0.259069
1910.13	-1.61846
1910.38	-0.674049
1910.63	-2.55215
1910.88	-1.60783
1911.13	0.277098
1911.38	3.10313
1911.62	0.276848
1911.87	0.274839
1912.12	1.2138
1912.37	0.267469
1912.62	1.20498
1912.87	2.14346
1913.12	1.19868
1913.37	0.254011
1913.61	1.19377
1913.86	-0.689808
1914.11	-3.51379
1914.36	-0.683315
1914.61	1.2042
1914.86	-0.680157
1915.11	1.20787
1915.36	-0.677538
1915.6	-0.677534
1915.85	-2.56653
1916.1	4.03545
1916.35	-0.687288
1916.6	4.02618
1916.85	1.18956
1917.1	-2.59079
1917.34	2.11803
1917.59	2.1117
1917.84	1.16359
1918.09	-0.726175
1918.34	0.214153
1918.59	0.214174
1918.83	0.21594
1919.08	2.10543
1919.33	-0.721497
1919.58	1.17001
1919.83	1.17632
1920.08	1.18126
1920.33	-3.54187
1920.57	4.96029
1920.82	3.06465
1921.07	1.17353
1921.32	2.12139
1921.57	-0.71162
1921.81	1.17961
1922.06	0.234058
1922.31	1.17874
1922.56	0.23
1922.81	1.171
1923.06	1.16457
1923.31	-2.62336
1923.55	0.20784
1923.8	-2.6327
1924.05	0.198065
1924.3	-0.753027
1924.55	0.185186
1924.79	0.179533
1925.04	-1.71381
1925.29	2.06304
1925.54	-1.71658
1925.79	-2.66063
1926.04	-0.767204
1926.28	2.07243
1926.53	-0.762341
1926.78	2.07879
1927.03	2.08309
1927.28	2.08489
1927.52	3.97907
1927.77	3.03259
1928.02	0.191317
1928.27	-0.756481
1928.52	-0.757313
1928.76	3.03064
1929.01	2.08324
1929.26	-0.759735
1929.51	1.13609
1929.76	-4.55016
1930	1.14188
1930.25	2.09309
1930.5	-0.749449
1930.75	-1.69666
1931	2.10293
1931.24	-2.64553
1931.49	-0.749165
1931.74	1.14496
1931.99	2.08824
1932.24	2.08202
1932.48	3.02467
1932.73	2.06933
1932.98	0.165134
1933.23	2.05849
1933.47	0.155096
1933.72	1.10198
1933.97	-0.792517
1934.22	1.11316
1934.46	-1.72538
1934.71	-1.71117
1934.96	4.01256
1935.21	0.218666
1935.46	2.13474
1935.7	-1.6707
1935.95	3.10172
1936.2	3.08246
1936.45	-0.735371
1936.69	-0.739788
1936.94	3.06606
1937.19	2.10522
1937.44	-4.57092
1937.68	1.13615
1937.93	1.12831
1938.18	0.16918
1938.43	3.96852
1938.68	0.158339
1938.92	2.06678
1939.17	-0.790037
1939.42	2.06693
1939.67	2.06773
1939.91	0.162445
1940.16	1.11563
1940.41	1.11344
1940.66	0.162722
1940.9	-0.788414
1941.15	1.12988
1941.4	4.95257
1941.64	3.99516
1941.89	-5.55302
1942.14	-1.74645
1942.39	3.005
1942.63	0.149893
1942.88	2.07802
1943.13	-0.784096
1943.38	-1.74128
1943.62	0.156641
1943.87	1.09787
1944.12	2.04071
1944.37	0.143763
1944.61	1.09985
1944.86	-0.808121
1945.11	0.148483
1945.35	0.150679
1945.6	-2.71356
1945.85	2.06645
1946.1	1.11259
1946.34	1.11369
1946.59	3.0265
1946.84	-0.799376
1947.09	-3.67058
1947.33	3.02083
1947.58	3.97195
1947.83	1.09745
1948.07	-0.818676
1948.32	-0.821985
1948.57	-0.825312
1948.82	-0.830118
1949.06	2.03634
1949.31	-1.78804
1949.56	2.03907
1949.8	0.127396
1950.05	3.95782
1950.3	-0.825016
1950.54	-0.81945
1950.79	-0.813112
1951.04	-0.808914
1951.29	2.0726
1951.53	0.16066
1951.78	1.12543
1952.03	0.16926
1952.27	4.01092
1952.52	1.13087
1952.77	-0.789474
1953.01	0.166988
1953.26	1.12841
1953.51	2.09186
1953.76	0.161043
1954	0.149714
1954.25	-0.826944
1954.49	1.07647
1954.74	1.06139
1954.99	2.00605
1955.24	1.99957
1955.48	0.0797119
1955.73	-2.79503
1955.98	1.99858
1956.22	2.00565
1956.47	0.100307
1956.72	2.98246
1956.96	0.107229
1957.21	-0.852318
1957.46	-0.850569
1957.7	1.07197
1957.95	-2.77015
1958.2	-0.848612
1958.44	-1.81068
1958.69	0.109934
1958.94	0.107954
1959.18	3.94758
1959.43	-1.82611
1959.68	1.05135
1959.92	-1.83506
1960.17	0.0801334
1960.42	-2.80798
1960.66	-1.85356
1960.91	1.9809
1961.16	0.0532475
1961.4	1.00618
1961.65	1.95936
1961.9	-1.88471
1962.14	0.99189
1962.39	0.990093
1962.63	0.987894
1962.88	1.94563
1963.13	-1.89592
1963.37	-1.89823
1963.62	3.8591
1963.87	0.976978
1964.11	2.89512
1964.36	-0.945574
1964.61	-2.86692
1964.85	0.010437
1965.1	0.00567627
1965.35	0.00303459
1965.59	-1.9212
1965.84	-1.92387
1966.08	2.87658
1966.33	-0.96372
1966.58	-1.92284
1966.82	0.000368118
1967.07	-1.92147
1967.32	-0.960798
1967.56	2.88029
1967.81	-0.00616837
1968.05	-0.00728989
1968.3	-0.00949669
1968.55	-1.93432
1968.79	0.946321
1969.04	-0.0200825
1969.29	0.934162
1969.53	1.88643
1969.78	1.87591
1970.02	-2.93601
1970.27	0.896212
1970.52	-1.03119
1970.76	1.84194
1971.01	1.83481
1971.25	-0.0905609
1971.5	-1.05537
1971.75	0.857998
1971.99	-2.02419
1972.24	-0.107359
1972.48	1.81032
1972.73	-3.94758
1972.98	0.845932
1973.22	-0.118299
1973.47	2.75243
1973.71	0.826189
1973.96	-0.139694
1974.21	-0.145586
1974.45	-0.150423
1974.7	2.7212
1974.94	-3.03266
1975.19	-0.159346
1975.44	1.7567
1975.68	1.75677
1975.93	-0.160398
1976.17	1.75759
1976.42	-1.12034
1976.66	0.796442
1976.91	-0.164928
1977.16	-1.12704
1977.4	-3.04907
1977.65	0.783369
1977.89	1.73691
1978.14	-1.14643
1978.39	1.7235
1978.63	-2.11718
1978.88	3.62892
1979.12	-1.168
1979.37	-2.12946
1979.61	3.61929
1979.86	1.69947
1980.1	1.6975
1980.35	-1.18079
1980.6	3.60676
1980.84	-0.233978
1981.09	0.717611
1981.33	0.712755
1981.58	-0.251312
1981.82	1.65909
1982.07	3.57017
1982.31	-1.22243
1982.56	5.47792
1982.81	1.64043
1983.05	1.6336
1983.3	0.66799
1983.54	-0.298439
1983.79	-1.26275
1984.03	-0.311041
1984.28	2.55419
1984.52	2.54894
1984.77	-2.23831
1985.02	0.626001
1985.26	3.48776
1985.51	0.61063
1985.75	0.604961
1986	0.602209
1986.24	0.600746
1986.49	3.46894
1986.73	-3.22261
1986.98	-0.355225
1987.22	3.4659
1987.47	0.596163
1987.71	1.5456
1987.96	1.53591
1988.21	1.52528
1988.45	-2.30698
1988.7	-1.36372
1988.94	1.47841
1989.19	1.4598
1989.43	0.479046
1989.68	-3.17771
1989.92	0.514856
1990.17	1.33537
1990.41	-0.614529
1990.66	-1.16413
1990.9	-0.481028
1991.15	0.330875
1991.39	-0.270992
1991.64	-0.480785
1991.88	-0.801752
1992.13	0.257185
1992.37	2.13297
1992.62	-0.296755
1992.86	1.77057
1993.11	-0.277847
1993.35	-1.18381
1993.6	-3.31311
1993.84	1.04134
1994.09	1.4148
1994.33	2.15223
1994.58	1.63312
1994.82	-0.927328
1995.07	-0.248217
1995.31	0.803099
1995.56	-1.25279
1995.8	0.695873
1996.05	-0.695553
1996.29	-0.587507
1996.54	-1.19584
1996.78	-1.95214
1997.03	0.903223
1997.27	-3.17472
1997.52	-0.334427
1997.76	3.04964
1998.01	1.36607
1998.25	-1.19819
1998.5	-0.621782
1998.74	-1.12391
1998.99	1.15486
1999.23	0.148989
1999.48	1.45337
1999.72	0.972738
1999.97	0.661329
2000.21	0.147768
2000.46	1.28439
2000.7	0.262602
2000.95	-0.863743
2001.19	0.97542
2001.43	0.609049
2001.68	1.23936
2001.92	-1.16379
2002.17	-0.575943
2002.41	-0.783741
2002.66	0.039402
2002.9	-0.706415
2003.15	0.5546
2003.39	-0.8081
2003.64	0.953056
2003.88	-0.588951
2004.13	-1.634
2004.37	0.120918
2004.61	0.797384
2004.86	-0.215401
2005.1	-0.715796
2005.35	-0.265329
2005.59	1.26399
2005.84	0.244169
2006.08	2.37145
2006.33	-0.159119
2006.57	0.250542
2006.81	0.961102
2007.06	1.55021
2007.3	-0.103714
2007.55	0.291281
2007.79	0.498247
2008.04	2.42159
2008.28	2.30139
2008.53	0.582256
2008.77	0.244959
2009.01	0.0581856
2009.26	0.840775
2009.5	-0.742537
2009.75	-1.94346
2009.99	1.81923
2010.24	0.900766
2010.48	0.227869
2010.73	0.476192
2010.97	0.0796604
2011.21	-0.692003
2011.46	0.287262
2011.7	0.319838
2011.95	1.9079
2012.19	-2.51646
2012.43	0.214087
2012.68	-0.731886
2012.92	-0.735956
2013.17	-4.50831
2013.42	0.188162
2013.67	-0.766041
2013.91	-5.47608
2014.16	-4.54475
2014.41	2.02159
2014.66	2.00631
2014.9	0.115425
2015.15	-0.828367
2015.4	1.98563
2015.64	1.98651
2015.89	1.98829
2016.14	-1.76682
2016.39	1.04499
2016.63	1.98757
2016.88	2.94285
2017.13	1.06436
2017.37	2.0004
2017.62	-0.824759
2017.87	1.04682
2018.11	-2.71945
2018.36	1.02593
2018.61	-1.80136
2018.86	-4.62545
2019.1	3.80535
2019.35	0.0431843
2019.6	0.969727
2019.84	0.026083
2020.09	2.83069
2020.34	-0.920071
2020.58	-0.922829
2020.83	-1.86272
2021.08	-2.80237
2021.33	-0.930389
2021.57	0.00531197
2021.82	0.00316811
2022.07	-0.936771
2022.31	0.932034
2022.56	-0.00992012
2022.81	-0.0164242
2023.05	-0.960081
2023.3	-0.0326424
2023.55	1.83138
2023.8	3.69443
2024.04	-0.989029
2024.29	1.80881
2024.54	0.867188
2024.78	-1.94587
2025.03	-0.0869522
2025.27	5.50607
2025.52	-0.105778
2025.77	-1.04775
2026.02	-2.92162
2026.26	-2.93059
2026.51	-0.132744
2026.76	-1.99274
2027	-0.114656
2027.25	0.834593
2027.5	-0.0827847
2027.74	0.86268
2027.99	-0.0781364
2028.23	1.77559
2028.48	0.817043
2028.73	2.61473
2028.98	-1.99093
2029.22	-1.91832
2029.47	-2.89697
2029.72	3.67471
2029.96	-0.112387
2030.21	0.795029
2030.45	-2.03171
2030.7	-0.169472
2030.95	0.742231
2031.19	3.55491
2031.44	-0.164417
2031.69	-2.0359
2031.93	-2.97084
2032.18	0.760033
2032.43	0.764774
2032.67	-1.09692
2032.92	-2.02512
2033.17	0.782656
2033.41	0.78668
2033.66	-2.01486
2033.91	1.72948
2034.15	1.731
2034.4	2.65116
2034.64	-1.10409
2034.89	-0.194679
2035.14	2.5962
2035.38	1.67167
2035.63	-1.12278
2035.87	2.624
2036.12	-3.90349
2036.37	-3.89593
2036.61	-2.02805
2036.86	-1.10578
2037.11	-2.04188
2037.35	3.57152
2037.6	0.764246
2037.84	-0.173767
2038.09	0.757099
2038.34	-2.98685
2038.58	0.747198
2038.83	1.67622
2039.08	-1.13262
2039.32	-0.203644
2039.57	-1.14339
2039.81	1.65283
2040.06	2.57934
2040.31	-1.1633
2040.55	3.49484
2040.8	-1.1783
2041.04	-1.18525
2041.29	1.60605
2041.54	3.46473
2041.78	-0.268208
2042.03	1.59307
2042.27	-2.14031
2042.52	-1.21253
2042.77	-0.286987
2043.01	-1.2222
2043.26	0.639372
2043.5	0.639694
2043.75	2.50833
2044	1.58426
2044.24	-1.20587
2044.49	-0.271317
2044.73	-4.00579
2044.98	-2.14651
2045.23	-1.22513
2045.47	0.617088
2045.72	-0.288763
2045.96	-1.21644
2046.21	0.680754
2046.45	0.717014
2046.7	-0.239473
2046.95	-0.262627
2047.19	-0.280684
2047.44	0.652046
2047.68	-0.289591
2047.93	-2.17376
2048.17	0.61685
2048.42	0.616241
2048.67	1.54808
2048.91	4.34512
2049.16	-2.18072
2049.4	-1.24432
2049.65	-2.17422
2049.89	1.56275
2050.14	1.57007
2050.39	2.50888
2050.63	2.51452
2050.88	0.648579
2051.12	-1.22026
2051.37	-1.22311
2051.61	-2.16298
2051.86	0.630751
2052.11	-0.304699
2052.35	-3.10695
2052.6	2.49794
2052.84	-2.17213
2053.09	2.49914
2053.33	1.56756
2053.58	1.57094
2053.82	2.51041
2054.07	-1.21951
2054.31	-2.1522
2054.56	-0.280046
2054.8	-0.280697
2055.05	2.52371
2055.3	2.52101
2055.54	0.647177
2055.79	-2.16507
2056.03	-0.29879
2056.28	0.633734
2056.52	-1.2396
2056.77	3.43058
2057.01	-2.18074
2057.26	2.49132
2057.5	-0.313076
2057.75	-2.18232
2058	1.55872
2058.24	2.49621
2058.49	-3.11277
2058.73	-1.23827
2058.98	-2.17043
2059.22	-0.29561
2059.47	2.51479
2059.71	-1.22943
2059.96	-0.293312
2060.2	2.51452
2060.45	-1.23426
2060.69	-1.23875
2060.94	-2.17816
2061.18	0.630951
2061.43	-0.302996
2061.67	0.634281
2061.92	-1.23842
2062.16	2.50596
2062.41	0.633032
2062.65	1.56991
2062.9	-0.301683
2063.14	-0.299669
2063.39	0.639996
2063.63	0.64275
2063.88	-1.22948
2064.12	-0.291042
2064.37	0.647022
2064.61	2.52254
2064.86	-0.288115
2065.1	-1.22358
2065.35	-0.28183
2065.59	-0.276125
2065.84	0.667416
2066.08	-4.02131
2066.33	5.36984
2066.57	-3.07826
2066.82	1.61669
2067.06	-0.260069
2067.31	0.680687
2067.55	-1.19701
2067.8	0.683729
2068.04	-0.253084
2068.29	2.56832
2068.53	-1.18952
2068.78	3.51045
2069.02	-5.88749
2069.27	-0.247692
2069.51	-3.07185
2069.76	-1.19909
2070	2.54771
2070.25	0.664165
2070.49	2.54383
2070.73	-1.20506
2070.98	-1.19518
2071.22	-2.12562
2071.47	3.5152
2071.71	-0.254635
2071.96	-0.229843
2072.2	0.72014
2072.45	1.65921
2072.69	-1.16839
2072.94	2.59641
2073.18	0.710258
2073.43	2.59234
2073.67	1.6486
2073.92	-0.234255
2074.16	-0.23439
2074.4	-0.233953
2074.65	3.53458
2074.89	-0.228956
2075.14	-2.10818
2075.38	-1.15941
2075.63	-3.03655
2075.87	-1.14011
2076.12	0.754412
2076.36	3.58988
2076.6	0.7577
2076.85	2.64601
2077.09	-0.189402
2077.34	1.69266
2077.58	1.68628
2077.83	1.67419
2078.07	0.727619
2078.31	0.729668
2078.56	-0.209366
2078.8	0.735283
2079.05	1.68013
2079.29	-3.97898
2079.54	3.57571
2079.78	-0.189953
2080.03	-0.186146
2080.27	-1.12767
2080.51	-2.06979
2080.76	-1.12283
2081	1.71177
2081.25	0.763628
2081.49	1.70611
2081.74	0.759869
2081.98	-3.02034
2082.22	0.757332
2082.47	-2.07609
2082.71	1.70455
2082.96	-1.1297
2083.2	-2.07496
2083.45	-2.07598
2083.69	-0.187557
2083.93	-3.02392
2084.18	1.70015
2084.42	0.754894
2084.67	-1.1359
2084.91	-0.191217
2085.15	1.69888
2085.4	0.753469
2085.64	0.752789
2085.89	-1.13774
2086.13	-3.02702
2086.37	1.70416
2086.62	-1.12553
2086.86	0.770664
2087.11	1.71843
2087.35	-1.11744
2087.59	-0.16814
2087.84	-1.11286
2088.08	-0.166859
2088.32	1.72576
2088.57	0.779455
2088.81	-0.166468
2089.06	4.56684
2089.3	-3.00494
2089.54	0.78454
2089.79	1.73492
2090.03	-1.1005
2090.28	-0.151711
2090.52	-0.15103
2090.76	-0.149878
2091.01	3.64163
2091.25	0.801355
2091.5	3.6466
2091.74	1.75338
2091.98	-0.136826
2092.23	-0.130651
2092.47	-0.123829
2092.72	2.72993
2092.96	3.6877
2093.2	-5.8012
2093.45	-1.04837
2093.69	-1.04321
2093.93	-0.088007
2094.18	-0.0837135
2094.42	2.77223
2094.66	0.871868
2094.91	1.8222
2095.15	-2.9329
2095.39	0.867855
2095.64	-0.0869675
2095.88	2.75941
2096.13	1.80525
2096.37	-0.0980721
2096.61	2.7499
2096.86	0.848679
2097.1	0.847382
2097.34	0.843857
2097.59	4.6373
2097.83	0.83378
2098.07	-1.06721
2098.32	1.77921
2098.56	1.7777
2098.8	0.824738
2099.05	0.824478
2099.29	0.823591
2099.53	2.72001
2099.78	1.76958
2100.02	-0.129124
2100.27	1.76882
2100.51	0.820295
2100.75	-0.127764
2101	0.823454
2101.24	-2.01931
2101.48	0.833387
2101.73	3.68538
2101.97	4.63666
2102.21	-2.0123
2102.45	-0.113432
2102.7	2.73593
2102.94	3.68397
2103.18	-1.06853
2103.43	1.77503
2103.67	-2.97443
2103.92	-2.97518
2104.16	-2.9765
2104.4	-0.128563
2104.64	2.7212
2104.89	0.82601
2105.13	0.82939
2105.37	-1.067
2105.62	-2.01328
2105.86	0.841745
2106.1	0.84614
2106.35	-0.101839
2106.59	-1.05024
2106.83	-1.99985
2107.08	-0.0977364
2107.32	-0.095747
2107.56	2.75729
2107.8	-0.0977039
2108.05	-1.05266
2108.29	-2.00862
2108.53	2.73558
2108.78	1.77885
2109.02	1.77357
2109.26	4.61989
2109.51	0.82296
2109.75	-1.07058
2109.99	-1.06622
2110.23	5.58379
2110.48	2.73391
2110.72	-0.116127
2110.96	-1.0662
2111.21	0.833786
2111.45	-0.116457
2111.69	0.83189
2111.93	-0.121162
2112.18	0.826193
2112.42	3.67369
2112.66	0.824648
2112.91	2.72645
2113.15	-1.07024
2113.39	0.832256
2113.63	-0.112103
2113.88	1.79336
2114.12	-1.0557
2114.36	2.74481
2114.61	0.841867
2114.85	1.79176
2115.09	-0.107828
2115.33	-1.05765
2115.58	-2.00914
2115.82	1.79026
2116.06	-0.112011
2116.31	-0.113848
2116.55	2.73148
2116.79	-0.122614
2117.03	-0.124632
2117.28	-2.02496
2117.52	2.72221
2117.76	-2.02479
2118	0.821806
2118.25	3.66637
2118.49	-2.03329
2118.73	2.70625
2118.97	-2.04463
2119.22	1.7447
2119.46	-2.05348
2119.7	3.63078
2119.94	0.781836
2120.19	2.67308
2120.43	0.774397
2120.67	-0.174223
2120.91	0.774153
2121.16	0.778215
2121.4	-0.167217
2121.64	-0.161983
2121.88	1.74028
2122.13	0.79743
2122.37	-3.94092
2122.61	1.75599
2122.85	1.75995
2123.1	1.76347
2123.34	0.817259
2123.58	-1.07927
2123.82	0.820585
2124.07	3.6669
2124.31	-1.08189
2124.55	-0.136301
2124.79	-0.141911
2125.03	2.69465
2125.28	0.786785
2125.52	0.776617
2125.76	0.768797
2126	-1.13201
2126.25	-0.191414
2126.49	0.749384
2126.73	1.69088
2126.97	-1.15201
2127.21	1.681
2127.46	2.62178
2127.7	-1.16226
2127.94	0.727871
2128.18	-0.21867
2128.43	1.66986
2128.67	1.66861
2128.91	0.723749
2129.15	0.72418
2129.39	0.72356
2129.64	0.721996
2129.88	0.72072
2130.12	-3.06023
2130.36	-0.225828
2130.6	0.718113
2130.85	-1.17311
2131.09	-0.230076
2131.33	-2.12184
2131.57	0.709105
2131.81	3.53897
2132.06	-0.241419
2132.3	0.70092
2132.54	2.58674
2132.78	-1.19336
2133.02	-1.19696
2133.27	3.51942
2133.51	2.57585
2133.75	1.63366
2133.99	-0.252354
2134.23	1.63568
2134.48	0.693443
2134.72	2.58214
2134.96	0.694397
2135.2	3.52531
2135.44	-1.19351
2135.68	-2.13782
2135.93	1.63479
2136.17	-1.19917
2136.41	-2.14839
2136.65	-4.03976
2136.89	5.38479
2137.14	3.50102
2137.38	-0.268484
2137.62	1.61801
2137.86	-0.264662
2138.1	-2.14555
2138.34	-1.20361
2138.59	-0.266499
2138.83	1.61436
2139.07	-1.20891
2139.31	1.62769
2139.55	-1.19596
2139.79	1.62225
2140.03	0.671074
2140.28	2.55208
2140.52	-0.277662
2140.76	1.60404
2141	-2.16574
2141.24	1.60054
2141.49	-1.22617
2141.73	0.658249
2141.97	1.59565
2142.21	-1.23341
2142.45	3.47177
2142.69	-0.292864
2142.93	0.653555
2143.18	1.59941
2143.42	-0.264959
2143.66	-2.15739
2143.9	3.42982
2144.14	0.611288
2144.38	-1.26344
2144.62	-0.315161
2144.87	-1.24739
2145.11	-0.301804
2145.35	-0.314085
2145.59	-1.25184
2145.83	-0.309975
2146.07	-0.310616
2146.31	-1.25202
2146.55	-0.313171
2146.8	1.56562
2147.04	2.50422
2147.28	3.44217
2147.52	2.49943
2147.76	1.55711
2148	-1.26362
2148.24	-4.08328
2148.48	-0.327801
2148.73	1.54851
2148.97	1.546
2149.21	0.604067
2149.45	-3.15476
2149.69	-0.343367
2149.93	0.586042
2150.17	-0.356485
2150.42	2.45085
2150.66	1.50905
2150.9	4.31916
2151.14	-0.367064
2151.38	0.572889
2151.62	-3.1726
2151.86	0.580599
2152.1	-2.22837
2152.34	-2.22625
2152.58	-1.28464
2152.83	0.588564
2153.07	0.586023
2153.31	3.39508
2153.55	3.39146
2153.79	1.51541
2154.03	0.57671
2154.27	1.5106
2154.51	-1.30506
2154.75	3.37092
2154.99	-3.19211
2155.24	2.41525
2155.48	2.40471
2155.72	-2.27751
2155.96	1.45605
2156.2	0.516186
2156.44	-1.35605
2156.68	-2.2917
2156.92	-1.35765
2157.16	0.510883
2157.4	-1.35649
2157.64	-0.419905
2157.89	-3.21905
2158.13	1.45798
2158.37	0.528013
2158.61	-1.33961
2158.85	1.46523
2159.09	0.530306
2159.33	2.39832
2159.57	3.33047
2159.81	1.45843
2160.05	-0.413864
2160.29	0.515417
2160.53	-0.423214
2160.77	-2.2942
2161.01	-0.430758
2161.25	2.36719
2161.5	-1.3658
2161.74	-0.43388
2161.98	-2.30103
2162.22	5.16246
2162.46	3.29743
2162.7	-2.2991
2162.94	-0.432739
2163.18	1.43186
2163.42	-0.435827
2163.66	0.495228
2163.9	-3.23625
2164.14	-0.440241
2164.38	1.42263
2164.62	1.41837
2164.86	0.481133
2165.11	0.478312
2165.35	-0.451561
2165.59	5.14257
2165.83	0.484678
2166.07	3.28156
2166.31	-0.444695
2166.55	0.485437
2166.79	-0.447773
2167.03	5.13902
2167.27	-4.17893
2167.51	2.3377
2167.75	1.40189
2167.99	-0.465702
2168.23	2.31523
2168.47	1.37531
2168.71	2.30222
2168.95	-1.41599
2169.19	1.37537
2169.43	2.30944
2169.67	-5.12475
2169.91	1.3933
2170.15	1.40263
2170.39	0.481991
2170.63	1.41944
2170.87	0.491301
2171.11	4.21569
2171.35	-1.37485
2171.59	-1.37572
2171.83	-0.45261
2172.07	2.32271
2172.31	0.455374
2172.56	-1.40676
2172.79	2.30762
2173.04	1.37618
2173.28	0.447495
2173.51	1.37729
2173.76	0.448982
2174	-2.33569
2174.24	3.2436
2174.48	1.38842
2174.72	-0.468172
2174.96	2.32147
2175.2	0.463581
2175.44	-2.32389
2175.68	0.463902
2175.92	-2.32427
2176.16	3.25161
2176.4	0.46381
2176.64	0.463036
2176.88	-0.468407
2177.12	-2.3265
2177.36	2.3193
2177.6	1.39219
2177.84	1.39377
2178.08	1.39445
2178.32	-0.461447
2178.55	1.39541
2178.8	2.31879
2179.03	1.38653
2179.28	-3.2551
2179.52	1.38935
2179.75	-2.32307
2180	1.39239
2180.23	-5.10605
2180.47	0.466043
2180.71	1.39507
2180.95	1.39476
2181.19	2.32281
2181.43	1.39502
2181.67	-1.39009
2181.91	0.46497
2182.15	-1.39253
2182.39	-0.464397
2182.63	1.38979
2182.87	1.38875
2183.11	1.38778
2183.35	1.38439
2183.59	-1.40174
2183.83	0.447498
2184.07	-5.11729
2184.31	-2.33861
2184.55	-1.41367
2184.79	1.36628
2185.03	-0.484781
2185.27	-0.481314
2185.51	2.3019
2185.75	3.23196
2185.99	-3.25207
2186.23	-0.466232
2186.47	-1.38818
2186.7	2.32663
2186.95	-0.448051
2187.18	-1.36806
2187.42	0.496078
2187.66	0.504124
2187.9	-0.418276
2188.14	0.513126
2188.38	-4.13151
2188.62	1.43801
2188.86	-2.27875
2189.1	-3.2099
2189.34	1.4266
2189.58	2.34913
2189.82	0.487576
2190.06	1.40976
2190.3	1.408
2190.54	-1.37249
2190.78	1.41038
2191.01	1.41386
2191.25	-0.437038
2191.49	0.49157
2191.73	-0.432867
2191.97	1.42502
2192.21	2.35604
2192.45	0.504755
2192.69	1.43565
2192.93	2.36694
2193.17	2.37258
2193.41	-2.26145
2193.65	-3.18478
2193.89	0.534384
2194.13	0.545729
2194.36	-2.22925
2194.6	3.3559
2194.84	2.43234
2195.08	-0.356398
2195.32	-1.28701
2195.56	-0.358198
2195.8	2.42775
2196.04	-0.363348
2196.28	2.41841
2196.52	-0.374208
2196.76	-0.379742
2197	-3.16756
2197.23	4.2527
2197.47	1.46685
2197.71	0.537359
2197.95	1.46658
2198.19	1.46886
2198.43	-0.38228
2198.67	0.552462
2198.91	3.34424
2199.15	1.49675
2199.38	3.36409
2199.62	-0.342781
2199.86	-0.333847
2200.1	2.46399
2200.34	5.2679
2200.58	-2.1604
2200.82	-0.287249
2201.06	0.654846
2201.3	2.52677
2201.54	-3.05708
2201.77	4.38906
2202.01	1.57151
2202.25	-0.334835
2202.49	1.48982
2202.73	1.50672
2202.97	-1.23865
2203.21	2.50059
2203.45	3.42524
2203.68	-0.297586
2203.92	1.58455
2204.16	-3.00473
2204.4	2.56813
2204.64	-3.02657
2204.88	0.708725
2205.12	2.55858
2205.36	2.53811
2205.59	-0.270966
2205.83	2.508
2206.07	5.29511
2206.31	2.50832
2206.55	-2.13392
2206.79	5.30839
2207.03	0.651716
2207.26	0.654924
2207.5	1.58999
2207.74	-0.263792
2207.98	-1.18763
2208.22	3.47087
2208.46	4.40887
2208.7	4.41617
2208.93	0.69886
2209.17	3.49745
2209.41	2.57077
2209.65	-1.15105
2209.89	2.5762
2210.13	-2.07913
2210.36	-1.14521
2210.6	-1.14063
2210.84	-2.99891
2211.08	-2.06217
2211.32	1.67063
2211.56	-1.11997
2211.8	0.749929
2212.03	-0.175591
2212.27	-1.10155
2212.51	0.769112
2212.75	-2.02579
2212.99	0.773148
2213.23	-2.02537
2213.46	-1.09276
2213.7	-1.0942
2213.94	-2.02831
2214.18	1.70425
2214.42	-1.08671
2214.66	-1.07602
2214.89	0.800812
2215.13	-1.99499
2215.37	-0.124226
2215.61	0.812801
2215.85	1.74949
2216.08	-0.115194
2216.32	1.75426
2216.56	1.75595
2216.8	3.62461
2217.04	-5.71052
2217.28	1.75936
2217.51	-1.03934
2217.75	0.830725
2217.99	2.70117
2218.23	-0.0978146
2218.47	1.77129
2218.7	1.77442
2218.94	-1.02249
2219.18	1.78436
2219.42	-1.01159
2219.66	-2.87412
2219.9	1.80211
2220.13	-2.86536
2220.37	-0.057457
2220.61	0.878738
2220.85	2.74897
2221.09	1.81569
2221.32	2.74983
2221.56	0.877592
2221.8	1.80753
2222.04	-2.86449
2222.27	-0.998816
2222.51	1.80112
2222.75	-0.0643063
2222.99	0.873013
2223.23	-0.988825
2223.46	0.884148
2223.7	-0.0437126
2223.94	-2.83888
2224.18	0.906977
2224.42	-3.75764
2224.65	-1.88002
2224.89	1.86848
2225.13	-1.86608
2225.37	0.947742
2225.6	0.955729
2225.84	1.90087
2226.08	1.90852
2226.32	-1.8308
2226.56	-2.761
2226.79	1.92942
2227.03	2.87412
2227.27	1.00644
2227.51	1.01245
2227.74	1.01756
2227.98	-0.854095
2228.22	-1.79006
2228.46	0.0860786
2228.69	-2.72608
2228.93	-2.7251
2229.17	1.9638
2229.41	-5.53493
2229.64	1.0297
2229.88	0.0983181
2230.12	-0.831379
2230.36	-0.823837
2230.6	-1.75594
2230.83	1.06583
2231.07	1.07297
2231.31	1.0803
2231.55	3.90551
2231.78	0.156847
2232.02	-0.775972
2232.26	1.11022
2232.5	0.177305
2232.73	-0.755993
2232.97	1.13097
2233.21	1.13785
2233.45	1.14452
2233.68	-1.67132
2233.92	0.217073
2234.16	2.10508
2234.39	0.227705
2234.63	2.11146
2234.87	-3.53503
2235.11	1.17056
2235.34	-1.6538
2235.58	3.98488
2235.82	5.86142
2236.06	2.10315
2236.29	-1.65491
2236.53	2.1106
2236.77	3.05505
2237	1.1775
2237.24	3.06256
2237.48	2.13024
2237.72	0.255827
2237.95	-1.61592
2238.19	1.22069
2238.43	-3.47883
2238.67	-1.58618
2238.9	-0.635485
2239.14	2.20266
2239.38	2.21411
2239.61	2.21842
2239.85	-1.55451
2240.09	-0.611429
2240.33	0.32822
2240.56	-0.617311
2240.8	-0.617163
2241.04	-5.32072
2241.27	1.29225
2241.51	2.23993
2241.75	-0.586485
2241.99	-3.41307
2242.22	3.19676
2242.46	0.370279
2242.7	2.26327
2242.93	4.15712
2243.17	4.16039
2243.41	0.385981
2243.64	0.385744
2243.88	-3.39
2244.12	0.386126
2244.36	-0.555458
2244.59	1.33545
2244.83	2.28562
2245.07	0.407228
2245.3	-0.525434
2245.54	1.37499
2245.78	2.32837
2246.01	2.33597
2246.25	2.34394
2246.49	2.35168
2246.72	-1.42498
2246.96	-0.474117
2247.2	-1.41422
2247.43	1.43064
2247.67	1.4359
2247.91	-1.39959
2248.14	1.44234
2248.38	0.497566
2248.62	-0.447306
2248.85	-1.39212
2249.09	0.502151
2249.33	-1.38867
2249.56	1.4519
2249.8	1.45886
2250.04	3.35759
2250.27	0.520805
2250.51	3.35997
2250.75	-3.26525
2250.98	5.24771
2251.22	1.46111
2251.46	0.514168
2251.69	-2.32253
2251.93	-0.42984
2252.17	4.30125
2252.4	2.41593
2252.64	2.42269
2252.88	2.43059
2253.11	3.38755
2253.35	1.5107
2253.59	2.46974
2253.82	2.48
2254.06	2.48878
2254.3	-1.29508
2254.53	0.607971
2254.77	1.5622
2255.01	-0.330727
2255.24	-0.32979
2255.48	-0.325727
2255.72	-0.322559
2255.95	0.629498
2256.19	1.58175
2256.42	2.53724
2256.66	0.647707
2256.9	-2.19171
2257.13	-0.287565
2257.37	1.61735
2257.61	-0.274294
2257.84	-3.11615
2258.08	2.58622
2258.32	-1.20769
2258.55	-0.254059
2258.79	2.59965
2259.02	-0.244364
2259.26	-0.238173
2259.5	-2.13203
2259.73	-0.226606
2259.97	-0.221666
2260.2	-0.216049
2260.44	-1.16115
2260.68	-4.00787
2260.91	-1.15089
2261.15	0.757215
2261.39	-3.03722
2261.62	4.58111
2261.86	-1.12318
2262.1	0.784296
2262.33	-1.11385
2262.57	-1.10889
2262.8	1.7527
2263.04	2.71293
2263.28	2.72163
2263.51	1.7788
2263.75	0.836447
2263.98	2.7539
2264.22	-0.093832
2264.46	2.77938
2264.69	-0.0716629
2264.93	0.892406
2265.16	3.76551
2265.4	-0.0459614
2265.64	-0.994022
2265.87	-0.0348778
2266.11	0.924549
2266.34	-7.67073
2266.58	3.7893
2266.81	-0.0324955
2267.05	-0.98912
2267.29	4.73557
2267.52	1.87198
2267.76	1.87177
2267.99	4.73304
2268.23	0.91573
2268.47	1.86873
2268.7	-0.0363636
2268.94	-1.93938
2269.17	-0.0260639
2269.41	0.935749
2269.65	-0.00908852
2269.88	3.81807
2270.12	-1.89921
2270.35	0.02108
2270.59	1.94196
2270.82	0.038763
2271.06	-1.86652
2271.3	1.96472
2271.53	-1.85201
2271.77	-1.84616
2272	1.98539
2272.24	1.03668
2272.47	-0.870882
2272.71	0.0895901
2272.95	-0.862738
2273.18	-3.72863
2273.42	1.06001
2273.65	0.107691
2273.89	0.112236
2274.12	0.116825
2274.36	0.121313
2274.6	2.99711
2274.83	-0.826952
2275.07	1.0921
2275.3	-0.817545
2275.54	-2.72777
2275.77	-2.72315
2276.01	-0.805521
2276.24	0.158552
2276.48	1.12496
2276.72	2.0921
2276.95	-2.69069
2277.18	-0.766523
2277.42	-0.758427
2277.66	2.12893
2277.89	2.14128
2278.13	0.234409
2278.36	3.12777
2278.6	1.21423
2278.83	1.21936
2279.07	-3.57926
2279.3	0.265219
2279.54	-0.693146
2279.78	0.266741
2280.01	0.26037
2280.24	-1.66158
2280.48	0.254986
2280.72	-0.705692
2280.95	-1.66517
2281.19	-0.7059
2281.42	3.12998
2281.66	-0.703747
2281.89	2.17298
2282.13	0.261957
2282.36	-1.65024
2282.6	3.14983
2282.83	-0.67767
2283.07	0.289856
2283.3	2.21714
2283.54	0.30794
2283.77	-2.56026
2284.01	0.333624
2284.24	-0.614712
2284.48	-0.601439
2284.71	-3.47751
2284.95	0.375275
2285.19	-0.578251
2285.42	-0.570137
2285.65	0.397243
2285.89	3.28852
2286.12	-0.562103
2286.36	2.31891
2286.59	0.397978
2286.83	0.403057
2287.06	-0.551985
2287.3	1.38621
2287.54	-1.4901
2287.77	-0.520653
2288	-3.40444
2288.24	0.457647
2288.47	1.42286
2288.71	-2.4301
2288.94	-1.46646
2289.18	0.459215
2289.41	-1.46931
2289.65	2.37575
2289.88	-1.47681
2290.12	4.28766
2290.35	2.36457
2290.59	0.442907
2290.82	1.40774
2291.06	-0.511126
2291.29	0.456841
2291.53	4.31313
2291.76	-1.44754
2292	7.22141
2292.23	0.492208
2292.47	-0.463326
2292.7	3.39561
2292.94	0.515505
2293.17	5.34045
2293.41	1.49445
2293.64	-0.426096
2293.88	-1.38421
2294.11	0.547991
2294.34	2.47725
2294.58	-4.26797
2294.81	-1.37671
2295.05	0.549517
2295.28	2.47617
2295.52	-1.37619
2295.75	0.55019
2295.99	-0.412392
2296.22	-1.37433
2296.46	1.51179
2296.69	2.46787
2296.93	1.50775
2297.16	0.55077
2297.39	-1.36746
2297.63	-0.39805
2297.86	-2.31547
2298.1	-0.38093
2298.33	1.55608
2298.57	-1.3263
2298.8	-0.356556
2299.04	2.54249
2299.27	-1.30472
2299.51	0.631519
2299.74	1.60314
2299.97	0.64394
2300.21	1.61142
2300.44	0.65008
2300.68	-0.311943
2300.91	1.62315
2301.15	1.63023
2301.38	1.63632
2301.61	3.57239
2301.85	-0.283756
2302.08	-0.280176
2302.32	0.687506
2302.55	-1.24173
2302.79	-1.24003
2303.02	3.58921
2303.25	0.696335
2303.49	2.6283
2303.72	0.700844
2303.96	-0.260815
2304.19	0.709444
2304.43	-0.249165
2304.66	-1.20838
2304.89	1.69377
2305.13	-2.16311
2305.36	-1.19056
2305.6	-1.18535
2305.83	3.64934
2306.07	-0.210636
2306.3	0.76132
2306.53	0.766922
2306.77	-0.195774
2307	-0.192486
2307.24	-0.189924
2307.47	2.71186
2307.7	-1.15332
2307.94	-0.186689
2308.17	2.71335
2308.41	-0.184633
2308.64	0.782484
2308.87	0.7852
2309.11	0.788948
2309.34	1.7613
2309.58	1.76792
2309.81	3.70985
2310.04	-0.147825
2310.28	1.7939
2310.51	-0.135942
2310.75	0.834692
2310.98	1.80406
2311.21	-0.130344
2311.45	-2.06679
2311.68	0.82443
2311.92	-1.11895
2312.15	0.807615
2312.38	-1.12605
2312.62	-1.1265
2312.85	-1.12757
2313.08	-0.162849
2313.32	-0.160727
2313.55	-2.08587
2313.79	-2.0777
2314.02	0.829124
2314.25	1.80395
2314.49	-0.11949
2314.72	1.82241
2314.95	2.80028
2315.19	-0.091198
2315.42	-1.05279
2315.66	-0.0886517
2315.89	1.84225
2316.12	-2.02729
2316.36	0.86931
2316.59	0.859484
2316.82	2.7868
2317.06	2.78553
2317.29	0.855942
2317.52	-0.106468
2317.76	0.862446
2317.99	2.80223
2318.23	-2.02218
2318.46	-0.0950642
2318.69	4.73166
2318.93	1.83357
2319.16	0.866468
2319.39	1.82988
2319.63	2.79342
2319.86	3.7576
2320.09	2.79267
2320.33	2.79454
2320.56	2.79695
2320.79	1.83354
2321.03	1.83744
2321.26	1.84254
2321.5	-0.0827541
2321.73	-1.0428
2321.96	2.82623
2322.2	-0.0635986
2322.43	2.84358
2322.66	1.88469
2322.9	2.85522
2323.13	3.82226
2323.36	2.85807
2323.6	1.89441
2323.83	2.86399
2324.06	1.90001
2324.3	2.86901
2324.53	0.935324
2324.76	-1.96524
2325	5.76475
2325.23	6.72399
2325.46	3.81706
2325.7	4.77816
2325.93	0.91161
2326.16	4.77006
2326.4	3.80048
2326.63	3.7961
2326.86	5.72129
2327.09	4.75174
2327.33	8.60463
2327.56	14.384
2327.79	16.3077
2328.03	24.0134
2328.26	36.5384
2328.49	47.1444
2328.73	50.0373
2328.96	55.8232
2329.19	41.353
2329.43	26.8888
2329.66	19.1704
2329.89	11.4617
2330.13	12.4238
2330.36	11.4654
2330.59	9.53704
2330.82	9.5348
2331.06	4.71703
2331.29	4.71631
2331.52	-1.06022
2331.76	-0.0939522
2331.99	2.79975
2332.22	-0.0853443
2332.46	0.872248
2332.69	-1.05852
2332.92	-0.0984974
2333.16	1.82428
2333.39	-2.99289
2333.62	2.78059
2333.85	1.8151
2334.09	1.81262
2334.32	1.80907
2334.55	-0.119568
2334.79	0.836445
2335.02	-3.97633
2335.25	2.75321
2335.48	0.828436
2335.72	-0.13508
2335.95	5.63497
2336.18	-4.94295
2336.41	6.59617
2336.65	1.78437
2336.88	4.66664
2337.11	2.74154
2337.34	3.7011
2337.58	-0.146919
2337.81	-0.148916
2338.04	2.73209
2338.28	2.72921
2338.51	0.804457
2338.74	-3.04261
2338.97	5.60574
2339.21	2.72177
2339.44	0.798454
2339.67	-0.164385
2339.91	1.75573
2340.14	1.75222
2340.37	0.786694
2340.6	-0.179586
2340.84	4.61837
2341.07	1.72938
2341.3	0.76087
2341.53	0.751879
2341.77	0.74152
2342	2.65159
2342.23	2.6451
2342.46	0.721075
2342.7	5.5093
2342.93	2.62795
2343.16	0.706896
2343.39	2.62116
2343.63	1.66024
2343.86	2.61513
2344.09	4.52857
2344.32	-2.18367
2344.56	1.64928
2344.79	2.60586
2345.02	0.684984
2345.25	-1.2366
2345.49	4.50908
2345.72	0.668505
2345.95	-0.298479
2346.18	1.61019
2346.41	-1.27058
2346.65	0.639853
2346.88	-0.322468
2347.11	2.54561
2347.34	-1.29002
2347.58	3.49175
2347.81	-2.2569
2348.04	1.56936
2348.27	2.52434
2348.5	2.52318
2348.74	0.605671
2348.97	-2.27164
2349.2	0.595152
2349.43	0.58725
2349.67	-1.34045
2349.9	1.51648
2350.13	-3.28014
2350.36	0.526886
2350.59	0.506361
2350.83	3.33435
2351.06	2.32593
2351.29	1.40512
2351.52	-0.435249
2351.75	2.45338
2351.99	2.39981
2352.22	2.36823
2352.45	-0.498402
2352.68	-0.501236
2352.91	0.434605
2353.15	2.31552
2353.38	-1.51661
2353.61	0.388056
2353.84	0.380276
2354.07	-1.53469
2354.31	-1.54047
2354.54	3.21482
2354.77	3.21468
2355	1.30841
2355.23	0.348455
2355.47	-0.61227
2355.7	1.28482
2355.93	-0.629324
2356.16	0.314007
2356.39	-3.50611
2356.63	-0.662573
2356.86	-1.63102
2357.09	-0.694401
2357.32	0.245178
2357.55	-0.716768
2357.79	0.223135
2358.02	-1.68881
2358.25	2.10269
2358.48	-1.70912
2358.71	2.08278
2358.94	-0.78059
2359.18	2.05935
2359.41	-1.7503
2359.64	0.140125
2359.87	0.12912
2360.1	2.96581
2360.33	1.05316
2360.57	1.03923
2360.8	-1.82171
2361.03	-0.8864
2361.26	0.996878
2361.49	-5.65601
2361.72	-0.928699
2361.96	-0.943254
2362.19	1.88478
2362.42	0.921272
2362.65	-1.93558
2362.88	2.78452
2363.11	1.82299
2363.34	-1.03074
2363.58	1.79503
2363.81	0.835772
2364.04	-1.06944
2364.27	1.75583
2364.5	0.795889
2364.73	0.781828
2364.97	-1.12368
