#Acq. time (s)=	30
#Accumulations=	2
#Range (cm-¹)=	1200...2365
#Windows=	3
#Auto scanning=	Off
#Autofocus=	Off
#Macrospot=	Off
#AutoExposure=	Off
#Spike filter=	Multiple accum.
#Delay time (s)=	2
#Binning=	1
#Readout mode=	Signal
#DeNoise=	Off
#ICS correction=	On
#Dark correction=	Off
#Inst. Process=	Off
#Detector Gain=	Best Dynamic
#Detector ADC=	50 kHz HS
#Detector temperature (°C)=	-60.09
#Instrument=	LabRAM HR Evol
#Detector=	SIN-EM FIVIS
#Objective=	x100_VIS_LWD
#Grating=	1800 (450-850nm)
#ND Filter=	100%
#Laser=	532nm_Edge
#Hole=	100.021
#Temperature=	0
#Range=	Visible
#StageXY=	75x50mm Scan+
#StageZ=	Z motor
#X (µm)=	0
#Y (µm)=	0
#Z (µm)=	-11.5
#Full time(mm:ss)=	3:13
#Project=	21_11_26
#Sample=	BU02Aw
#Site=	
#Title=	BU02aW-A-FF1-FI03-V_1800 (450-850nm)_532nm_Edge_100%_x100_VIS_LWD_H100um_30sX2
#Remark=	
#Date=	26.11.2021 11:11
#Acquired=	26.11.2021 11:11:48
#Base:Fit=	16.12.2021 16:15:35
#Base:Fit=	16.12.2021 16:18:23
#Base:Sub=	16.12.2021 16:18:24
1202.72	4.65473
1203	-0.5149
1203.28	3.90997
1203.56	1.79234
1203.84	-0.337341
1204.11	-3.51879
1204.39	-0.242302
1204.67	5.21707
1204.95	-4.36967
1205.23	2.14249
1205.5	7.55982
1205.78	-0.994438
1206.06	0.115013
1206.34	4.43998
1206.61	-4.10997
1206.89	-3.00515
1207.17	-0.830864
1207.45	6.7021
1207.73	-0.751343
1208	-0.707222
1208.28	0.41227
1208.56	6.87756
1208.84	-1.64819
1209.11	-5.88993
1209.39	2.70241
1209.67	7.02457
1209.95	-4.68511
1210.23	4.98236
1210.5	-1.39605
1210.78	1.8269
1211.06	0.775612
1211.34	6.1358
1211.61	4.01613
1211.89	-3.4313
1212.17	4.04794
1212.45	6.19135
1212.72	-0.184212
1213	6.22663
1213.28	7.30615
1213.56	2.00321
1213.83	-4.35791
1214.11	0.985855
1214.39	-3.23283
1214.67	2.12796
1214.94	0.0334015
1215.22	-4.1932
1215.5	7.54629
1215.78	-6.26672
1216.05	-3.04958
1216.33	1.21638
1216.61	6.53466
1216.89	4.39775
1217.16	6.51625
1217.44	3.32708
1217.72	-7.29556
1218	4.38887
1218.27	6.51521
1218.55	0.148308
1218.83	-3.03177
1219.1	8.65177
1219.38	-6.19102
1219.66	4.42997
1219.94	1.25396
1220.21	-10.4115
1220.49	-4.03442
1220.77	-5.08021
1221.04	-2.94934
1221.32	0.23748
1221.6	-2.94528
1221.88	1.29303
1222.15	0.220757
1222.43	10.7938
1222.71	-1.94465
1222.98	1.2006
1223.26	5.40194
1223.54	-0.973473
1223.81	0.0576096
1224.09	5.3187
1224.37	4.23798
1224.65	-2.11362
1224.92	-4.23604
1225.2	-4.24294
1225.48	-4.24263
1225.76	-2.12023
1226.03	5.27978
1226.31	3.17937
1226.59	0.00708008
1226.86	5.27987
1227.14	-1.07084
1227.42	-7.41849
1227.69	5.20113
1227.97	1.95612
1228.25	-1.25571
1228.52	1.85414
1228.8	-4.53661
1229.08	-3.54733
1229.35	3.79639
1229.63	-4.43253
1229.91	-3.22559
1230.18	-6.46748
1230.46	-0.221649
1230.74	-5.52361
1231.01	2.90269
1231.29	4.95122
1231.57	-1.52635
1231.84	3.73218
1232.12	3.72037
1232.4	3.70689
1232.67	1.58464
1232.95	-4.7326
1233.23	0.504196
1233.5	0.484207
1233.78	2.57039
1234.06	1.51127
1234.33	-4.79847
1234.61	0.448669
1234.89	3.59869
1235.16	1.49577
1235.44	-0.614815
1235.71	3.5821
1235.99	-1.68002
1236.27	1.46476
1236.54	0.395821
1236.82	2.47202
1237.1	-1.76207
1237.37	-1.79604
1237.65	-7.09212
1237.93	3.36596
1238.2	-2.98004
1238.48	-4.07514
1238.76	0.07547
1239.03	0.0348969
1239.31	9.43909
1239.58	5.21408
1239.86	-5.29716
1240.14	-8.46643
1240.41	0.945
1240.69	-5.36469
1240.97	-8.5277
1241.24	4.03465
1241.52	0.872078
1241.79	6.0849
1242.07	3.95213
1242.35	0.777481
1242.62	-1.33851
1242.9	1.7885
1243.18	2.82617
1243.45	-0.329803
1243.73	-0.353172
1244	-6.66443
1244.28	0.656204
1244.56	2.72916
1244.83	-3.58862
1245.11	2.66985
1245.39	-5.75451
1245.66	-0.558014
1245.94	-4.79786
1246.21	0.388519
1246.49	-2.78683
1246.76	5.55716
1247.04	8.67399
1247.32	2.36807
1247.59	2.33714
1247.87	9.63773
1248.14	-1.90742
1248.42	14.777
1248.7	7.41306
1248.97	6.33859
1249.25	3.18172
1249.52	3.16354
1249.8	1.0416
1250.08	5.19787
1250.35	2.03654
1250.63	-3.23372
1250.9	4.03966
1251.18	-0.184517
1251.45	2.90986
1251.73	-0.263809
1252.01	-0.302429
1252.28	1.74699
1252.56	-2.46965
1252.83	-4.59705
1253.11	-0.462692
1253.39	3.67165
1253.66	-2.62242
1253.94	5.70124
1254.21	2.5592
1254.49	1.50621
1254.76	3.58739
1255.04	2.52576
1255.31	6.6778
1255.59	-0.649918
1255.87	3.50245
1256.14	2.42953
1256.42	9.71872
1256.69	5.52397
1256.97	7.60107
1257.24	1.31364
1257.52	15.908
1257.79	6.47086
1258.07	7.48311
1258.35	8.49637
1258.62	16.8175
1258.9	24.0904
1259.17	14.6482
1259.45	24.0152
1259.72	10.434
1260	12.5117
1260.27	17.7486
1260.55	13.5232
1260.82	20.7843
1261.1	17.5937
1261.37	20.6762
1261.65	20.6366
1261.92	26.8873
1262.2	23.8278
1262.48	40.6706
1262.75	48.0478
1263.02	54.081
1263.3	64.3281
1263.58	86.1366
1263.85	85.2343
1264.13	110.409
1264.4	126.25
1264.68	115.872
1264.95	117.818
1265.23	104.16
1265.5	67.5582
1265.78	53.9384
1266.05	50.7582
1266.33	34.0187
1266.6	35.0511
1266.88	30.8659
1267.15	15.1872
1267.43	9.96168
1267.7	19.3782
1267.98	19.3876
1268.25	22.5402
1268.53	7.91001
1268.8	14.2067
1269.08	12.1111
1269.35	20.4886
1269.63	10.0044
1269.9	16.2664
1270.18	14.1313
1270.45	22.4611
1270.73	18.2327
1271	14.0037
1271.28	20.2484
1271.55	14.9915
1271.83	19.1464
1272.1	24.3686
1272.38	16.0029
1272.65	7.63802
1272.93	14.9869
1273.2	18.1383
1273.47	12.9088
1273.75	11.8698
1274.03	13.9753
1274.3	12.9362
1274.57	9.78957
1274.85	20.268
1275.12	16.0531
1275.4	16.0385
1275.67	16.0346
1275.95	24.4297
1276.22	13.9402
1276.5	19.1974
1276.77	12.9029
1277.05	20.2579
1277.32	18.1584
1277.6	21.3212
1277.87	24.4855
1278.14	30.8038
1278.42	23.4557
1278.69	22.4117
1278.97	23.4811
1279.24	30.8492
1279.52	25.5961
1279.79	35.0462
1280.07	42.3886
1280.34	46.5698
1280.61	49.7092
1280.89	58.1233
1281.16	73.9048
1281.44	87.6117
1281.71	105.547
1281.99	137.142
1282.26	179.232
1282.53	236.094
1282.81	346.668
1283.08	483.432
1283.36	667.27
1283.63	933.615
1283.91	1270.55
1284.18	1695.04
1284.45	2046.08
1284.73	2073.65
1285	1772.67
1285.28	1223.65
1285.55	757.494
1285.83	478.197
1286.1	290.794
1286.37	192.932
1286.65	144.482
1286.92	104.425
1287.2	84.4131
1287.47	80.187
1287.75	66.4743
1288.02	58.0241
1288.29	53.7958
1288.57	47.4766
1288.84	41.1625
1289.12	33.801
1289.39	31.7103
1289.66	23.3056
1289.94	35.9588
1290.21	14.9168
1290.49	22.3056
1290.76	14.9297
1291.03	12.8111
1291.31	9.645
1291.58	20.175
1291.86	20.1733
1292.13	19.1159
1292.4	14.904
1292.68	23.3365
1292.95	10.6925
1293.22	11.739
1293.5	14.9043
1293.77	17.0442
1294.05	11.8169
1294.32	13.9675
1294.59	11.8717
1294.87	2.38336
1295.14	9.76117
1295.42	6.61654
1295.69	2.43671
1295.96	8.82033
1296.24	4.66328
1296.51	11.0444
1296.79	2.6024
1297.06	8.95105
1297.33	7.88885
1297.61	7.87809
1297.88	7.86484
1298.15	11.0185
1298.43	2.55154
1298.7	4.67966
1298.97	7.84698
1299.25	8.89435
1299.52	-2.72451
1299.79	1.49182
1300.07	2.55363
1300.34	3.63165
1300.62	7.87158
1300.89	6.82611
1301.16	0.49514
1301.44	8.94687
1301.71	12.1277
1301.98	2.6482
1302.25	-2.61041
1302.53	0.574791
1302.8	2.69953
1303.08	0.595764
1303.35	-0.455688
1303.62	6.93877
1303.9	0.597816
1304.17	-2.56198
1304.44	3.78674
1304.72	0.630539
1304.99	-5.6945
1305.26	-1.46857
1305.54	-1.47057
1305.81	1.68987
1306.08	-1.48165
1306.35	-1.48836
1306.63	-0.436279
1306.9	-1.48469
1307.18	0.638039
1307.45	-0.395432
1307.72	-1.43359
1308	-2.47492
1308.27	10.1958
1308.54	3.88712
1308.81	0.732979
1309.09	-12.9593
1309.36	1.83659
1309.63	-2.35609
1309.91	0.837303
1310.18	-0.193794
1310.45	2.98666
1310.73	-1.22295
1311	-3.3162
1311.27	4.09171
1311.55	-1.16285
1311.82	2.02494
1312.09	5.21637
1312.37	3.13839
1312.64	6.33691
1312.91	1.08212
1313.18	4.26532
1313.46	4.27102
1313.73	2.17612
1314	1.1328
1314.28	-3.07538
1314.55	-3.05535
1314.82	0.136612
1315.09	1.22105
1315.37	-2.97109
1315.64	3.39527
1315.91	3.42776
1316.18	0.291687
1316.46	-1.80238
1316.73	-2.84139
1317	4.57012
1317.28	-2.80222
1317.55	-2.77948
1317.82	3.59195
1318.09	4.6797
1318.37	-6.91159
1318.64	-0.54641
1318.91	1.59217
1319.18	-7.8917
1319.46	-1.53078
1319.73	-0.453125
1320	-5.71322
1320.28	4.88132
1320.55	3.85105
1320.82	0.702522
1321.09	2.82877
1321.37	-7.72416
1321.64	-7.71891
1321.91	-4.54967
1322.18	-0.31604
1322.46	-0.312172
1322.73	-2.40582
1323	6.04729
1323.27	-1.31944
1323.55	1.85546
1323.82	2.94702
1324.09	1.9241
1324.36	5.11712
1324.64	0.925011
1324.91	-5.37196
1325.18	0.981041
1325.45	-1.09369
1325.73	-0.0307693
1326	6.28486
1326.27	-9.53275
1326.54	-3.23877
1326.81	3.08112
1327.09	-0.0512695
1327.36	-7.36097
1327.63	-2.01719
1327.9	-7.22594
1328.18	0.207191
1328.45	-1.83916
1328.72	-1.77744
1328.99	4.60885
1329.27	3.59332
1329.54	-2.71494
1329.81	-4.78495
1330.08	1.57402
1330.35	5.81964
1330.63	3.73142
1330.9	-1.52425
1331.17	6.92488
1331.44	0.607765
1331.71	1.66371
1331.99	0.608376
1332.26	-5.70272
1332.53	-0.426918
1332.8	3.79191
1333.07	4.84916
1333.35	-1.4553
1333.62	-0.395203
1333.89	1.71706
1334.16	0.678078
1334.43	2.79129
1334.71	4.90494
1334.98	-0.328888
1335.25	-5.55753
1335.52	0.759605
1335.79	0.780304
1336.07	0.8022
1336.34	-0.223549
1336.61	0.849525
1336.88	-1.22176
1337.15	1.95082
1337.43	-6.40607
1337.7	2.0099
1337.97	5.18217
1338.24	1.00774
1338.51	-3.16354
1338.78	0.00512695
1339.06	-1.01754
1339.33	5.29451
1339.6	4.28288
1339.87	1.18273
1340.14	-6.10485
1340.42	1.26579
1340.69	-2.8816
1340.96	5.53783
1341.23	1.38593
1341.5	-1.72031
1341.77	2.50191
1342.04	6.72033
1342.32	1.51178
1342.59	3.6277
1342.86	-8.91072
1343.13	0.525826
1343.4	5.78461
1343.67	-0.456917
1343.95	0.626526
1344.22	-8.74634
1344.49	-3.4753
1344.76	0.748749
1345.03	-0.263481
1345.3	-5.46329
1345.58	-2.30222
1345.85	-7.5101
1346.12	7.14026
1346.39	6.10844
1346.66	-2.24297
1346.93	-2.22548
1347.2	-2.20634
1347.47	4.06969
1347.75	-6.33752
1348.02	-0.0537033
1348.29	-2.10609
1348.56	11.4788
1348.83	1.09309
1349.1	-2.00266
1349.37	2.19355
1349.65	6.38725
1349.92	1.20767
1350.19	8.5252
1350.46	8.55317
1350.73	7.5398
1351	1.31874
1351.27	4.46342
1351.54	5.53384
1351.81	4.5164
1352.09	-1.68518
1352.36	7.71583
1352.63	3.60975
1352.9	2.63091
1353.17	5.82067
1353.44	13.1626
1353.71	3.909
1353.98	2.98569
1354.25	1.91403
1354.53	6.00134
1354.8	-2.34967
1355.07	2.89851
1355.34	3.98905
1355.61	8.161
1355.88	6.11349
1356.15	4.1086
1356.42	3.12113
1356.69	1.07185
1356.96	6.30304
1357.24	9.45719
1357.51	4.3018
1357.78	2.26022
1358.05	7.48479
1358.32	6.47819
1358.59	3.39561
1358.86	4.46581
1359.13	5.53297
1359.4	11.787
1359.67	6.63499
1359.94	8.74466
1360.22	2.54888
1360.49	1.53573
1360.76	7.77744
1361.03	3.66458
1361.3	2.66893
1361.57	5.82184
1361.84	12.0802
1362.11	13.1577
1362.38	10.0872
1362.65	9.08909
1362.92	8.09235
1363.19	7.10108
1363.46	9.22413
1363.73	16.535
1364	14.5221
1364.28	21.8316
1364.55	23.9496
1364.82	23.9903
1365.09	24.0272
1365.36	30.2702
1365.63	23.0473
1365.9	29.282
1366.17	14.8187
1366.44	16.9155
1366.71	14.8727
1366.98	15.9287
1367.25	19.0464
1367.52	13.912
1367.79	9.81753
1368.06	23.3128
1368.33	13.0317
1368.6	16.1861
1368.87	12.1045
1369.15	30.7668
1369.41	55.6374
1369.68	84.6464
1369.95	116.726
1370.23	87.8072
1370.5	51.6595
1370.77	21.7073
1371.04	32.0756
1371.31	27.9723
1371.58	17.6647
1371.85	19.7473
1372.12	20.7909
1372.39	23.8984
1372.66	18.7565
1372.93	22.9047
1373.2	27.0602
1373.47	25.034
1373.74	17.8559
1374.01	19.9559
1374.28	26.1789
1374.55	30.3417
1374.82	32.444
1375.09	33.5146
1375.36	36.6399
1375.63	37.7226
1375.9	40.8757
1376.17	36.8009
1376.44	32.7348
1376.71	34.8166
1376.98	35.8688
1377.25	43.0871
1377.52	44.1171
1377.79	36.9766
1378.06	44.2588
1378.33	36.1155
1378.6	42.3994
1378.87	45.6033
1379.14	41.5477
1379.41	52.9331
1379.68	48.8421
1379.95	59.1807
1380.22	67.446
1380.49	63.3149
1380.76	71.4889
1381.03	73.5292
1381.3	67.3536
1381.57	77.7105
1381.84	82.8621
1382.11	86.9505
1382.38	79.7295
1382.65	84.8494
1382.92	89.9738
1383.19	92.013
1383.46	101.248
1383.73	102.272
1384	101.265
1384.27	116.667
1384.54	128
1384.81	150.623
1385.08	165.07
1385.34	188.777
1385.61	223.818
1385.88	270.136
1386.15	328.782
1386.42	434.649
1386.69	666.916
1386.96	967.992
1387.23	1611.02
1387.5	2670.96
1387.77	3978.96
1388.04	4654.26
1388.31	3715.4
1388.58	2340.56
1388.85	1271.36
1389.12	726.143
1389.39	443.32
1389.66	302.74
1389.93	212.465
1390.2	173.409
1390.46	133.263
1390.73	121.957
1391	105.593
1391.27	91.2205
1391.54	70.7571
1391.81	66.6931
1392.08	62.6118
1392.35	58.5281
1392.62	45.2347
1392.89	60.6213
1393.16	51.4375
1393.43	47.3765
1393.7	45.3654
1393.97	40.2853
1394.23	45.4404
1394.5	47.5265
1394.77	37.3344
1395.04	42.4933
1395.31	30.2731
1395.58	38.5248
1395.85	23.2306
1396.12	37.6134
1396.39	31.5155
1396.66	33.601
1396.93	27.4955
1397.2	24.4603
1397.46	29.605
1397.73	23.4963
1398	38.8767
1398.27	27.6712
1398.54	27.7245
1398.81	20.6215
1399.08	31.928
1399.35	29.9337
1399.62	19.7638
1399.89	26.9836
1400.16	19.8745
1400.42	24.0141
1400.69	30.215
1400.96	25.1665
1401.23	24.1997
1401.5	22.1941
1401.77	30.4442
1402.04	23.3202
1402.31	16.2257
1402.58	22.4696
1402.84	23.596
1403.11	30.8652
1403.38	30.9424
1403.65	25.8697
1403.92	32.0761
1404.19	22.8631
1404.46	24.9094
1404.73	25.9945
1404.99	21.9276
1405.26	22.9881
1405.53	33.2735
1405.8	39.4526
1406.07	36.4031
1406.34	35.4061
1406.61	45.6904
1406.87	37.5266
1407.14	48.8511
1407.41	61.2049
1407.68	78.6879
1407.95	84.8927
1408.22	112.629
1408.49	129.089
1408.76	154.78
1409.02	185.606
1409.29	206.185
1409.56	240.099
1409.83	210.421
1410.1	168.423
1410.37	125.383
1410.63	91.5437
1410.9	73.0881
1411.17	49.5129
1411.44	42.3559
1411.71	36.2329
1411.98	38.3116
1412.25	24.0088
1412.51	20.9906
1412.78	24.1335
1413.05	24.2327
1413.32	24.3836
1413.59	12.1528
1413.86	16.2418
1414.12	16.1763
1414.39	21.3645
1414.66	17.3606
1414.93	14.3614
1415.2	15.4251
1415.47	12.3901
1415.73	12.4326
1416	18.637
1416.27	8.41802
1416.54	12.574
1416.81	12.6235
1417.07	13.7003
1417.34	12.7241
1417.61	13.8021
1417.88	11.7971
1418.15	7.73237
1418.42	2.63722
1418.68	6.79141
1418.95	11.9743
1419.22	13.0437
1419.49	2.80901
1419.76	2.84224
1420.02	15.1994
1420.29	7.00589
1420.56	4.97892
1420.83	5.00476
1421.1	12.2163
1421.36	11.2156
1421.63	8.16987
1421.9	5.13457
1422.17	6.21948
1422.44	4.22904
1422.7	10.4561
1422.97	17.7318
1423.24	12.6973
1423.51	3.53725
1423.77	8.55228
1424.04	12.5398
1424.31	16.7013
1424.58	12.5643
1424.85	10.5545
1425.11	14.7138
1425.38	13.7817
1425.65	13.8301
1425.92	23.0875
1426.19	8.79324
1426.45	3.69708
1426.72	6.79987
1426.99	11.9464
1427.26	4.78762
1427.52	5.82997
1427.79	6.86366
1428.06	8.92599
1428.33	4.85607
1428.59	3.86491
1428.86	12.094
1429.13	4.96803
1429.4	9.10678
1429.67	6.07967
1429.93	8.17577
1430.2	7.20307
1430.47	9.30829
1430.74	4.23478
1431	11.4695
1431.27	9.48679
1431.54	3.39068
1431.81	2.4119
1432.07	4.50061
1432.34	7.60262
1432.61	8.64737
1432.87	2.51705
1433.14	0.481583
1433.41	6.64371
1433.68	5.62451
1433.95	4.60825
1434.21	1.55432
1434.48	-1.48943
1434.75	2.67177
1435.01	5.79404
1435.28	-0.316799
1435.55	7.91569
1435.82	5.89878
1436.08	1.83117
1436.35	4.93486
1436.62	2.91489
1436.89	1.91827
1437.15	2.9699
1437.42	4.02197
1437.69	-1.06767
1437.95	-0.0171623
1438.22	8.20566
1438.49	8.24247
1438.76	5.21321
1439.02	7.30108
1439.29	6.3117
1439.56	3.27429
1439.82	7.4157
1440.09	3.36435
1440.36	-0.685963
1440.63	2.42984
1440.89	-2.66118
1441.16	5.57515
1441.43	1.50863
1441.69	1.53535
1441.96	-2.54469
1442.23	4.6578
1442.49	0.601048
1442.76	2.68487
1443.03	2.72878
1443.3	-0.325153
1443.56	0.720585
1443.83	4.84314
1444.1	-3.33406
1444.36	3.86977
1444.63	2.87916
1444.9	-1.174
1445.16	3.99936
1445.43	-4.15811
1445.7	5.10077
1445.97	-1.03114
1446.23	2.07062
1446.5	3.12059
1446.77	1.09368
1447.03	2.14354
1447.3	0.1166
1447.57	0.139484
1447.83	3.23632
1448.1	-3.91779
1448.37	-2.86448
1448.63	1.27581
1448.9	0.292591
1449.17	0.324558
1449.43	-4.77653
1449.7	0.374668
1449.97	-4.73277
1450.23	-0.613197
1450.5	-0.595551
1450.77	6.60204
1451.03	-9.7753
1451.3	2.54654
1451.57	0.518543
1451.83	1.56403
1452.1	1.58494
1452.37	0.582306
1452.63	5.72885
1452.9	-0.390945
1453.17	-2.41086
1453.43	-0.328335
1453.7	2.77796
1453.97	-3.3445
1454.23	0.776375
1454.5	-1.25071
1454.77	1.84918
1455.03	-4.27353
1455.3	0.873657
1455.56	-5.253
1455.83	0.921223
1456.1	-0.0677757
1456.36	-0.0371704
1456.63	-3.08738
1456.9	0.00699997
1457.16	1.04592
1457.43	4.1341
1457.7	9.27602
1457.96	-11.1925
1458.23	0.0975304
1458.49	6.26807
1458.76	-5.99945
1459.03	9.39437
1459.29	-0.82386
1459.56	1.25072
1459.82	-0.773849
1460.09	6.41896
1460.36	2.33972
1460.62	3.3826
1460.89	4.42463
1461.16	-0.680908
1461.42	2.40627
1461.69	-4.74732
1461.95	1.41007
1462.22	-2.67279
1462.49	0.409275
1462.75	3.48893
1463.02	4.52022
1463.28	-0.587185
1463.55	0.442791
1463.82	-0.570934
1464.08	-2.59646
1464.35	-1.53471
1464.61	2.60597
1464.88	-0.421375
1465.15	7.8196
1465.41	7.7886
1465.68	4.62249
1465.94	1.52869
1466.21	-3.55943
1466.48	-4.54271
1466.74	-9.6314
1467.01	3.63005
1467.27	5.68172
1467.54	4.68756
1467.8	-3.45834
1468.07	-1.40253
1468.34	1.67449
1468.6	1.69265
1468.87	6.81058
1469.13	-7.45394
1469.4	-3.36071
1469.67	3.78954
1469.93	3.7961
1470.2	-2.31627
1470.46	2.78706
1470.73	-2.29823
1470.99	3.82667
1471.26	-2.27288
1471.53	3.84937
1471.79	0.799458
1472.06	6.91908
1472.32	4.89536
1472.59	0.837364
1472.85	2.88953
1473.12	4.94131
1473.39	-10.3184
1473.65	-3.18263
1473.92	-3.17411
1474.18	0.90678
1474.45	-0.0985336
1474.71	6.02372
1474.98	2.99277
1475.24	0.977573
1475.51	0.994541
1475.78	-3.06247
1476.04	1.01924
1476.31	-2.0257
1476.57	-0.998066
1476.84	-12.1789
1477.1	-1.99852
1477.37	0.0416679
1477.63	4.12
1477.9	3.11595
1478.16	-1.95528
1478.43	-9.06473
1478.69	-1.94323
1478.96	2.12909
1479.22	2.13467
1479.49	-7.00677
1479.76	-8.01818
1480.02	-2.93608
1480.29	-1.91817
1480.55	-3.95493
1480.82	0.102825
1481.08	-2.93912
1481.35	4.17185
1481.61	0.116882
1481.88	-7.98069
1482.14	5.23209
1482.41	5.25699
1482.67	2.23797
1482.94	-0.785282
1483.2	0.242714
1483.47	-6.84505
1483.73	-3.78252
1484	0.292099
1484.26	-4.77472
1484.53	3.33622
1484.79	-1.75833
1485.06	4.27367
1485.32	-1.87129
1485.59	-1.88681
1485.85	-3.94025
1486.12	3.28961
1486.38	-0.734921
1486.65	0.312244
1486.91	0.26152
1487.18	4.35574
1487.44	-2.71728
1487.71	2.34283
1487.97	-2.72461
1488.24	2.34217
1488.5	-1.7072
1488.77	-5.75841
1489.03	1.32421
1489.3	5.37125
1489.56	4.36275
1489.83	2.34416
1490.09	-2.7082
1490.36	1.34809
1490.62	-2.68945
1490.89	5.4058
1491.15	-0.665131
1491.42	-2.6891
1491.68	0.348259
1491.95	1.36607
1492.21	-3.6798
1492.48	0.375999
1492.74	3.41623
1493	-6.6877
1493.27	1.40692
1493.53	3.43751
1493.8	8.49621
1494.06	-0.595108
1494.33	-2.60752
1494.59	6.50277
1494.86	3.48357
1495.12	1.4674
1495.39	-0.555614
1495.65	-5.61699
1495.92	2.4532
1496.18	-2.60569
1496.45	-2.60811
1496.71	4.45869
1496.97	1.43026
1497.24	-0.588989
1497.5	-1.59142
1497.77	5.48024
1498.03	0.437706
1498.3	0.443352
1498.56	0.45084
1498.82	-6.60558
1499.09	-6.59705
1499.35	-1.54158
1499.62	-5.56879
1499.88	-2.52929
1500.15	-1.50856
1500.41	-2.50977
1500.68	4.56312
1500.94	0.528961
1501.2	-0.476379
1501.47	-1.48599
1501.73	0.527405
1502	1.53871
1502.26	3.56091
1502.52	3.56406
1502.79	-1.48129
1503.05	0.529732
1503.32	4.5579
1503.58	-0.486561
1503.85	-2.50838
1504.11	5.56286
1504.37	-5.51844
1504.64	5.58172
1504.9	-3.48909
1505.17	-0.461624
1505.43	2.56199
1505.7	2.55733
1505.96	4.56052
1506.22	-0.494865
1506.49	-2.50943
1506.75	-2.50691
1507.02	2.53697
1507.28	-0.473137
1507.54	-3.48989
1507.81	-5.49898
1508.07	-0.457161
1508.34	-0.45739
1508.6	0.550701
1508.86	-2.4674
1509.13	0.560974
1509.39	0.565254
1509.66	0.567722
1509.92	0.570721
1510.18	-1.43522
1510.45	-4.45192
1510.71	-0.428627
1510.98	9.6375
1511.24	0.559887
1511.5	-3.48135
1511.77	5.55816
1512.03	2.50954
1512.29	4.49155
1512.56	-3.57665
1512.82	-2.59254
1513.08	5.42992
1513.35	-1.61099
1513.61	-2.6236
1513.88	-1.62225
1514.14	3.41319
1514.4	0.425419
1514.67	4.45112
1514.93	2.43692
1515.2	4.43333
1515.46	0.402554
1515.72	-3.62545
1515.99	3.38332
1516.25	2.36335
1516.51	-0.656654
1516.78	2.34735
1517.04	0.338295
1517.3	-0.667088
1517.57	-2.67283
1517.83	2.34229
1518.09	1.34483
1518.36	1.35643
1518.62	1.36036
1518.88	1.36532
1519.15	2.37252
1519.41	0.372025
1519.67	1.38036
1519.94	-4.6361
1520.2	-2.63041
1520.47	4.38722
1520.73	-2.6388
1520.99	0.374111
1521.26	1.38326
1521.52	2.392
1521.78	-1.61956
1522.05	-3.62868
1522.31	2.38601
1522.57	-4.64315
1522.84	-2.64371
1523.1	-6.66164
1523.36	-1.65656
1523.62	-8.69137
1523.89	5.31805
1524.15	-1.7122
1524.41	-4.7296
1524.68	1.26917
1524.94	-8.75404
1525.2	4.26923
1525.47	-0.736099
1525.73	3.27108
1525.99	3.27898
1526.26	-3.72362
1526.52	-7.71881
1526.78	3.31577
1527.05	3.3194
1527.31	-2.69759
1527.57	3.30659
1527.84	-3.71399
1528.1	3.29458
1528.36	1.28399
1528.63	-1.73035
1528.89	-0.736225
1529.15	3.26369
1529.41	0.253891
1529.68	4.25756
1529.94	-9.77041
1530.2	5.24113
1530.47	-2.77461
1530.73	-0.768654
1530.99	-0.759102
1531.25	2.256
1531.52	3.26504
1531.78	-4.75225
1532.04	-6.76201
1532.31	2.25512
1532.57	1.24286
1532.83	1.24739
1533.09	4.26745
1533.36	-2.73124
1533.62	2.29806
1533.88	-0.705315
1534.15	-0.7034
1534.41	4.30911
1534.67	-0.712643
1534.94	-1.72297
1535.2	3.28281
1535.46	-6.75392
1535.72	5.26513
1535.99	-2.78656
1536.25	0.199203
1536.51	-0.818626
1536.77	1.16114
1537.04	-1.86682
1537.3	4.11512
1537.56	2.10226
1537.82	1.08483
1538.09	-1.91867
1538.35	-2.93358
1538.61	1.04466
1538.87	-7.96154
1539.14	2.02544
1539.4	1.03842
1539.66	-0.93232
1539.92	4.11118
1540.19	1.13391
1540.45	2.15716
1540.71	1.17712
1540.97	0.186729
1541.24	-3.82203
1541.5	2.16624
1541.76	3.16177
1542.02	3.14111
1542.29	5.12566
1542.55	0.0976143
1542.81	-1.92377
1543.07	4.06601
1543.34	3.04694
1543.6	-1.97573
1543.86	1.00288
1544.12	-2.02148
1544.39	5.97734
1544.65	-2.02429
1544.91	3.98512
1545.17	0.99749
1545.43	-0.995758
1545.7	-2.98005
1545.96	-4.97561
1546.22	1.03641
1546.48	0.0366554
1546.74	6.03862
1547.01	-4.98185
1547.27	-3.97866
1547.53	0.0309334
1547.79	6.04473
1548.06	-6.99799
1548.32	0.981247
1548.58	9.98825
1548.84	-2.02957
1549.1	-4.0213
1549.37	3.92998
1549.63	-0.137943
1549.89	-2.15478
1550.15	-1.12844
1550.42	-2.07517
1550.68	2.01497
1550.94	-3.94631
1551.2	2.12942
1551.46	-1.93228
1551.73	-2.93602
1551.99	4.07503
1552.25	-0.967628
1552.51	4.07289
1552.77	10.1198
1553.03	-4.9591
1553.3	5.06065
1553.56	3.00267
1553.82	2.98757
1554.08	-2.0383
1554.34	-2.05507
1554.61	5.94418
1554.87	7.92177
1555.13	7.89293
1555.39	1.86832
1555.65	5.86572
1555.91	-0.150486
1556.18	4.85654
1556.44	-0.157314
1556.7	6.83972
1556.96	1.82664
1557.22	6.83353
1557.48	7.83345
1557.75	6.82715
1558.01	4.8144
1558.27	-0.210659
1558.53	0.766548
1558.79	-0.254963
1559.06	3.72228
1559.32	3.69754
1559.58	-2.32539
1559.84	3.6559
1560.1	-2.35909
1560.36	-2.37291
1560.63	2.61272
1560.89	0.603191
1561.15	-4.40287
1561.41	4.58458
1561.67	6.58186
1561.93	1.58999
1562.19	-3.39874
1562.46	-0.387852
1562.72	0.606892
1562.98	7.59879
1563.24	-5.41285
1563.5	2.5843
1563.76	-0.427567
1564.02	4.56254
1564.29	-7.42456
1564.55	-0.406212
1564.81	-0.405033
1565.07	7.59061
1565.33	3.54679
1565.59	3.43199
1565.85	6.2642
1566.11	6.17642
1566.38	-4.55072
1566.64	-7.49193
1566.9	2.47101
1567.16	1.42581
1567.42	-2.53016
1567.68	4.51728
1567.94	2.49593
1568.2	-1.55144
1568.47	1.44856
1568.73	0.450916
1568.99	4.4488
1569.25	-5.56205
1569.51	-4.58824
1569.77	2.38899
1570.03	2.3833
1570.29	5.38013
1570.55	-2.6198
1570.82	4.37073
1571.08	3.3639
1571.34	0.356884
1571.6	-5.65023
1571.86	5.32545
1572.12	-5.68037
1572.38	-5.68826
1572.64	-1.70605
1572.9	2.27102
1573.17	3.25435
1573.43	1.24279
1573.69	3.22298
1573.95	-5.77394
1574.21	3.20319
1574.47	-3.77922
1574.73	-5.76963
1574.99	1.2275
1575.25	1.23648
1575.51	5.24133
1575.78	1.24947
1576.04	1.24615
1576.3	-1.76227
1576.56	2.22766
1576.82	1.21539
1577.08	-6.80057
1577.34	-6.82676
1577.6	-0.862881
1577.86	6.09539
1578.12	-4.90354
1578.38	2.05453
1578.64	-0.953892
1578.9	1.0304
1579.17	0.0267181
1579.43	3.01087
1579.69	4.00225
1579.95	-3.97615
1580.21	-4.97142
1580.47	4.00122
1580.73	1.00467
1580.99	-3.98978
1581.25	-4.99924
1581.51	-2.02314
1581.77	6.93433
1582.03	-0.0610313
1582.29	-0.0796318
1582.55	1.90257
1582.81	3.88474
1583.07	-5.09152
1583.33	-8.08891
1583.59	6.84447
1583.85	-0.13546
1584.11	0.848598
1584.38	-3.14123
1584.64	2.83379
1584.9	1.83588
1585.16	-7.13271
1585.42	2.82202
1585.68	4.8048
1585.94	0.813156
1586.2	-0.194412
1586.46	0.781742
1586.72	5.7385
1586.98	-3.23654
1587.24	3.71631
1587.5	0.718639
1587.76	-0.287254
1588.02	4.67865
1588.28	2.68349
1588.54	1.68774
1588.8	3.67914
1589.06	-3.28421
1589.32	10.6523
1589.58	3.6869
1589.84	2.69147
1590.1	-0.298923
1590.36	-0.304729
1590.62	4.6729
1590.88	3.67891
1591.14	2.68325
1591.4	7.65532
1591.66	0.678143
1591.92	-1.32305
1592.18	3.64401
1592.44	8.60196
1592.7	0.613659
1592.96	3.57906
1593.22	-0.415195
1593.48	-1.4365
1593.74	0.523258
1594	1.4868
1594.26	9.41286
1594.52	5.42527
1594.78	5.41995
1595.04	3.43557
1595.3	3.44289
1595.56	2.45233
1595.82	-5.5024
1596.08	5.39364
1596.34	-1.56549
1596.6	2.4021
1596.86	4.38392
1597.12	-6.54473
1597.38	7.36048
1597.64	-0.586105
1597.9	3.38787
1598.16	4.37474
1598.42	0.390114
1598.68	3.35408
1598.94	3.33218
1599.2	1.32659
1599.46	2.30286
1599.72	2.28751
1599.98	4.25657
1600.24	0.272858
1600.5	6.20935
1600.76	-0.749725
1601.02	0.222511
1601.28	4.16373
1601.54	-5.76984
1601.8	1.14135
1602.06	6.07135
1602.32	0.113079
1602.58	0.0969391
1602.84	2.0587
1603.1	-0.928806
1603.36	8.94503
1603.62	5.96099
1603.88	2.98172
1604.14	4.94952
1604.4	0.988686
1604.66	4.94021
1604.92	6.91521
1605.17	-0.00984955
1605.43	-1.99047
1605.69	-0.0149918
1605.95	4.93013
1606.21	7.90041
1606.47	-0.00821304
1606.73	0.984596
1606.99	1.97614
1607.25	0.024601
1607.51	1.98643
1607.77	6.84102
1608.03	0.981758
1608.29	1.77136
1608.55	-0.0474014
1608.81	3.77362
1609.07	2.87297
1609.32	7.43147
1609.58	5.54662
1609.84	7.49889
1610.1	5.92424
1610.36	1.67283
1610.62	2.97227
1610.88	0.0389633
1611.14	-4.24329
1611.4	0.552803
1611.66	4.21957
1611.92	10.1392
1612.18	3.60393
1612.44	-3.23626
1612.69	-1.56754
1612.95	1.34928
1613.21	1.21631
1613.47	2.94824
1613.73	4.58038
1613.99	1.10494
1614.25	0.123623
1614.51	-1.68184
1614.77	1.65144
1615.03	2.93835
1615.29	2.6441
1615.54	5.49047
1615.8	6.48553
1616.06	2.78876
1616.32	2.62204
1616.58	-0.75639
1616.84	1.79182
1617.1	1.01324
1617.36	3.04314
1617.62	0.770802
1617.88	3.53152
1618.13	3.633
1618.39	7.97549
1618.65	2.50232
1618.91	3.41946
1619.17	4.30959
1619.43	2.12234
1619.69	5.08395
1619.95	1.06441
1620.2	-1.45672
1620.46	1.87169
1620.72	2.4917
1620.98	4.11434
1621.24	3.5915
1621.5	6.6456
1621.76	4.41326
1622.02	3.64356
1622.27	2.91922
1622.53	3.95581
1622.79	-1.08947
1623.05	0.656269
1623.31	3.87997
1623.57	2.88436
1623.83	2.64881
1624.09	5.15845
1624.34	3.64918
1624.6	2.32338
1624.86	3.10388
1625.12	0.671455
1625.38	1.50061
1625.64	0.81094
1625.9	2.05962
1626.15	2.78521
1626.41	4.56149
1626.67	5.22118
1626.93	2.7103
1627.19	4.66104
1627.45	4.33982
1627.7	1.81764
1627.96	2.06773
1628.22	4.33297
1628.48	5.91975
1628.74	5.27244
1629	5.94013
1629.26	3.44276
1629.51	2.68056
1629.77	0.758739
1630.03	2.70843
1630.29	5.33141
1630.55	5.76458
1630.81	6.00811
1631.06	5.99598
1631.32	-2.664
1631.53	-6.5617
1631.79	4.28172
1632.05	8.23348
1632.31	8.24382
1632.57	6.26964
1632.84	12.2005
1633.1	5.32927
1633.36	7.28041
1633.62	4.29354
1633.88	5.27256
1634.14	4.29536
1634.4	5.29015
1634.66	4.30772
1634.93	7.26654
1635.19	8.25168
1635.45	1.3501
1635.71	-3.58077
1635.97	5.28527
1636.23	2.32356
1636.49	6.25854
1636.75	6.25177
1637.02	5.25933
1637.28	9.19027
1637.54	3.27145
1637.8	8.19011
1638.06	-0.672565
1638.32	6.21502
1638.58	3.25659
1638.84	4.23756
1639.1	8.17647
1639.37	6.20892
1639.63	3.25626
1639.89	-1.6648
1640.15	6.21006
1640.41	3.25614
1640.67	4.24335
1640.93	3.27073
1641.19	6.23349
1641.46	6.23709
1641.72	0.326447
1641.98	9.18297
1642.24	6.2266
1642.5	-2.63491
1642.76	8.19267
1643.02	0.31675
1643.28	4.25371
1643.54	2.28542
1643.8	0.31707
1644.06	-0.669777
1644.33	1.29446
1644.59	0.303879
1644.85	1.28252
1645.11	5.21774
1645.37	8.17566
1645.63	1.29769
1645.89	8.19229
1646.15	3.27467
1646.41	5.23917
1646.67	2.28275
1646.93	4.24667
1647.19	4.24513
1647.46	9.15966
1647.72	5.22113
1647.98	3.25134
1648.24	6.20275
1648.5	0.306686
1648.76	-0.665363
1649.02	10.1692
1649.28	4.29711
1649.54	8.24895
1649.8	1.35395
1650.06	2.3349
1650.32	4.30585
1650.58	1.37148
1650.85	6.31152
1651.11	4.3551
1651.37	6.33932
1651.63	5.36444
1651.89	5.37064
1652.15	9.31571
1652.41	1.43522
1652.67	9.32451
1652.93	0.452812
1653.19	2.42013
1653.45	0.449852
1653.71	10.3057
1653.97	5.38545
1654.23	1.45293
1654.49	1.45975
1654.75	5.40742
1655.01	5.41483
1655.27	-0.488674
1655.53	2.48295
1655.8	1.51622
1656.06	7.45853
1656.32	7.47654
1656.57	6.50261
1656.84	3.55038
1657.1	9.47952
1657.36	3.55898
1657.62	5.53202
1657.88	0.595009
1658.14	5.52974
1658.4	10.4633
1658.66	-0.392906
1658.92	7.49618
1659.18	2.55958
1659.44	-0.403221
1659.7	1.56555
1659.96	3.53368
1660.22	0.568638
1660.48	7.4781
1660.74	-0.397659
1661	2.5731
1661.26	5.54618
1661.52	0.62899
1661.78	6.56461
1662.04	5.58733
1662.3	7.57011
1662.56	3.57649
1662.82	5.66196
1663.08	5.72673
1663.34	8.66478
1663.6	1.74484
1663.86	6.67604
1664.12	1.63039
1664.38	2.67889
1664.64	4.67176
1664.9	5.6691
1665.16	2.73935
1665.42	6.70768
1665.68	5.66249
1665.94	4.62785
1666.2	6.75581
1666.46	8.7514
1666.72	3.80652
1666.98	6.69601
1667.24	3.56663
1667.5	4.72271
1667.76	4.7158
1668.02	4.71184
1668.28	8.65833
1668.54	8.65372
1668.8	2.74124
1669.06	7.70665
1669.32	1.82047
1669.58	2.81972
1669.84	3.81437
1670.1	2.83438
1670.36	1.84682
1670.62	6.7911
1670.88	8.8038
1671.14	1.91011
1671.4	8.8298
1671.66	0.923973
1671.92	3.89267
1672.18	2.91277
1672.44	3.91208
1672.69	0.954506
1672.95	1.94892
1673.21	5.90889
1673.47	0.974033
1673.73	2.95977
1673.99	7.91313
1674.25	2.98191
1674.51	3.98464
1674.77	0.0417671
1675.03	5.98995
1675.29	3.0393
1675.55	4.04375
1675.81	6.03445
1676.07	6.04187
1676.33	7.03721
1676.59	2.09766
1676.85	2.10715
1677.11	5.08463
1677.37	-6.7863
1677.63	-0.843964
1677.89	4.10622
1678.14	3.11573
1678.4	4.1013
1678.66	3.10709
1678.92	-2.8291
1679.18	4.09228
1679.44	4.09253
1679.7	5.08344
1679.96	1.131
1680.22	3.10941
1680.48	4.1007
1680.74	4.10216
1681	2.12766
1681.26	-1.82175
1681.52	6.08658
1681.78	2.1412
1682.03	4.12388
1682.29	-2.78417
1682.55	4.13913
1682.81	4.14778
1683.07	1.18923
1683.33	2.18312
1683.59	6.14149
1683.85	0.221756
1684.11	3.19148
1684.37	1.22007
1684.63	5.17024
1684.89	7.14829
1685.14	-2.72203
1685.4	0.246529
1685.66	4.20316
1685.92	1.24837
1686.18	0.269157
1686.44	-0.709259
1686.7	-3.65991
1686.96	6.23556
1687.22	-6.59304
1687.48	9.22253
1687.73	3.29897
1687.99	0.337543
1688.25	3.30258
1688.51	-0.644485
1688.77	7.25747
1689.03	0.346241
1689.29	4.29174
1689.55	1.32994
1689.81	-1.63116
1690.06	5.27313
1690.32	-3.60788
1690.58	8.23227
1690.84	-3.58324
1691.1	4.32418
1691.36	3.35093
1691.62	6.32253
1691.88	4.36346
1692.13	-3.51864
1692.39	0.437859
1692.65	2.4174
1692.91	3.40496
1693.17	5.37636
1693.43	1.42691
1693.69	4.3797
1693.95	-0.557022
1694.2	3.38392
1694.46	6.33824
1694.72	5.34991
1694.98	-2.52982
1695.24	-4.4917
1695.5	4.38571
1695.76	3.41259
1696.01	0.46912
1696.27	-0.503605
1696.53	2.46862
1696.79	-4.41588
1697.05	-1.45068
1697.31	-0.460808
1697.57	3.47986
1697.82	-4.40475
1698.08	-1.4537
1698.34	0.514091
1698.6	3.46743
1698.86	-0.468937
1699.12	-1.45056
1699.38	-2.42881
1699.63	-3.40467
1699.89	-3.39271
1700.15	-5.35102
1700.41	3.51539
1700.67	4.49869
1700.92	-0.41333
1701.18	-1.38988
1701.44	-2.36691
1701.7	-3.34531
1701.96	5.50768
1702.22	1.57294
1702.47	-0.392994
1702.73	-3.34204
1702.99	-0.392929
1703.25	1.57912
1703.51	0.604729
1703.77	0.611084
1704.02	-3.31408
1704.28	3.56976
1704.54	-4.27562
1704.8	-0.329102
1705.06	-0.317711
1705.32	-2.27556
1705.57	2.64403
1705.83	-4.22411
1706.09	-3.23164
1706.35	-1.26427
1706.61	0.699585
1706.86	4.62542
1707.12	-1.26884
1707.38	0.691944
1707.64	-3.23416
1707.9	2.64929
1708.16	-1.28024
1708.41	-2.26611
1708.67	-0.311188
1708.93	-1.29904
1709.19	-1.30481
1709.44	5.5483
1709.7	1.63407
1709.96	-4.23319
1710.22	-3.2448
1710.48	0.682152
1710.73	4.60993
1710.99	2.6666
1711.25	-3.19062
1711.51	-3.17588
1711.77	4.67384
1712.02	-2.16806
1712.28	-1.17757
1712.54	3.72435
1712.8	4.69873
1713.06	2.72916
1713.31	2.71681
1713.57	-3.16127
1713.83	1.71988
1714.09	-0.24353
1714.34	-1.21923
1714.6	-1.21498
1714.86	1.72128
1715.12	3.68225
1715.38	2.71514
1715.63	3.71154
1715.89	0.802692
1716.15	0.812912
1716.41	-1.13471
1716.66	-1.13122
1716.92	1.79895
1717.18	-2.11055
1717.44	-1.14069
1717.69	-1.15069
1717.95	1.76117
1718.21	-1.17483
1718.47	1.74013
1718.72	-0.214203
1718.98	2.70688
1719.24	4.65839
1719.5	-3.12115
1719.75	-2.13727
1720.01	-1.15564
1720.27	5.67416
1720.53	1.79255
1720.78	2.77187
1721.04	1.79977
1721.3	-4.0424
1721.56	-3.0683
1721.81	1.79692
1722.07	-0.149063
1722.33	-5.01192
1722.59	-2.09647
1722.84	5.67657
1723.1	5.6743
1723.36	5.67337
1723.62	-5.97932
1723.87	1.79498
1724.13	3.74749
1724.39	-4.01384
1724.64	-0.121616
1724.9	-5.94324
1725.16	-0.120701
1725.42	-1.09932
1725.67	-2.07534
1725.93	-2.0823
1726.19	2.76284
1726.45	-5.95388
1726.7	4.72073
1726.96	3.75855
1727.22	0.854961
1727.47	0.848057
1727.73	-4.95335
1727.99	-2.0253
1728.24	-0.0798836
1728.5	-0.0770836
1728.76	-2.98919
1729.02	1.79185
1729.27	-2.13729
1729.53	-2.15289
1729.79	-3.0801
1730.05	0.818573
1730.3	-1.08318
1730.56	-3.03277
1730.82	5.65407
1731.07	-1.09706
1731.33	1.86776
1731.59	-1.98336
1731.84	1.8945
1732.1	3.83742
1732.36	0.946239
1732.61	-1.94636
1732.87	1.92447
1733.13	6.75807
1733.39	2.89399
1733.64	0.95816
1733.9	4.81012
1734.16	-1.95456
1734.41	0.935581
1734.67	1.89527
1734.93	2.85379
1735.18	-1.00605
1735.44	0.916283
1735.7	0.913315
1735.95	4.76509
1736.21	0.91758
1736.47	-2.92586
1736.72	1.8926
1736.98	0.934792
1737.24	4.78785
1737.49	2.86712
1737.75	0.947586
1738.01	3.8377
1738.26	-0.00669861
1738.52	0.955475
1738.78	0.956173
1739.03	0.95686
1739.29	-4.80838
1739.55	5.75528
1739.8	-0.97488
1740.06	2.85345
1740.32	-0.0352707
1740.57	-2.91925
1740.83	-1.00536
1741.09	-1.00588
1741.34	0.910831
1741.6	-3.87865
1741.86	1.86974
1742.11	0.914982
1742.37	3.79332
1742.63	-2.90049
1742.88	0.936363
1743.14	3.81414
1743.4	-0.00671387
1743.65	1.91743
1743.91	2.88066
1744.16	0.967461
1744.42	1.92674
1744.68	-0.939384
1744.93	-0.93161
1745.19	-1.87711
1745.45	1.96094
1745.7	1.01553
1745.96	1.02411
1746.22	-0.883743
1746.47	-1.83833
1746.73	0.0724182
1746.98	-6.62048
1747.24	0.0686874
1747.5	1.9761
1747.75	-2.79893
1748.01	1.97479
1748.27	-4.7019
1748.52	-3.73733
1748.78	1.0472
1749.03	1.06024
1749.29	5.84812
1749.55	-0.818085
1749.8	-0.799206
1750.06	-1.73393
1750.32	0.198544
1750.57	-0.734642
1750.83	-2.62503
1751.08	-0.698483
1751.34	0.273991
1751.6	-0.669598
1751.85	3.15882
1752.11	1.24382
1752.36	1.2396
1752.62	3.14938
1752.88	0.284531
1753.13	2.19379
1753.39	-3.53345
1753.64	0.286121
1753.9	-1.61951
1754.15	-3.52417
1754.41	5.06078
1754.67	-4.47584
1754.92	5.06238
1755.18	1.25266
1755.43	-4.46127
1755.69	-8.26818
1755.95	1.26481
1756.2	-1.59305
1756.46	-1.59369
1756.71	-0.643265
1756.97	1.25592
1757.23	-3.50714
1757.48	-3.50941
1757.74	3.15427
1757.99	0.305408
1758.25	-1.58306
1758.5	-1.55855
1758.76	4.16562
1759.02	-2.48323
1759.27	2.28577
1759.53	2.2971
1759.78	0.40712
1760.04	-1.48631
1760.3	0.423931
1760.55	-0.521133
1760.81	1.38763
1761.06	-6.21767
1761.32	-1.45829
1761.57	-0.506241
1761.83	3.29888
1762.08	3.30302
1762.34	-1.44329
1762.6	-1.43465
1762.85	1.43583
1763.11	-1.40065
1763.36	-0.438343
1763.62	-2.33162
1763.87	4.33613
1764.13	-2.30603
1764.38	0.56213
1764.64	-2.27105
1764.89	2.51422
1765.15	-4.12961
1765.4	2.5495
1765.66	1.61267
1765.92	-2.1818
1766.17	-4.07404
1766.43	-0.255379
1766.68	-4.05492
1766.94	-1.19234
1767.19	0.71841
1767.45	-0.224098
1767.7	-1.16973
1767.96	7.39915
1768.21	-4.96921
1768.47	-0.206978
1768.73	3.60443
1768.98	2.6594
1769.24	-4.95855
1769.49	0.729893
1769.75	-0.235004
1770	-4.03961
1770.26	-3.07888
1770.51	0.740845
1770.77	3.61303
1771.02	-0.17643
1771.28	-2.06343
1771.53	0.809929
1771.79	-3.91654
1772.04	-1.04852
1772.3	-1.03619
1772.55	0.883549
1772.81	0.903198
1773.06	-0.0310402
1773.32	3.79078
1773.57	1.90316
1773.83	-0.937397
1774.08	1.93232
1774.34	5.75375
1774.59	-1.84975
1774.85	2.92237
1775.1	-3.72653
1775.36	-2.76128
1775.61	-0.838795
1775.87	-3.66684
1776.12	1.11986
1776.38	0.182266
1776.63	0.193508
1776.89	-4.56589
1777.14	2.11027
1777.4	2.11098
1777.65	-0.743877
1777.91	-0.742939
1778.16	1.16308
1778.42	0.210842
1778.67	2.11591
1778.93	3.06657
1779.18	-5.50374
1779.44	-5.50637
1779.69	0.203976
1779.95	1.16359
1780.2	4.99318
1780.46	0.247425
1780.71	-0.691917
1780.97	5.98423
1781.22	3.14264
1781.47	0.296631
1781.73	-2.5485
1781.98	-3.48777
1782.24	-1.56837
1782.49	2.25751
1782.75	2.278
1783	-7.23372
1783.26	1.35606
1783.51	-2.44205
1783.77	-3.38074
1784.02	0.446812
1784.28	-1.44452
1784.53	4.29416
1784.79	1.4543
1785.04	-2.34571
1785.29	2.43709
1785.55	5.3079
1785.8	0.543194
1786.06	3.40854
1786.31	-4.21947
1786.57	-0.394863
1786.82	-0.382549
1787.08	1.54158
1787.33	0.605919
1787.58	-1.28191
1787.84	-1.25639
1788.09	1.64622
1788.35	1.68578
1788.6	0.768185
1788.86	-3.03234
1789.11	-1.10187
1789.37	0.832298
1789.62	-0.099678
1789.87	-0.0797997
1790.13	-4.85781
1790.38	3.78242
1790.64	2.83836
1790.89	-1.94672
1791.15	5.72808
1791.4	1.89022
1791.65	-2.92123
1791.91	-3.87514
1792.16	-0.0410881
1792.42	0.924801
1792.67	2.84987
1792.93	2.86021
1793.18	-0.957458
1793.43	-1.90406
1793.69	2.89471
1793.94	-1.88756
1794.2	1.00033
1794.45	-1.86507
1794.7	4.84886
1794.96	5.80629
1795.21	-0.879837
1795.47	-1.79588
1795.72	3.03268
1795.97	2.0931
1796.23	0.188046
1796.48	0.203754
1796.74	-3.62174
1796.99	0.23624
1797.25	-1.66877
1797.5	1.22965
1797.75	1.24437
1798.01	-2.58747
1798.26	2.23135
1798.51	3.20425
1798.77	3.21408
1799.02	4.18282
1799.28	5.14821
1799.53	-1.58071
1799.78	2.2639
1800.04	-0.622414
1800.29	-1.58517
1800.55	4.17946
1800.8	-2.54474
1801.05	1.30004
1801.31	1.30353
1801.56	2.26884
1801.81	-2.52736
1802.07	1.32268
1802.32	0.371597
1802.58	0.382397
1802.83	2.31649
1803.08	1.36988
1803.34	4.26921
1803.59	-2.44362
1803.84	2.37819
1804.1	2.38873
1804.35	4.32088
1804.61	1.44777
1804.86	2.4248
1805.11	2.43981
1805.37	-1.39327
1805.62	2.47474
1805.87	2.49255
1806.13	0.582523
1806.38	3.48669
1806.64	0.60976
1806.89	5.44007
1807.14	3.52274
1807.4	-0.325138
1807.65	1.60839
1807.9	0.650185
1808.16	0.656143
1808.41	-5.12077
1808.66	1.63263
1808.92	4.53113
1809.17	6.46616
1809.42	4.54549
1809.68	3.58841
1809.93	0.703503
1810.18	-0.253551
1810.44	1.68138
1810.69	10.3644
1810.94	1.68947
1811.2	2.65605
1811.45	1.69612
1811.7	-2.15631
1811.96	-2.15213
1812.21	0.745232
1812.46	-4.06831
1812.72	5.58318
1812.97	4.63083
1813.22	-0.178127
1813.48	1.76251
1813.73	-2.08905
1813.98	3.71106
1814.24	-1.09885
1814.49	2.77924
1814.74	0.866066
1815	-0.0799484
1815.25	-3.93139
1815.5	5.74287
1815.76	-0.0470352
1816.01	0.926044
1816.26	3.83196
1816.52	6.73845
1816.77	-4.85374
1817.02	0.953548
1817.27	0.954704
1817.53	1.91829
1817.78	3.83172
1818.03	1.88713
1818.29	0.927437
1818.54	-5.82229
1818.79	1.92241
1819.05	1.93369
1819.3	1.93482
1819.55	0.00902939
1819.8	3.88439
1820.06	-3.83966
1820.31	1.00155
1820.56	2.94428
1820.82	1.9873
1821.07	0.0616341
1821.32	-5.7342
1821.58	7.81792
1821.83	1.057
1822.08	1.06695
1822.33	3.97902
1822.59	3.98674
1822.84	-1.81463
1823.09	-0.841129
1823.34	2.06826
1823.6	2.07021
1823.85	1.10092
1824.1	1.09892
1824.36	-0.835342
1824.61	3.0428
1824.86	4.98595
1825.11	7.89745
1825.37	0.159569
1825.62	2.10381
1825.87	3.07828
1826.12	5.01857
1826.38	1.14697
1826.63	3.08718
1826.88	0.185387
1827.14	2.12579
1827.39	1.1625
1827.64	1.16922
1827.89	1.17663
1828.15	1.18345
1828.4	3.12359
1828.65	-0.751904
1828.9	6.99584
1829.16	-4.63356
1829.41	5.04994
1829.66	2.14425
1829.91	-1.72981
1830.17	-2.6991
1830.42	-1.73423
1830.67	9.88097
1830.92	5.03608
1831.18	7.9422
1831.43	3.10859
1831.68	4.08512
1831.93	6.03055
1832.19	5.06995
1832.44	7.01537
1832.69	6.05531
1832.94	5.09803
1833.2	2.19884
1833.45	6.07806
1833.7	-0.704712
1833.95	0.269989
1834.2	5.12043
1834.46	4.15539
1834.71	3.17409
1834.96	0.242741
1835.21	0.22065
1835.47	2.13572
1835.72	-2.71556
1835.97	5.97881
1836.22	4.04422
1836.48	4.03325
1836.73	5.2084
1836.98	4.23156
1837.23	4.16429
1837.48	-0.704731
1837.74	4.10551
1837.99	-1.73234
1838.24	7.89121
1838.49	4.95964
1838.74	0.122879
1839	4.07165
1839.25	4.10826
1839.5	-0.717091
1839.75	7.04122
1840	2.20291
1840.26	3.18427
1840.51	-3.64035
1840.76	1.16878
1841.01	4.0421
1841.27	0.149635
1841.52	3.99257
1841.77	2.03822
1842.02	5.88018
1842.27	3.93058
1842.53	-0.910694
1842.78	1.00271
1843.03	0.0457802
1843.28	6.79226
1843.53	2.93909
1843.78	2.93765
1844.04	0.0430603
1844.29	1.0019
1844.54	5.82339
1844.79	1.97042
1845.04	2.93515
1845.3	2.92606
1845.55	4.85609
1845.8	4.85547
1846.05	-4.7742
1846.3	2.96595
1846.55	5.88148
1846.81	0.118103
1847.06	7.81856
1847.31	0.0234833
1847.56	1.87018
1847.81	-2.96004
1848.07	2.81504
1848.32	4.76449
1848.57	4.78667
1848.82	10.5373
1849.07	5.70654
1849.32	5.70648
1849.57	1.84397
1849.83	3.75317
1850.08	2.77364
1850.33	5.64274
1850.58	5.62141
1850.83	2.72075
1851.09	10.3932
1851.34	-0.188663
1851.59	5.56363
1851.84	2.67281
1852.09	4.5862
1852.34	8.42252
1852.59	2.65839
1852.84	6.49714
1853.1	2.65369
1853.35	6.49072
1853.6	-0.236111
1853.85	2.63647
1854.1	-0.25518
1854.35	6.44659
1854.6	7.38615
1854.86	6.40923
1855.11	1.60401
1855.36	4.47013
1855.61	-0.3396
1855.86	2.51688
1856.11	2.50487
1856.36	1.53968
1856.61	2.49202
1856.87	7.27809
1857.12	1.52783
1857.37	3.43814
1857.62	4.3883
1857.87	1.50639
1858.12	6.2846
1858.37	2.44387
1858.63	4.34496
1858.88	9.1146
1859.13	8.14165
1859.38	6.21204
1859.63	4.2827
1859.88	7.13838
1860.13	6.1775
1860.38	4.26208
1860.63	4.26155
1860.89	8.09248
1861.14	4.27247
1861.39	2.36297
1861.64	10.0225
1861.89	7.15683
1862.14	6.1988
1862.39	7.14906
1862.64	8.09383
1862.9	4.25175
1863.15	6.14839
1863.4	3.26335
1863.65	6.11551
1863.9	4.18856
1864.15	11.8187
1864.4	7.9823
1864.65	7.96839
1864.9	10.8193
1865.15	3.16447
1865.4	9.82937
1865.66	3.12797
1865.91	5.96881
1866.16	3.08337
1866.41	1.1516
1866.66	8.74893
1866.91	8.7211
1867.16	6.78926
1867.41	6.76262
1867.66	3.88392
1867.91	7.6681
1868.16	11.457
1868.41	3.83981
1868.67	4.78193
1868.92	9.53099
1869.17	5.72602
1869.42	4.7697
1869.67	2.86051
1869.92	9.50634
1870.17	5.69565
1870.42	11.3906
1870.67	6.63011
1870.92	5.67214
1871.17	10.4174
1871.42	5.65911
1871.67	3.74918
1871.92	3.73788
1872.17	8.47392
1872.42	5.61184
1872.68	4.65108
1872.93	7.48494
1873.18	8.41759
1873.43	8.40429
1873.68	9.34525
1873.93	7.43639
1874.18	10.2702
1874.43	8.35562
1874.68	4.54249
1874.93	8.31762
1875.18	4.50449
1875.43	13.9641
1875.68	11.0978
1875.93	12.0183
1876.18	9.13904
1876.43	8.1657
1876.68	7.19638
1876.93	14.7448
1877.18	9.05458
1877.43	7.12955
1877.68	3.31128
1877.93	12.685
1878.18	8.94874
1878.44	8.19622
1878.69	8.11311
1878.93	6.18946
1879.19	9.01416
1879.44	13.7952
1879.69	12.8689
1879.94	10.9496
1880.19	10.9252
1880.44	12.809
1880.69	10.9045
1880.94	10.9105
1881.19	8.99699
1881.44	5.2003
1881.69	6.11789
1881.94	11.7596
1882.19	16.4499
1882.44	11.6845
1882.69	12.5877
1882.94	9.70799
1883.19	6.8544
1883.44	11.5214
1883.69	14.7476
1883.94	9.74943
1884.19	13.3638
1884.44	7.70624
1884.69	11.5032
1884.94	11.4645
1885.19	12.4216
1885.44	11.5012
1885.69	12.4453
1885.94	8.67065
1886.19	17.187
1886.44	12.4727
1886.69	13.4186
1886.94	10.5715
1887.19	14.3153
1887.44	8.63094
1887.69	3.89216
1887.94	12.3616
1888.19	10.4521
1888.44	10.4277
1888.69	11.3394
1888.94	16.9636
1889.19	10.3423
1889.44	14.0823
1889.69	15.0051
1889.94	8.40514
1890.19	12.1593
1890.44	8.39088
1890.69	12.1615
1890.94	14.0504
1891.19	10.2785
1891.43	8.38411
1891.68	7.42866
1891.94	10.2443
1892.18	12.1153
1892.43	17.7534
1892.68	6.44275
1892.93	7.36775
1893.18	9.23023
1893.43	8.26023
1893.68	11.0418
1893.93	11.9445
1894.18	18.5074
1894.43	10.9889
1894.68	13.7777
1894.93	6.24166
1895.18	11.8651
1895.43	11.8577
1895.68	9.97392
1895.93	10.9103
1896.18	9.02845
1896.43	10.9063
1896.68	13.7267
1896.93	10.9086
1897.18	9.02851
1897.42	16.5507
1897.68	13.7255
1897.92	8.07495
1898.17	10.8872
1898.42	10.8742
1898.67	9.91736
1898.92	7.07681
1899.17	9.8752
1899.42	8.91104
1899.67	7.01118
1899.92	10.7542
1900.17	15.4345
1900.42	8.84111
1900.67	16.3442
1900.92	9.76075
1901.16	13.5147
1901.41	8.81677
1901.66	10.6983
1901.91	7.87963
1902.16	3.17982
1902.41	6.00316
1902.66	4.12334
1902.91	11.6393
1903.16	8.8024
1903.41	12.5485
1903.66	8.76955
1903.91	8.75441
1904.16	8.74053
1904.41	17.1895
1904.65	16.2371
1904.9	16.2245
1905.15	11.5102
1905.4	3.97694
1905.65	8.66608
1905.9	10.5325
1906.15	12.3852
1906.4	9.53579
1906.65	13.2746
1906.9	11.3785
1907.14	8.54461
1907.39	10.408
1907.64	4.76376
1907.89	7.5735
1908.14	2.87391
1908.39	4.75154
1908.64	6.62413
1908.89	9.43514
1909.14	10.37
1909.39	4.72961
1909.63	9.4294
1909.88	17.8952
1910.13	7.55822
1910.38	7.5656
1910.63	10.3976
1910.88	10.4046
1911.13	11.3485
1911.38	7.57941
1911.62	9.45777
1911.87	7.56504
1912.12	5.66955
1912.37	2.82896
1912.62	4.69802
1912.87	2.80198
1913.12	9.38354
1913.37	6.54694
1913.61	6.53762
1913.86	0.882416
1914.11	5.59667
1914.36	3.71703
1914.61	7.48905
1914.86	2.77398
1915.11	7.48985
1915.36	4.65902
1915.6	11.2602
1915.85	4.64675
1916.1	8.40846
1916.35	8.39225
1916.6	5.54715
1916.85	11.1881
1917.1	11.1639
1917.34	5.48384
1917.59	9.23583
1917.84	10.161
1918.09	10.1458
1918.34	5.42181
1918.59	9.18909
1918.83	6.36073
1919.08	14.8538
1919.33	8.25544
1919.58	4.48592
1919.83	8.27339
1920.08	12.0603
1920.33	7.33551
1920.57	2.60147
1920.82	13.9215
1921.07	6.35459
1921.32	4.46629
1921.57	7.30435
1921.81	12.9741
1922.06	7.29658
1922.31	12.0183
1922.56	3.49434
1922.81	7.26091
1923.06	7.24022
1923.31	9.11089
1923.55	9.09313
1923.8	6.24048
1924.05	6.22311
1924.3	6.20312
1924.55	5.23621
1924.79	0.493469
1925.04	11.816
1925.29	11.8061
1925.54	8.96689
1925.79	4.24109
1926.04	10.8626
1926.28	8.02968
1926.53	7.08596
1926.78	5.19643
1927.03	9.9333
1927.28	2.35944
1927.52	12.7699
1927.77	8.97807
1928.02	6.1315
1928.27	4.2308
1928.52	9.90791
1928.76	9.89944
1929.01	7.99944
1929.26	9.88944
1929.51	7.04275
1929.76	5.14632
1930	4.20209
1930.25	5.15143
1930.5	5.15506
1930.75	3.25717
1931	11.8025
1931.24	7.99663
1931.49	7.03599
1931.74	7.96828
1931.99	8.89732
1932.24	13.6225
1932.48	5.05963
1932.73	8.83483
1932.98	6.91551
1933.23	5.95135
1933.47	10.674
1933.72	2.12688
1933.97	8.77105
1934.22	4.03921
1934.46	11.6609
1934.71	6.94717
1934.96	3.17507
1935.21	7.01027
1935.46	6.07854
1935.7	7.9994
1935.95	9.913
1936.2	3.18879
1936.45	6.02959
1936.69	10.778
1936.94	4.08703
1937.19	9.77908
1937.44	4.98915
1937.68	9.72617
1937.93	7.79644
1938.18	11.5804
1938.43	2.98932
1938.68	6.78243
1938.92	7.74063
1939.17	9.63845
1939.42	5.82491
1939.67	8.67821
1939.91	2.95679
1940.16	5.81032
1940.41	0.0823669
1940.66	5.79922
1940.9	0.0796051
1941.15	3.91441
1941.4	10.6015
1941.64	8.67947
1941.89	7.70437
1942.14	7.67062
1942.39	7.623
1942.63	1.90856
1942.88	0.99287
1943.13	5.76537
1943.38	5.7541
1943.62	6.67284
1943.87	2.81782
1944.12	1.83251
1944.37	7.57759
1944.61	4.71265
1944.86	0.891304
1945.11	6.61928
1945.35	6.61955
1945.6	9.48622
1945.85	3.75282
1946.1	-1.02865
1946.34	2.79123
1946.59	4.69803
1946.84	9.47235
1947.09	3.72365
1947.33	1.796
1947.58	-0.13475
1947.83	2.71516
1948.07	5.56887
1948.32	-1.13884
1948.57	2.67187
1948.82	0.741615
1949.06	4.55514
1949.31	3.59479
1949.56	0.722088
1949.8	1.67584
1950.05	2.63206
1950.3	0.717472
1950.54	9.34418
1950.79	7.44124
1951.04	1.69687
1951.29	6.49746
1951.53	-0.207993
1951.78	2.67598
1952.03	1.71822
1952.27	7.47532
1952.52	1.7086
1952.77	8.42609
1953.01	1.68719
1953.26	5.52509
1953.51	4.56446
1953.76	4.53545
1954	3.54079
1954.25	2.53292
1954.49	0.571617
1954.74	1.48954
1954.99	1.45209
1955.24	4.3048
1955.48	1.41508
1955.73	6.19769
1955.98	10.0323
1956.22	6.20936
1956.47	2.39746
1956.72	1.43864
1956.96	1.44144
1957.21	-0.483971
1957.46	4.31589
1957.7	-1.45038
1957.95	4.30984
1958.2	3.3428
1958.44	-1.47105
1958.69	-4.36494
1958.94	0.429436
1959.18	-2.47209
1959.43	6.15321
1959.68	-2.51408
1959.92	2.27424
1960.17	5.13416
1960.42	3.19036
1960.66	2.20785
1960.91	1.22477
1961.16	-0.719101
1961.4	-1.70183
1961.65	3.07539
1961.9	-0.782646
1962.14	1.12436
1962.39	-0.806213
1962.63	-2.73785
1962.88	1.08949
1963.13	0.117825
1963.37	2.02561
1963.62	8.73315
1963.87	3.92133
1964.11	-0.890167
1964.36	5.82306
1964.61	-1.86694
1964.85	3.87971
1965.1	3.86145
1965.35	0.00763702
1965.59	4.79265
1965.84	-4.8223
1966.08	2.85072
1966.33	2.84698
1966.58	6.68787
1966.82	1.88196
1967.07	3.79834
1967.32	0.907608
1967.56	2.81441
1967.81	2.80079
1968.05	2.79154
1968.3	2.77958
1968.55	-3.00031
1968.79	1.79149
1969.04	4.65649
1969.29	1.74933
1969.53	0.761467
1969.78	4.5734
1970.02	5.50207
1970.27	0.67329
1970.52	4.48792
1970.76	-0.332516
1971.01	4.44238
1971.25	0.582424
1971.5	0.562454
1971.75	1.50264
1971.99	1.48448
1972.24	-1.40329
1972.48	-0.453259
1972.73	2.41347
1972.98	-8.154
1973.22	1.42095
1973.47	0.439117
1973.71	-0.545231
1973.96	-4.40343
1974.21	1.32793
1974.45	4.18506
1974.7	-2.54056
1974.94	3.1967
1975.19	4.14327
1975.44	5.09247
1975.68	-0.666706
1975.93	0.285931
1976.17	3.15597
1976.42	2.18853
1976.66	-0.69957
1976.91	4.08457
1977.16	5.03014
1977.4	0.218418
1977.65	0.20105
1977.89	-1.73687
1978.14	-4.63522
1978.39	3.01326
1978.63	-1.80121
1978.88	5.84776
1979.12	-0.879108
1979.37	1.98232
1979.61	1.01162
1979.86	6.74911
1980.1	1.94481
1980.35	1.93176
1980.6	-4.79668
1980.84	-2.90221
1981.09	-1.96614
1981.33	1.84808
1981.58	6.61644
1981.82	-0.108791
1982.07	-1.08392
1982.31	-0.141796
1982.56	-0.157684
1982.81	3.65071
1983.05	1.71282
1983.3	0.729279
1983.54	0.700123
1983.79	2.58834
1984.03	-0.300663
1984.28	1.59496
1984.52	0.619556
1984.77	5.38216
1985.02	0.582092
1985.26	2.47185
1985.51	1.48808
1985.75	6.24656
1986	1.45422
1986.24	0.487919
1986.49	-0.474564
1986.73	-0.479652
1986.98	2.37958
1987.22	2.36389
1987.47	1.39796
1987.71	0.419117
1987.96	-4.389
1988.21	-0.596401
1988.45	-2.53962
1988.7	1.24392
1988.94	0.267361
1989.19	-3.56312
1989.43	-0.873676
1989.68	3.70647
1989.92	-2.55529
1990.17	5.51252
1990.41	0.78878
1990.66	0.769836
1990.9	-0.425617
1991.15	-0.571346
1991.39	-4.25907
1991.64	-3.84654
1991.88	0.645283
1992.13	-0.914913
1992.37	0.455769
1992.62	-1.43818
1992.86	1.5919
1993.11	-2.33413
1993.35	-1.55291
1993.6	-0.985813
1993.84	2.83238
1994.09	-1.92456
1994.33	-2.34166
1994.58	0.12244
1994.82	-2.61632
1995.07	2.60828
1995.31	-0.713165
1995.56	-0.502819
1995.8	-3.83547
1996.05	3.05039
1996.29	-1.46904
1996.54	-2.42239
1996.78	-1.33947
1997.03	1.01892
1997.27	-3.03141
1997.52	-0.487751
1997.76	-1.4227
1998.01	-0.752392
1998.25	-1.55028
1998.5	-2.08447
1998.74	4.4348
1998.99	2.41333
1999.23	-2.58559
1999.48	0.590717
1999.72	4.91246
1999.97	0.799961
2000.21	1.9947
2000.46	-1.29923
2000.7	0.669094
2000.95	-0.139248
2001.19	-1.85761
2001.43	0.586945
2001.68	-1.44055
2001.92	-1.9434
2002.17	1.32195
2002.41	2.27304
2002.66	-1.53931
2002.9	-1.29899
2003.15	0.93095
2003.39	5.68022
2003.64	1.82
2003.88	-0.852047
2004.13	-1.08591
2004.37	-0.920811
2004.61	-1.89703
2004.86	-1.3181
2005.1	-2.97107
2005.35	-2.49057
2005.59	0.254078
2005.84	0.306572
2006.08	3.76619
2006.33	3.30725
2006.57	-0.979862
2006.81	-1.40569
2007.06	0.615337
2007.3	-1.44773
2007.55	-1.54317
2007.79	-1.15651
2008.04	-0.022049
2008.28	-2.54038
2008.53	-1.312
2008.77	-4.53598
2009.01	-0.59198
2009.26	-0.0866585
2009.5	5.22799
2009.75	-0.833233
2009.99	-3.49004
2010.24	-2.30602
2010.48	-1.23629
2010.73	4.29661
2010.97	-0.300625
2011.21	-0.709293
2011.46	-2.20179
2011.7	5.7168
2011.95	-0.296608
2012.19	1.41257
2012.43	-1.28971
2012.68	3.40419
2012.92	-3.20071
2013.17	-4.16184
2013.42	-1.36473
2013.67	6.1255
2013.91	4.21876
2014.16	-6.15033
2014.41	0.397022
2014.66	-2.45648
2014.9	4.08151
2015.15	0.310703
2015.4	5.93388
2015.64	-3.45475
2015.89	-1.57917
2016.14	-3.46117
2016.39	4.9732
2016.63	-2.53518
2016.88	-1.57055
2017.13	-2.51333
2017.37	0.293461
2017.62	-6.30188
2017.87	-1.62443
2018.11	-1.64903
2018.36	0.200264
2018.61	-0.768658
2018.86	2.01785
2019.1	0.113663
2019.35	1.02144
2019.6	0.993202
2019.84	2.84737
2020.09	-2.78997
2020.34	0.00661469
2020.58	3.74239
2020.83	3.73021
2021.08	2.78194
2021.33	0.902168
2021.57	-0.977497
2021.82	-1.92339
2022.07	6.49432
2022.31	-3.82221
2022.56	3.65291
2022.81	-5.72893
2023.05	0.802795
2023.3	-1.09244
2023.55	-0.1768
2023.8	1.6734
2024.04	-1.15263
2024.29	-0.23769
2024.54	1.61273
2024.78	6.2585
2025.03	-3.11115
2025.27	4.33414
2025.52	-1.29318
2025.77	-0.383698
2026.02	-3.2053
2026.26	0.499516
2026.51	3.2934
2026.76	-0.428089
2027	2.39527
2027.25	-4.1144
2027.5	0.59201
2027.74	3.41711
2027.99	-1.27707
2028.23	-0.382084
2028.48	-3.23944
2028.73	-1.51325
2028.98	-1.39264
2029.22	3.46502
2029.47	3.34851
2029.72	7.13564
2029.96	0.482445
2030.21	1.35194
2030.45	-6.17773
2030.7	2.20531
2030.95	-3.43803
2031.19	1.25029
2031.44	-8.05977
2031.69	0.322483
2031.93	-3.41816
2032.18	-2.49248
2032.43	3.11287
2032.67	-1.54654
2032.92	1.26477
2033.17	4.07622
2033.41	-1.52584
2033.66	2.21477
2033.91	0.351582
2034.15	2.22075
2034.4	1.25001
2034.64	1.20652
2034.89	1.14533
2035.14	-0.742359
2035.38	-1.663
2035.63	-0.721149
2035.87	4.90358
2036.12	0.261299
2036.37	-0.656429
2036.61	4.94479
2036.86	-1.63606
2037.11	1.16148
2037.35	-2.57455
2037.6	1.15686
2037.84	3.95107
2038.09	1.1327
2038.34	1.118
2038.58	2.97176
2038.83	-3.58654
2039.08	-1.73356
2039.32	1.05313
2039.57	2.90412
2039.81	-0.848804
2040.06	-0.867973
2040.31	0.0431938
2040.55	0.0211105
2040.8	-2.79884
2041.04	-0.0203667
2041.29	1.82611
2041.54	3.67357
2041.78	-4.72923
2042.03	-3.80782
2042.27	0.838196
2042.52	0.82412
2042.77	-1.98999
2043.01	0.793327
2043.26	-1.07815
2043.5	-4.80877
2043.75	-0.14402
2044	-2.92877
2044.24	0.814568
2044.49	-1.98414
2044.73	1.7374
2044.98	-1.08099
2045.23	-4.84031
2045.47	2.56255
2045.72	-3.90777
2045.96	4.49504
2046.21	-1.03907
2046.45	2.77769
2046.7	0.854309
2046.95	6.40125
2047.19	-0.182205
2047.44	-2.05444
2047.68	-0.210178
2047.93	1.60658
2048.17	-1.20864
2048.42	-4.94292
2048.67	2.51011
2048.91	-4.02015
2049.16	-3.09023
2049.4	-0.287155
2049.65	2.51502
2049.89	3.45621
2050.14	1.60185
2050.39	-3.99384
2050.63	-0.25153
2050.88	2.55186
2051.12	0.678848
2051.37	-1.2
2051.61	-0.28334
2051.86	3.42956
2052.11	-3.11425
2052.35	1.5484
2052.6	-0.318451
2052.84	1.5446
2053.09	1.54382
2053.33	-2.19156
2053.58	-3.12329
2053.82	-2.18327
2054.07	1.57337
2054.31	-0.294212
2054.56	-1.22981
2054.8	-4.97688
2055.05	-0.307678
2055.3	4.35976
2055.54	5.28426
2055.79	-5.02221
2056.03	-0.359337
2056.28	-1.30354
2056.52	5.22896
2056.77	-6.00117
2057.01	2.40149
2057.26	-1.34441
2057.5	1.4555
2057.75	-0.416718
2058	1.45282
2058.24	3.32443
2058.49	2.39086
2058.73	-1.34441
2058.98	0.531715
2059.22	2.40782
2059.47	-1.33461
2059.71	0.534172
2059.96	-1.34182
2060.2	-0.411083
2060.45	-2.29615
2060.69	-0.438171
2060.94	4.22916
2061.18	-2.32242
2061.43	-3.25783
2061.67	0.485527
2061.92	0.481411
2062.16	2.34874
2062.41	-1.40096
2062.65	6.08743
2062.9	3.27777
2063.14	3.27931
2063.39	1.40928
2063.63	7.03376
2063.88	-0.461395
2064.12	0.475235
2064.37	-3.27573
2064.61	1.40887
2064.86	4.2214
2065.1	3.28587
2065.35	-2.33467
2065.59	2.36496
2065.84	5.1891
2066.08	-2.31244
2066.33	-0.431042
2066.57	4.26495
2066.82	-1.37287
2067.06	0.504753
2067.31	-7.00934
2067.55	-1.37538
2067.8	1.44373
2068.04	-0.432709
2068.29	7.08665
2068.53	-1.37185
2068.78	5.20489
2069.02	1.44721
2069.27	3.32225
2069.51	2.36854
2069.76	-2.35128
2070	6.07509
2070.25	1.36384
2070.49	5.11996
2070.73	1.37949
2070.98	3.28074
2071.22	0.481674
2071.47	5.17493
2071.71	0.450954
2071.96	4.27043
2072.2	2.4041
2072.45	4.27795
2072.69	-2.32318
2072.94	3.31926
2073.18	0.484306
2073.43	0.478619
2073.67	-3.29567
2073.92	2.34999
2074.16	-1.41993
2074.4	2.34397
2074.65	0.461037
2074.89	-1.41843
2075.14	3.3003
2075.38	-0.456116
2075.63	1.44711
2075.87	-0.417019
2076.12	2.42742
2076.36	0.544159
2076.6	-1.34793
2076.85	-2.29517
2077.09	-3.24985
2077.34	-1.37766
2077.58	0.492611
2077.83	-3.30927
2078.07	0.451881
2078.31	0.4529
2078.56	8.0055
2078.8	-1.42852
2079.05	-3.31627
2079.29	3.29101
2079.54	5.18663
2079.78	3.31963
2080.03	-1.39705
2080.27	-3.28289
2080.51	1.44403
2080.76	4.28085
2081	-4.22851
2081.25	-2.34874
2081.49	0.477203
2081.74	2.36021
2081.98	-2.36953
2082.22	8.96087
2082.47	-0.487976
2082.71	4.2356
2082.96	-2.38116
2083.2	-1.44019
2083.45	1.38898
2083.69	0.436821
2083.93	-1.46012
2084.18	1.36979
2084.42	-4.30418
2084.67	-3.36471
2084.91	-3.36887
2085.15	3.24272
2085.4	5.12835
2085.64	-2.43681
2085.89	-1.49644
2086.13	-0.552711
2086.37	-1.48968
2086.62	0.412952
2086.86	1.36617
2087.11	3.25866
2087.35	4.2067
2087.59	3.26503
2087.84	5.15838
2088.08	1.36861
2088.32	3.25754
2088.57	2.30783
2088.81	-4.31969
2089.06	-8.10798
2089.3	4.19487
2089.54	0.412094
2089.79	-0.530628
2090.03	1.37272
2090.28	2.32036
2090.52	1.37124
2090.76	0.423096
2091.01	-0.524101
2091.25	7.05758
2091.5	-2.41728
2091.74	-3.3644
2091.98	6.12406
2092.23	0.446552
2092.47	-1.43844
2092.72	5.21604
2092.96	4.28219
2093.2	-2.35406
2093.45	-2.34612
2093.69	-3.28795
2093.93	-2.33022
2094.18	0.527065
2094.42	-1.36888
2094.66	8.13717
2094.91	1.47737
2095.15	-0.431057
2095.39	-1.38988
2095.64	2.39912
2095.88	4.28523
2096.13	-1.42825
2096.37	2.36179
2096.61	-7.14665
2096.86	4.24689
2097.1	2.34037
2097.34	0.429024
2097.59	2.31345
2097.83	0.399307
2098.07	1.33992
2098.32	0.383408
2098.56	0.376484
2098.8	4.16108
2099.05	2.2586
2099.29	0.35471
2099.53	-1.5508
2099.78	-1.55737
2100.02	3.18242
2100.27	4.12763
2100.51	6.02324
2100.75	6.9713
2101	-0.620579
2101.24	5.08449
2101.48	-0.606312
2101.73	-0.604065
2101.97	0.344791
2102.21	1.29042
2102.45	-3.46411
2102.7	-1.56839
2102.94	-0.625828
2103.18	4.10968
2103.43	2.19506
2103.67	7.88065
2103.92	-0.668709
2104.16	1.22265
2104.4	-2.57749
2104.64	4.06794
2104.89	-1.62441
2105.13	2.17758
2105.37	-1.61799
2105.62	-3.51309
2105.86	1.2446
2106.1	5.0522
2106.35	6.00494
2106.59	-1.59775
2106.83	7.90702
2107.08	3.15228
2107.32	4.10412
2107.56	-3.50441
2107.8	-0.661785
2108.05	-0.675751
2108.29	4.05822
2108.53	-1.66138
2108.78	2.11985
2109.02	2.10429
2109.26	-2.65155
2109.51	4.94262
2109.75	1.15426
2109.99	-2.63869
2110.23	4.00766
2110.48	2.10387
2110.72	3.04975
2110.96	4.94559
2111.21	3.99174
2111.45	1.13726
2111.69	-8.36958
2111.93	0.168491
2112.18	7.75666
2112.42	0.151997
2112.66	1.09739
2112.91	-4.59972
2113.15	-2.69908
2113.39	-2.69715
2113.63	0.161705
2113.88	1.11892
2114.12	2.07067
2114.36	-2.68869
2114.61	-3.64741
2114.85	0.148994
2115.09	-1.7533
2115.33	1.09521
2115.58	3.93947
2115.82	4.88097
2116.06	-0.828697
2116.31	2.01343
2116.55	2.94846
2116.79	-1.81488
2117.03	1.02552
2117.28	5.76701
2117.52	0.0631523
2117.76	2.9103
2118	1.95122
2118.25	1.93876
2118.49	1.92582
2118.73	0.95858
2118.97	0.938919
2119.22	-1.92261
2119.46	3.75249
2119.7	3.73674
2119.94	-2.91391
2120.19	4.65477
2120.43	-1.04282
2120.67	-0.101906
2120.91	4.63352
2121.16	-1.99493
2121.4	-1.04628
2121.64	0.857403
2121.88	-1.97819
2122.13	0.874588
2122.37	3.72787
2122.61	5.63227
2122.85	-0.0567932
2123.1	1.8447
2123.34	-1.00068
2123.58	-0.0509377
2123.82	-1.95152
2124.07	-1.9594
2124.31	1.8279
2124.55	-1.03239
2124.79	5.5921
2125.03	-0.125412
2125.28	3.63755
2125.52	-4.91914
2125.76	2.63843
2126	-0.223164
2126.25	5.43758
2126.49	-0.259815
2126.73	0.671421
2126.97	0.656311
2127.21	2.53251
2127.46	6.29951
2127.7	5.34489
2127.94	0.610703
2128.18	-2.23267
2128.43	0.594002
2128.67	2.47724
2128.91	-1.30752
2129.15	-4.14698
2129.39	2.46385
2129.64	-0.379963
2129.88	-6.05803
2130.12	8.11182
2130.36	-3.23521
2130.6	4.31756
2130.85	-6.08442
2131.09	-5.14811
2131.33	0.510235
2131.57	2.38757
2131.81	-0.458172
2132.06	-0.469433
2132.3	5.18655
2132.54	1.39977
2132.78	0.441364
2133.02	-5.23462
2133.27	-2.41225
2133.51	2.3011
2133.75	5.13038
2133.99	-2.42077
2134.23	4.1817
2134.48	-2.42588
2134.72	2.2906
2134.96	2.2852
2135.2	-1.49527
2135.44	-0.556976
2135.68	-0.563572
2135.93	-0.572762
2136.17	4.13125
2136.41	5.0531
2136.65	-3.45364
2136.89	4.0766
2137.14	-4.40947
2137.38	-5.35419
2137.62	2.18508
2137.86	-3.47032
2138.1	5.02427
2138.34	2.18678
2138.59	4.05263
2138.83	-2.56138
2139.07	-3.49896
2139.31	0.285145
2139.55	2.18005
2139.79	-2.56536
2140.03	2.12383
2140.28	-0.716595
2140.52	-0.728561
2140.76	2.08682
2141	3.01878
2141.24	0.184784
2141.49	3.0018
2141.73	-3.5939
2141.97	0.158432
2142.21	-0.798912
2142.45	-1.74884
2142.69	1.07107
2142.93	6.72643
2143.18	-5.5097
2143.42	0.179424
2143.66	-1.72981
2143.9	-2.80135
2144.14	4.71159
2144.38	-2.80047
2144.62	4.73437
2144.87	-6.53605
2145.11	-2.76812
2145.35	-1.86089
2145.59	0.959938
2145.83	1.89857
2146.07	1.89134
2146.31	1.8826
2146.55	-3.76667
2146.8	4.68512
2147.04	-0.023304
2147.28	-0.972557
2147.52	3.71441
2147.76	1.82349
2148	2.75195
2148.24	3.68127
2148.48	-2.90423
2148.73	0.842228
2148.97	-2.9251
2149.21	-1.05925
2149.45	-0.135456
2149.69	3.60155
2149.93	0.759541
2150.17	-1.13278
2150.42	-3.02639
2150.66	-0.228546
2150.9	1.63636
2151.14	1.63106
2151.38	2.56873
2151.62	-0.238815
2151.86	-2.11293
2152.1	0.704014
2152.34	-0.234425
2152.58	-1.16921
2152.83	3.50789
2153.07	-7.75685
2153.31	0.668282
2153.55	-4.03192
2153.79	1.58341
2154.03	-3.11208
2154.27	-4.06187
2154.51	-2.20462
2154.75	0.583191
2154.99	0.555988
2155.24	-2.27695
2155.48	9.85472
2155.72	-1.38977
2155.96	-2.34431
2156.2	1.37619
2156.44	4.16425
2156.68	4.15384
2156.92	-0.523968
2157.16	-4.26628
2157.4	-2.40226
2157.64	2.2681
2157.89	1.33696
2158.13	-2.39555
2158.37	-2.39189
2158.61	-4.26367
2158.85	3.20927
2159.09	-3.34054
2159.33	-1.48018
2159.57	-2.42572
2159.81	1.29882
2160.05	-3.38741
2160.29	-7.13981
2160.53	-1.55389
2160.77	-5.30369
2161.01	-1.58453
2161.25	-1.59479
2161.5	3.06345
2161.74	-2.54468
2161.98	2.11066
2162.22	3.03691
2162.46	5.83089
2162.7	3.02772
2162.94	2.08924
2163.18	-5.3829
2163.42	3.93318
2163.66	-3.53863
2163.9	-3.54836
2164.14	0.171139
2164.38	3.88931
2164.62	-1.72026
2164.86	1.98892
2165.11	4.77031
2165.35	0.109268
2165.59	2.90533
2165.83	-5.48523
2166.07	1.03373
2166.31	-0.834164
2166.55	-4.57207
2166.79	1.93949
2167.03	-0.868076
2167.27	1.91064
2167.51	1.8977
2167.75	1.88007
2167.99	-2.79469
2168.23	-2.82409
2168.47	4.58733
2168.71	2.71403
2168.95	-1.94037
2169.19	-0.0828819
2169.43	0.849251
2169.67	-1.0046
2169.91	-0.0644646
2170.15	-0.981556
2170.39	-1.89716
2170.63	-1.89046
2170.87	1.83434
2171.11	-0.036808
2171.35	0.878826
2171.59	0.869038
2171.83	3.6341
2172.07	-1.0605
2172.31	-4.80311
2172.56	3.54734
2172.79	1.67404
2173.04	-6.70052
2173.28	1.65505
2173.51	2.5783
2173.76	-3.00191
2174	2.57158
2174.24	-3.00182
2174.48	0.715302
2174.72	-3.93421
2174.96	2.56728
2175.2	0.703014
2175.44	-2.09121
2175.68	1.61773
2175.92	4.39698
2176.16	-2.11482
2176.4	-0.264175
2176.64	0.65546
2176.88	4.35775
2177.12	2.49117
2177.36	-4.01627
2177.6	-4.02005
2177.84	-2.16636
2178.08	0.614258
2178.32	0.611183
2178.55	-4.04359
2178.8	4.29575
2179.03	3.35058
2179.28	-3.15517
2179.52	-2.22962
2179.75	-6.87648
2180	-2.23865
2180.23	2.39851
2180.47	-0.392582
2180.71	-1.32785
2180.95	-6.9069
2181.19	-4.13003
2181.43	2.3617
2181.67	1.42471
2181.91	-6.94061
2182.15	5.11367
2182.39	1.39323
2182.63	1.38086
2182.87	-4.19658
2183.11	3.21535
2183.35	2.2715
2183.59	-3.31045
2183.83	-0.549187
2184.07	2.21489
2184.31	1.27403
2184.55	-5.22539
2184.79	4.03249
2185.03	-3.38351
2185.27	-1.53062
2185.51	1.24823
2185.75	0.320343
2185.99	1.24858
2186.23	5.88794
2186.47	-0.597481
2186.7	2.18884
2186.95	0.343956
2187.18	-0.573158
2187.42	-0.562832
2187.66	3.16135
2187.9	-5.19047
2188.14	3.1661
2188.38	2.22595
2188.62	-2.43188
2188.86	-0.590496
2189.1	-3.39185
2189.34	1.2304
2189.58	3.06526
2189.82	-4.37794
2190.06	3.94718
2190.3	3.00711
2190.54	4.85322
2190.78	-1.63989
2191.01	-7.20335
2191.25	0.212307
2191.49	6.69696
2191.73	0.20451
2191.97	-1.65104
2192.21	1.13036
2192.45	-8.14503
2192.69	-2.58149
2192.93	3.91117
2193.17	-0.723663
2193.41	-8.14367
2193.65	-1.64486
2193.89	1.14636
2194.13	2.09313
2194.36	2.11465
2194.6	3.05683
2194.84	0.272404
2195.08	-3.45459
2195.32	-0.677467
2195.56	7.67653
2195.8	0.227024
2196.04	2.99712
2196.28	2.04665
2196.52	-0.763844
2196.76	3.85461
2197	-6.37297
2197.23	-0.820827
2197.47	-1.76294
2197.71	1.9338
2197.95	-6.41911
2198.19	5.6348
2198.43	-3.64091
2198.67	1.00491
2198.91	-3.62737
2199.15	5.66605
2199.38	-1.74876
2199.62	1.0479
2199.86	4.77776
2200.1	2.0027
2200.34	9.46481
2200.58	1.11782
2200.82	0.206871
2201.06	-1.63952
2201.3	-3.49303
2201.54	7.69714
2201.77	0.213524
2202.01	-0.778008
2202.25	2.81829
2202.49	0.876877
2202.73	-0.0217018
2202.97	0.995667
2203.21	1.96333
2203.45	1.94193
2203.68	4.71402
2203.92	-2.68536
2204.16	1.20858
2204.4	-7.2572
2204.64	1.12526
2204.88	-6.33167
2205.12	-2.6421
2205.36	3.82428
2205.59	6.56394
2205.83	1.87535
2206.07	1.86128
2206.31	-0.00256729
2206.55	5.5839
2206.79	-3.71952
2207.03	2.76366
2207.26	4.62095
2207.5	2.76439
2207.74	-0.020752
2207.98	-0.945393
2208.22	-1.86999
2208.46	6.51125
2208.7	2.7947
2208.93	2.79942
2209.17	-3.71597
2209.41	-5.57881
2209.65	1.86905
2209.89	-0.930149
2210.13	3.71915
2210.36	3.71567
2210.6	2.78606
2210.84	2.78864
2211.08	-0.934738
2211.32	5.5916
2211.56	-1.8613
2211.8	3.73522
2212.03	1.87736
2212.27	-3.71197
2212.51	0.0211525
2212.75	4.68394
2212.99	0.0104141
2213.23	-1.86605
2213.46	3.71907
2213.7	2.77182
2213.94	0.891586
2214.18	-2.84038
2214.42	-3.76836
2214.66	-6.55202
2214.89	-8.40582
2215.13	-2.80588
2215.37	4.66115
2215.61	0.925171
2215.85	-0.0114632
2216.08	-0.949249
2216.32	2.78015
2216.56	5.57483
2216.8	1.83317
2217.04	-0.975693
2217.28	-1.91688
2217.51	-2.85606
2217.75	0.874821
2217.99	-0.995426
2218.23	-3.80206
2218.47	2.72742
2218.7	-2.87777
2218.94	1.79087
2219.18	0.859341
2219.42	2.7319
2219.66	1.80281
2219.9	-2.86835
2220.13	-2.86734
2220.37	8.3478
2220.61	2.73331
2220.85	-1.01289
2221.09	0.848869
2221.32	-0.0966034
2221.56	0.819397
2221.8	2.66717
2222.04	-0.152107
2222.27	-2.03501
2222.51	0.753456
2222.75	-3.9208
2222.99	2.61224
2223.23	-0.185913
2223.46	3.55207
2223.7	-2.98132
2223.94	-0.171757
2224.18	-0.161179
2224.42	-2.95412
2224.65	5.47096
2224.89	-1.0666
2225.13	-1.99562
2225.37	0.817627
2225.6	-0.109905
2225.84	4.58164
2226.08	-3.83855
2226.32	-4.76984
2226.56	-2.89055
2226.79	-1.01373
2227.03	5.55318
2227.27	2.74741
2227.51	-1.93646
2227.74	-0.997604
2227.98	-1.93692
2228.22	-0.0678673
2228.46	1.79823
2228.69	-1.96148
2228.93	0.842476
2229.17	-2.91563
2229.41	-0.111115
2229.64	4.57116
2229.88	-4.80038
2230.12	4.58652
2230.36	2.7196
2230.6	-1.96666
2230.83	-3.83858
2231.07	-1.01719
2231.31	-4.76635
2231.55	2.75325
2231.78	-1.93454
2232.02	8.40575
2232.26	3.71474
2232.5	-0.978352
2232.73	-0.972706
2232.97	3.73383
2233.21	0.918556
2233.45	0.923721
2233.68	0.929024
2233.92	-4.71157
2234.16	2.82008
2234.39	8.46954
2234.63	1.87261
2234.87	-0.960262
2235.11	-0.971489
2235.34	-3.80857
2235.58	-1.95017
2235.82	0.852642
2236.06	-1.03159
2236.29	-1.97445
2236.53	0.845154
2236.77	-0.0968475
2237	-1.98043
2237.24	-0.101006
2237.48	7.43412
2237.72	-2.90894
2237.95	1.81347
2238.19	-3.81848
2238.43	5.61838
2238.67	4.68811
2238.9	2.8138
2239.14	2.82681
2239.38	-1.8736
2239.61	-1.87444
2239.85	0.00325012
2240.09	-2.83829
2240.33	4.68669
2240.56	5.61066
2240.8	-0.999325
2241.04	-0.0377579
2241.27	3.75244
2241.51	-3.79607
2241.75	-2.85349
2241.99	1.86451
2242.22	-1.91098
2242.46	-0.0229988
2242.7	0.922707
2242.93	0.925472
2243.17	-2.85378
2243.41	-2.85999
2243.64	0.904621
2243.88	4.66727
2244.12	-4.77849
2244.36	-2.89669
2244.59	1.81957
2244.83	1.82417
2245.07	1.83683
2245.3	3.74504
2245.54	0.927746
2245.78	6.60771
2246.01	-0.00141907
2246.25	-0.939251
2246.49	0.959309
2246.72	-0.926853
2246.96	0.966682
2247.2	2.86368
2247.43	-2.80925
2247.67	5.71007
2247.91	-2.80912
2248.14	3.81168
2248.38	-1.87357
2248.62	2.8513
2248.85	2.84405
2249.09	0.944733
2249.33	0.937962
2249.56	-3.7988
2249.8	-0.00812912
2250.04	-6.63029
2250.27	2.83038
2250.51	0.926914
2250.75	-0.0335579
2250.98	2.7897
2251.22	-5.73943
2251.46	-1.96947
2251.69	-1.03496
2251.93	-0.0958939
2252.17	-3.87901
2252.4	-0.0944443
2252.64	-4.81784
2252.88	-0.0813637
2253.11	-1.01333
2253.35	-1.93417
2253.59	-3.81136
2253.82	0.937775
2254.06	0.947895
2254.3	2.8508
2254.53	1.91095
2254.77	-0.928883
2255.01	0.0173149
2255.24	0.957085
2255.48	4.74951
2255.72	0.954304
2255.95	-6.6322
2256.19	0.953011
2256.42	-0.937138
2256.66	0.967476
2256.9	-2.82074
2257.13	3.82757
2257.37	-0.910782
2257.61	2.8924
2257.84	-0.898983
2258.08	1.95295
2258.32	-5.64326
2258.55	3.85281
2258.79	-1.84418
2259.02	-4.69109
2259.26	-1.83658
2259.5	1.96939
2259.73	-0.87817
2259.97	-5.62759
2260.2	-4.67387
2260.44	-1.81937
2260.68	0.0847855
2260.91	1.98915
2261.15	1.04483
2261.39	0.109261
2261.62	2.97295
2261.86	4.87643
2262.1	0.120377
2262.33	0.122887
2262.57	-4.63294
2262.8	2.03494
2263.04	-1.76318
2263.28	-0.801022
2263.51	-0.788616
2263.75	0.178955
2263.98	-2.66311
2264.22	-1.69074
2264.46	-0.71841
2264.69	-0.701378
2264.93	4.08543
2265.16	1.23361
2265.4	-3.53145
2265.64	-0.65844
2265.87	-0.658268
2266.11	0.297619
2266.34	5.06766
2266.58	3.1429
2266.81	-0.691364
2267.05	1.20272
2267.29	-5.49145
2267.52	1.17813
2267.76	2.12244
2267.99	2.11202
2268.23	0.190639
2268.47	0.179935
2268.7	3.03575
2268.94	3.03644
2269.17	4.95059
2269.41	5.91614
2269.65	1.16057
2269.88	5.94757
2270.12	0.236595
2270.35	4.07502
2270.59	-1.63942
2270.82	5.05876
2271.06	-0.668587
2271.3	2.21007
2271.53	0.307339
2271.77	1.26981
2272	3.18971
2272.24	-1.58269
2272.47	1.29205
2272.71	1.2926
2272.95	-4.44576
2273.18	1.29699
2273.42	-3.48451
2273.65	4.1729
2273.89	3.21867
2274.12	-0.606689
2274.36	0.35273
2274.6	-3.47365
2274.83	-0.599785
2275.07	0.360146
2275.3	-1.55087
2275.54	-5.3777
2275.77	2.28489
2276.01	-4.41917
2276.24	-0.581532
2276.48	-1.52647
2276.72	1.36093
2276.95	2.33164
2277.18	-2.44921
2277.42	4.27358
2277.66	0.457073
2277.89	0.478035
2278.13	-2.37944
2278.36	-3.31699
2278.6	-1.38828
2278.83	-4.2654
2279.07	-4.26459
2279.3	-1.38496
2279.54	2.45338
2279.78	-4.27815
2280.01	-2.38111
2280.24	4.3204
2280.48	0.467766
2280.72	-2.42182
2280.95	-0.513901
2281.19	-0.521309
2281.42	2.34975
2281.66	-5.32507
2281.89	0.421364
2282.13	-7.24013
2282.36	-0.525703
2282.6	2.35918
2282.83	3.33033
2283.07	2.38573
2283.3	-3.3567
2283.54	0.497746
2283.77	0.520733
2284.01	1.50821
2284.24	-7.11559
2284.48	-0.361977
2284.71	-3.23131
2284.95	-5.1478
2285.19	-2.24895
2285.42	0.650906
2285.65	2.58109
2285.89	-0.303135
2286.12	0.648552
2286.36	-1.29494
2286.59	-0.333549
2286.83	0.633797
2287.06	0.644344
2287.3	-1.25317
2287.54	8.39839
2287.77	-1.22104
2288	-1.2136
2288.24	0.729603
2288.47	4.58065
2288.71	5.53653
2288.94	-0.249466
2289.18	4.55693
2289.41	3.57783
2289.65	2.59533
2289.88	5.46313
2290.12	3.5167
2290.35	1.58736
2290.59	5.42883
2290.82	-0.337055
2291.06	-1.29534
2291.29	-1.28546
2291.53	1.61612
2291.76	1.63713
2292	-2.19724
2292.23	-3.14846
2292.47	-1.21196
2292.7	-6.97674
2292.94	-1.18446
2293.17	2.68312
2293.41	-0.194992
2293.64	4.63391
2293.88	1.75155
2294.11	2.72109
2294.34	-0.172241
2294.58	-4.03111
2294.81	3.67167
2295.05	1.73624
2295.28	2.69386
2295.52	3.65148
2295.75	1.7197
2295.99	2.67719
2296.22	1.71016
2296.46	-1.18803
2296.69	1.6789
2296.93	6.48869
2297.16	2.64796
2297.39	-0.227989
2297.63	-1.17756
2297.86	-4.05067
2298.1	-2.10753
2298.33	-7.8666
2298.57	-5.92634
2298.8	-1.09803
2299.04	2.77118
2299.27	-0.103363
2299.51	1.84024
2299.74	-4.89849
2299.97	-1.03197
2300.21	-1.02976
2300.44	2.83218
2300.68	-0.06007
2300.91	-1.98004
2301.15	-2.93274
2301.38	-2.92291
2301.61	1.91203
2301.85	-0.0113449
2302.08	1.92366
2302.32	-1.9359
2302.55	-1.93745
2302.79	-3.86803
2303.02	-0.00296402
2303.25	-0.966049
2303.49	-0.965755
2303.72	5.79219
2303.96	0.971287
2304.19	-0.950195
2304.43	-0.937527
2304.66	1.97108
2304.89	-1.88162
2305.13	1.02687
2305.36	-1.85691
2305.6	-1.84737
2305.83	4.92188
2306.07	1.06541
2306.3	0.109772
2306.53	1.08663
2306.77	3.99233
2307	2.06399
2307.24	3.0334
2307.47	-0.831013
2307.7	2.06701
2307.94	2.06349
2308.17	3.99542
2308.41	-1.80349
2308.64	2.06016
2308.87	2.06376
2309.11	-1.79459
2309.34	-2.74922
2309.58	4.99532
2309.81	2.11386
2310.04	-4.63377
2310.28	0.217144
2310.51	7.9653
2310.75	4.10126
2310.98	3.13596
2311.21	1.19902
2311.45	-4.61268
2311.68	0.194927
2311.92	-3.70037
2312.15	0.14753
2312.38	3.03334
2312.62	0.13311
2312.85	3.02221
2313.08	1.08866
2313.32	0.126759
2313.55	0.13699
2313.79	4.98407
2314.02	-0.782898
2314.25	1.16887
2314.49	4.08804
2314.72	-0.722961
2314.95	6.06984
2315.19	2.22516
2315.42	0.303867
2315.66	-0.674141
2315.89	7.05186
2316.12	0.275707
2316.36	4.13072
2316.59	-3.62566
2316.82	1.19209
2317.06	2.15348
2317.29	-4.60306
2317.52	2.16271
2317.76	-3.62446
2317.99	-1.67519
2318.23	1.23642
2318.46	7.01593
2318.69	-1.68153
2318.93	-4.58153
2319.16	-1.68971
2319.39	4.09635
2319.63	0.230919
2319.86	3.12341
2320.09	5.0526
2320.33	9.88106
2320.56	5.06168
2320.79	5.06481
2321.03	11.8295
2321.26	9.91267
2321.5	1.23865
2321.73	1.25261
2321.96	0.302464
2322.2	6.11792
2322.43	4.20764
2322.66	10.0262
2322.9	8.10273
2323.13	4.23641
2323.36	7.14267
2323.6	7.15059
2323.83	5.22373
2324.06	12.9668
2324.3	10.0712
2324.53	3.30287
2324.76	13.9394
2325	15.8591
2325.23	15.8402
2325.46	12.9199
2325.7	20.6336
2325.93	25.4499
2326.16	26.4025
2326.4	32.1801
2326.63	35.0595
2326.86	44.6912
2327.09	57.2126
2327.33	63.9419
2327.56	85.1305
2327.79	125.603
2328.03	193.049
2328.26	272.056
2328.49	340.509
2328.73	378.106
2328.96	336.674
2329.19	252.757
2329.43	171.764
2329.66	111.984
2329.89	81.1496
2330.13	63.8095
2330.36	56.1214
2330.59	34.9253
2330.82	30.1043
2331.06	29.1354
2331.29	11.8002
2331.52	18.5481
2331.76	6.0388
2331.99	7.01395
2332.22	9.92137
2332.46	10.8685
2332.69	4.1147
2332.92	1.21841
2333.16	2.17491
2333.39	4.09415
2333.62	-0.725441
2333.85	4.08248
2334.09	6.00295
2334.32	0.221397
2334.55	-0.749161
2334.79	3.08532
2335.02	0.191982
2335.25	1.14864
2335.48	4.03226
2335.72	-2.70189
2335.95	5.95546
2336.18	-2.69553
2336.41	4.03496
2336.65	-4.62556
2336.88	6.90984
2337.11	-4.63099
2337.34	1.13581
2337.58	-1.75148
2337.81	-2.71542
2338.04	0.163731
2338.28	2.08191
2338.51	5.92362
2338.74	-2.73052
2338.97	5.91743
2339.21	2.07411
2339.44	2.07453
2339.67	2.07323
2339.91	0.147919
2340.14	-4.66339
2340.37	-2.74899
2340.6	1.08408
2340.84	1.0729
2341.07	5.86104
2341.3	5.84228
2341.53	-2.81807
2341.77	1.95774
2342	4.81692
2342.23	-1.90971
2342.46	0.955788
2342.7	-3.84911
2342.93	3.81182
2343.16	-1.94614
2343.39	-0.0329399
2343.63	1.8818
2343.86	-1.95831
2344.09	1.87037
2344.32	2.82626
2344.56	0.909401
2344.79	3.78363
2345.02	1.86085
2345.25	-1.98114
2345.49	-1.03239
2345.72	-2.962
2345.95	-0.105728
2346.18	1.79541
2346.41	-5.88169
2346.65	-4.9325
2346.88	-1.10989
2347.11	-1.11776
2347.34	-2.08527
2347.58	-4.96715
2347.81	4.60009
2348.04	2.68085
2348.27	2.67849
2348.5	-0.193542
2348.74	2.67765
2348.97	-1.1598
2349.2	-2.12906
2349.43	6.47237
2349.67	5.48232
2349.9	-0.290421
2350.13	-1.28123
2350.36	-3.2318
2350.59	7.22649
2350.83	1.41623
2351.06	-1.56585
2351.29	6.13522
2351.52	-4.18446
2351.75	-1.26841
2351.99	2.43495
2352.22	6.17952
2352.45	-3.36885
2352.68	-4.32641
2352.91	-1.50488
2353.15	-2.51653
2353.38	-3.51598
2353.61	-2.56036
2353.84	2.18771
2354.07	3.11861
2354.31	0.251179
2354.54	-3.57169
2354.77	-0.712223
2355	-0.710793
2355.23	-5.48856
2355.47	-2.64529
2355.7	-0.756588
2355.93	2.08379
2356.16	-4.60339
2356.39	2.9941
2356.63	-2.75015
2356.86	-1.83665
2357.09	-0.919216
2357.32	-3.79739
2357.55	-0.0166092
2357.79	0.91074
2358.02	-1.96393
2358.25	0.865173
2358.48	-2.00706
2358.71	3.67539
2358.94	-0.153404
2359.18	-0.174805
2359.41	-6.84455
2359.64	0.735519
2359.87	-2.13735
2360.1	2.58468
2360.33	0.656223
2360.57	3.4733
2360.8	3.442
2361.03	6.25665
2361.26	7.17243
2361.49	-1.39642
2361.72	-9.01335
2361.96	2.32988
2362.19	-7.18063
2362.42	1.31197
2362.65	3.17108
2362.88	2.19045
2363.11	-6.36214
2363.34	4.9663
2363.58	6.82832
2363.81	-1.71701
2364.04	2.03965
2364.27	2.01063
2364.5	2.92556
2364.73	-2.78073
2364.97	-4.70323
