#Acq. time (s)=	30
#Accumulations=	2
#Range (cm-¹)=	1200...2365
#Windows=	3
#Auto scanning=	Off
#Autofocus=	Off
#Macrospot=	Off
#AutoExposure=	Off
#Spike filter=	Multiple accum.
#Delay time (s)=	2
#Binning=	1
#Readout mode=	Signal
#DeNoise=	Off
#ICS correction=	On
#Dark correction=	Off
#Inst. Process=	Off
#Detector Gain=	Best Dynamic
#Detector ADC=	50 kHz HS
#Detector temperature (°C)=	-60.09
#Instrument=	LabRAM HR Evol
#Detector=	SIN-EM FIVIS
#Objective=	x100_VIS_LWD
#Grating=	1800 (450-850nm)
#ND Filter=	100%
#Laser=	532nm_Edge
#Hole=	49.98
#Temperature=	0
#Range=	Visible
#StageXY=	75x50mm Scan+
#StageZ=	Z motor
#X (µm)=	0
#Y (µm)=	0
#Z (µm)=	-17.2
#Full time(mm:ss)=	3:28
#Project=	21_11_26
#Sample=	BU02Aw
#Site=	
#Title=	BU02aW-A-FF1-FI05-V_1800 (450-850nm)_532nm_Edge_100%_x100_VIS_LWD_H50um_30sX2
#Remark=	
#Date=	26.11.2021 10:48
#Acquired=	26.11.2021 10:48:18
#Base:Fit=	16.12.2021 16:15:35
#Base:Fit=	16.12.2021 16:19:41
#Base:Sub=	16.12.2021 16:19:42
1202.72	-0.205326
1203	-3.35891
1203.28	-2.24615
1203.56	4.21747
1203.84	-1.16963
1204.11	-6.541
1204.39	0.993469
1204.67	-5.43394
1204.95	3.1906
1205.23	-0.0223923
1205.5	4.2806
1205.78	3.2079
1206.06	-0.0138092
1206.34	-0.0145264
1206.61	-0.0154915
1206.89	6.41502
1207.17	-1.09105
1207.45	1.05156
1207.73	-1.0863
1208	2.12967
1208.28	1.06506
1208.56	2.13904
1208.84	-1.07124
1209.11	2.13814
1209.39	-0.000728607
1209.67	0.0038414
1209.95	-1.05837
1210.23	1.0843
1210.5	3.22163
1210.78	-3.19827
1211.06	6.40632
1211.34	-3.21024
1211.61	-2.15039
1211.89	5.31218
1212.17	-0.0327148
1212.45	3.15504
1212.72	-0.0499992
1213	2.07282
1213.28	-1.13213
1213.56	5.25174
1213.83	-0.0765915
1214.11	-0.083847
1214.39	-3.27622
1214.67	8.43544
1214.94	-1.14709
1215.22	-2.21365
1215.5	3.10603
1215.78	0.97242
1216.05	-1.1625
1216.33	-0.110592
1216.61	-2.25478
1216.89	3.04329
1217.16	-0.165688
1217.44	0.880882
1217.72	-1.25986
1218	-1.27578
1218.27	-3.41367
1218.55	0.818439
1218.83	2.9262
1219.1	0.791775
1219.38	-3.46309
1219.66	3.95258
1219.94	-1.36538
1220.21	-1.3805
1220.49	2.85159
1220.77	3.90266
1221.04	0.708599
1221.32	-3.54743
1221.6	5.97867
1221.88	0.659561
1222.15	1.69733
1222.43	-0.44783
1222.71	-0.476112
1222.98	1.61051
1223.26	1.57999
1223.54	1.54995
1223.81	-3.76366
1224.09	-1.67534
1224.37	-1.7013
1224.65	0.38792
1224.92	-3.85646
1225.2	1.40252
1225.48	1.38647
1225.76	0.320152
1226.03	-1.8031
1226.31	-2.87035
1226.59	-1.83234
1226.86	0.260571
1227.14	-1.87403
1227.42	3.38053
1227.69	-0.876389
1227.97	1.18024
1228.25	-0.966244
1228.52	5.31196
1228.8	-3.15846
1229.08	-1.10011
1229.35	-7.42571
1229.63	-2.106
1229.91	-0.996307
1230.18	-4.21225
1230.46	2.05989
1230.74	3.08021
1231.01	-2.20157
1231.29	1.96957
1231.57	-3.37891
1231.84	5.01394
1232.12	0.789726
1232.4	2.86974
1232.67	-1.35806
1232.95	-4.53141
1233.23	-1.40224
1233.5	3.82581
1233.78	-0.39806
1234.06	-0.417263
1234.33	0.615311
1234.61	-4.65594
1234.89	-0.469395
1235.16	-3.6382
1235.44	0.547222
1235.71	-2.6249
1235.99	2.61393
1236.27	0.49213
1236.54	-5.83925
1236.82	-1.66037
1237.1	-0.637314
1237.37	0.383053
1237.65	1.39832
1237.93	0.31163
1238.2	4.4746
1238.48	3.38726
1238.76	0.202621
1239.03	1.21807
1239.31	-0.908871
1239.58	-0.937103
1239.86	7.42217
1240.14	1.10646
1240.41	-3.11106
1240.69	0.00981522
1240.97	-2.1092
1241.24	1.01381
1241.52	0.991673
1241.79	3.06089
1242.07	6.17384
1242.35	1.9534
1242.62	-0.16563
1242.9	1.90871
1243.18	-3.35038
1243.45	0.823265
1243.73	-3.39434
1244	4.96822
1244.28	-1.34309
1244.56	-1.36764
1244.83	-2.44238
1245.11	2.77081
1245.39	3.78585
1245.66	-0.439388
1245.94	-0.476295
1246.21	2.62801
1246.49	-4.72953
1246.76	-3.70962
1247.04	3.59348
1247.32	2.52176
1247.59	0.400917
1247.87	-1.71709
1248.14	2.44079
1248.42	6.58609
1248.7	2.36973
1248.97	2.34362
1249.25	5.45971
1249.52	0.209064
1249.8	1.22835
1250.08	-5.07228
1250.35	7.4548
1250.63	3.23858
1250.9	5.2949
1251.18	-3.10005
1251.45	2.09399
1251.73	4.15266
1252.01	6.21073
1252.28	-0.0875931
1252.56	-5.33927
1252.83	-3.28104
1253.11	5.03835
1253.39	2.9193
1253.66	4.97873
1253.94	2.86856
1254.21	-2.36662
1254.49	5.96776
1254.76	2.82178
1255.04	2.8022
1255.31	3.82321
1255.59	2.75914
1255.87	0.647518
1256.14	-0.421585
1256.42	3.73443
1256.69	4.75927
1256.97	6.83183
1257.24	1.58859
1257.52	1.564
1257.79	3.62441
1258.07	6.73094
1258.35	10.8818
1258.62	5.63489
1258.9	13.9596
1259.17	14.9687
1259.45	15.9891
1259.72	8.66672
1260	5.52002
1260.27	7.60534
1260.55	1.30688
1260.82	7.53902
1261.1	5.41376
1261.37	12.6843
1261.65	10.5685
1261.92	20.9866
1262.2	14.7539
1262.48	20.0308
1262.75	30.5089
1263.02	26.1966
1263.3	42.7889
1263.58	42.7308
1263.85	46.9654
1264.13	67.9021
1264.4	74.2558
1264.68	75.3386
1264.95	72.1107
1265.23	51.1604
1265.5	46.9598
1265.78	41.7075
1266.05	32.2695
1266.33	21.801
1266.6	18.6512
1266.88	22.8202
1267.15	12.36
1267.43	15.4896
1267.7	14.4398
1267.98	12.3445
1268.25	11.2965
1268.53	8.15994
1268.8	9.20619
1269.08	9.19754
1269.35	7.09214
1269.63	13.3669
1269.9	10.2027
1270.18	10.1741
1270.45	10.1414
1270.73	6.97249
1271	10.0842
1271.28	14.2446
1271.55	8.99168
1271.83	12.1074
1272.1	8.95536
1272.38	8.95003
1272.65	1.61881
1272.93	15.2338
1273.2	8.94621
1273.47	17.3262
1273.75	15.2293
1274.03	13.1311
1274.3	13.1296
1274.57	4.73164
1274.85	7.86526
1275.12	5.75042
1275.4	16.2247
1275.67	13.069
1275.95	7.81695
1276.22	12.0083
1276.5	6.75824
1276.77	12.0016
1277.05	14.0976
1277.32	7.79018
1277.6	21.4439
1277.87	15.141
1278.14	11.9878
1278.42	17.2406
1278.69	16.1868
1278.97	23.5514
1279.24	11.9788
1279.52	23.5466
1279.79	21.4266
1280.07	16.1499
1280.34	25.5966
1280.61	27.6854
1280.89	31.8859
1281.16	40.296
1281.44	52.9304
1281.71	51.8955
1281.99	71.8967
1282.26	101.356
1282.53	138.203
1282.81	178.22
1283.08	235.016
1283.36	371.648
1283.63	500.577
1283.91	702.128
1284.18	967.956
1284.45	1201.88
1284.73	1301.37
1285	1139.33
1285.28	827.399
1285.55	517.328
1285.83	294.979
1286.1	191.797
1286.37	121.281
1286.65	93.8912
1286.92	78.0645
1287.2	52.7857
1287.47	46.455
1287.75	28.5392
1288.02	32.7291
1288.29	25.3472
1288.57	21.1296
1288.84	21.124
1289.12	22.1737
1289.39	22.1761
1289.66	12.7052
1289.94	9.54934
1290.21	16.9258
1290.49	5.34192
1290.76	10.6026
1291.03	9.53774
1291.31	9.5291
1291.58	11.6291
1291.86	9.51659
1292.13	10.5626
1292.4	12.6642
1292.68	6.34305
1292.95	8.44186
1293.22	6.32711
1293.5	7.37812
1293.77	8.44286
1294.05	9.51277
1294.32	6.36678
1294.59	5.31381
1294.87	2.14663
1295.14	10.5758
1295.42	5.3083
1295.69	5.32438
1295.96	3.23498
1296.24	-0.962433
1296.51	1.16497
1296.79	4.33771
1297.06	0.10841
1297.33	5.38629
1297.61	2.20606
1297.88	7.478
1298.15	5.35276
1298.43	-0.996941
1298.7	4.28687
1298.97	4.28202
1299.25	2.16172
1299.52	2.15492
1299.79	1.09169
1300.07	4.25723
1300.34	0.0416183
1300.62	4.26885
1300.89	2.15815
1301.16	2.15614
1301.44	-2.06853
1301.71	3.21295
1301.98	-1.00338
1302.25	3.22822
1302.53	1.12014
1302.8	3.23494
1303.08	-4.15879
1303.35	4.29009
1303.62	3.23044
1303.9	3.22412
1304.17	-4.16717
1304.44	0.0592842
1304.72	-2.05051
1304.99	2.17489
1305.26	2.172
1305.54	4.27823
1305.81	-2.06164
1306.08	5.31866
1306.35	2.14571
1306.63	-1.02371
1306.9	1.08524
1307.18	-1.02071
1307.45	3.20513
1307.72	2.15537
1308	3.21336
1308.27	1.10758
1308.54	0.0592117
1308.81	4.27995
1309.09	4.28683
1309.36	5.35343
1309.63	0.0891609
1309.91	-0.955341
1310.18	0.108776
1310.45	1.16822
1310.73	0.115616
1311	5.3975
1311.27	-1.98212
1311.55	2.24723
1311.82	3.31052
1312.09	-3.01293
1312.37	3.33393
1312.64	-1.9326
1312.91	2.30025
1313.18	-0.862591
1313.46	0.193668
1313.73	-5.07929
1314	2.31379
1314.28	0.206833
1314.55	-2.95247
1314.82	2.3352
1315.09	1.29136
1315.37	-0.807343
1315.64	-0.794678
1315.91	1.33075
1316.18	-1.82435
1316.46	4.51949
1316.73	0.30064
1317	0.307499
1317.28	1.37116
1317.55	-0.732105
1317.82	-8.11098
1318.09	2.46448
1318.37	2.47654
1318.64	-3.85096
1318.91	-1.72767
1319.18	1.45155
1319.46	3.57309
1319.73	6.75047
1320	0.420635
1320.28	-0.62281
1320.55	-1.66846
1320.82	0.452671
1321.09	0.45739
1321.37	-2.70895
1321.64	-4.82013
1321.91	2.56742
1322.18	-1.64991
1322.46	0.460274
1322.73	1.52089
1323	2.5812
1323.27	-4.79474
1323.55	-5.84411
1323.82	7.87878
1324.09	3.67508
1324.36	2.63353
1324.64	-2.62774
1324.91	-0.50592
1325.18	1.61423
1325.45	4.79301
1325.73	-2.58532
1326	-1.53555
1326.27	-0.491482
1326.54	0.546097
1326.81	0.547436
1327.09	-1.54642
1327.36	-4.67742
1327.63	-1.48156
1327.9	6.97326
1328.18	-2.48092
1328.45	0.71003
1328.72	0.739792
1328.99	-0.28817
1329.27	-4.49055
1329.54	1.84905
1329.81	-2.35237
1330.08	-1.28444
1330.35	1.89196
1330.63	-0.208267
1330.9	0.853962
1331.17	1.91368
1331.44	-0.191727
1331.71	1.91557
1331.99	2.96593
1332.26	4.01948
1332.53	0.86525
1332.8	2.97307
1333.07	5.07788
1333.35	1.92347
1333.62	-4.38102
1333.89	-1.22318
1334.16	-1.21799
1334.43	-2.26263
1334.71	-2.25601
1334.98	-1.19892
1335.25	-1.19043
1335.52	0.917404
1335.79	-0.122581
1336.07	-4.30835
1336.34	-0.102184
1336.61	-1.13963
1336.88	-0.0792274
1337.15	3.07845
1337.43	-3.19773
1337.7	-3.18341
1337.97	2.0703
1338.24	-3.16113
1338.51	2.08593
1338.78	4.19246
1339.06	-8.36357
1339.33	7.35768
1339.6	-3.0965
1339.87	4.25281
1340.14	2.17905
1340.42	0.103924
1340.69	-4.06521
1340.96	4.33266
1341.23	0.16127
1341.5	-0.869064
1341.77	6.47696
1342.04	3.34962
1342.32	-0.825733
1342.59	0.231796
1342.86	-2.89862
1343.13	-2.8889
1343.4	-1.82874
1343.67	-0.766388
1343.95	-1.79415
1344.22	2.40831
1344.49	-0.708965
1344.76	-3.82693
1345.03	2.46413
1345.3	1.43155
1345.58	0.397141
1345.85	3.53983
1346.12	-3.76423
1346.39	-2.71159
1346.66	1.46632
1346.93	-1.65702
1347.2	1.48199
1347.47	2.53281
1347.75	4.62716
1348.02	-0.572598
1348.29	1.52777
1348.56	2.58714
1348.83	-3.64818
1349.1	-1.54884
1349.37	-0.492924
1349.65	1.60379
1349.92	1.61742
1350.19	2.67248
1350.46	-1.47791
1350.73	3.74084
1351	5.83302
1351.27	4.80281
1351.54	1.69656
1351.81	4.8275
1352.09	10.0449
1352.36	-1.3725
1352.63	0.733265
1352.9	-0.276894
1353.17	-2.32465
1353.44	2.90609
1353.71	4.00414
1353.98	5.1076
1354.25	-0.118599
1354.53	2.96667
1354.8	3.98575
1355.07	-0.143646
1355.34	5.07727
1355.61	5.08445
1355.88	-3.20974
1356.15	5.13573
1356.42	2.04445
1356.69	7.25227
1356.96	4.15422
1357.24	2.09591
1357.51	3.15304
1357.78	2.13195
1358.05	3.18662
1358.32	6.31638
1358.59	4.25549
1358.86	0.120514
1359.13	5.32298
1359.4	5.3376
1359.67	2.24303
1359.94	1.22392
1360.22	9.53071
1360.49	3.32137
1360.76	8.51373
1361.03	-0.795181
1361.3	1.29676
1361.57	5.46274
1361.84	1.34114
1362.11	4.46947
1362.38	8.63033
1362.65	6.57762
1362.92	7.63215
1363.19	5.58329
1363.46	7.68035
1363.73	10.8185
1364	7.74075
1364.28	11.9135
1364.55	8.82891
1364.82	7.81371
1365.09	5.76123
1365.36	22.3456
1365.63	15.1091
1365.9	7.87525
1366.17	13.063
1366.44	7.90269
1366.71	13.0876
1366.98	11.0289
1367.25	6.90158
1367.52	10.0193
1367.79	7.97184
1368.06	8.00172
1368.33	0.793667
1368.6	11.1571
1368.87	11.1842
1369.15	14.3126
1369.41	29.8497
1369.68	47.4565
1369.95	67.1143
1370.23	64.0255
1370.5	33.0289
1370.77	14.4344
1371.04	17.5517
1371.31	14.4669
1371.58	14.477
1371.85	12.4194
1372.12	13.4565
1372.39	11.3985
1372.66	11.4062
1372.93	17.6041
1373.2	13.496
1373.47	17.6366
1373.74	12.5012
1374.01	14.5816
1374.28	11.5106
1374.55	14.6226
1374.82	8.46227
1375.09	18.785
1375.36	12.6223
1375.63	19.8592
1375.9	15.7699
1376.17	17.8535
1376.44	22.0021
1376.71	16.8619
1376.98	18.9331
1377.25	18.9393
1377.52	16.8832
1377.79	18.9726
1378.06	26.2168
1378.33	14.9385
1378.6	32.503
1378.87	24.3182
1379.14	30.5391
1379.41	30.5613
1379.68	31.6081
1379.95	28.531
1380.22	28.5422
1380.49	31.6295
1380.76	38.8046
1381.03	39.8238
1381.3	35.7068
1381.57	43.9715
1381.84	41.9191
1382.11	35.7409
1382.38	42.9213
1382.65	51.1282
1382.92	55.2274
1383.19	54.1913
1383.46	56.2425
1383.73	44.9595
1384	54.1981
1384.27	70.6134
1384.54	59.3639
1384.81	70.6755
1385.08	80.9746
1385.34	90.2633
1385.61	118.045
1385.88	137.613
1386.15	183.878
1386.42	237.327
1386.69	341.14
1386.96	530.198
1387.23	807.543
1387.5	1366.25
1387.77	2199.46
1388.04	2865.53
1388.31	2551.14
1388.58	1594.39
1388.85	824.227
1389.12	433.339
1389.39	268.358
1389.66	174.969
1389.93	132.915
1390.2	104.14
1390.46	84.5667
1390.73	69.1667
1391	56.8831
1391.27	55.8453
1391.54	44.5882
1391.81	42.5558
1392.08	34.3662
1392.35	40.5182
1392.62	26.189
1392.89	26.203
1393.16	24.1713
1393.43	24.1887
1393.7	31.3716
1393.97	21.1554
1394.23	23.2215
1394.5	18.1251
1394.77	22.2389
1395.04	17.1446
1395.31	19.2207
1395.58	19.2537
1395.85	20.3075
1396.12	14.1922
1396.39	21.38
1396.66	17.3049
1396.93	18.3461
1397.2	14.2701
1397.46	20.4233
1397.73	16.3454
1398	15.3416
1398.27	19.4559
1398.54	9.25443
1398.81	16.4443
1399.08	13.4021
1399.35	13.4282
1399.62	11.4133
1399.89	14.5119
1400.16	11.4696
1400.42	12.5162
1400.69	14.5933
1400.96	13.6051
1401.23	13.6341
1401.5	12.6316
1401.77	10.6123
1402.04	13.7076
1402.31	9.64901
1402.58	15.8472
1402.84	9.74642
1403.11	13.8934
1403.38	19.0641
1403.65	19.0952
1403.92	19.1188
1404.19	7.8402
1404.46	18.0986
1404.73	19.1553
1404.99	13.0179
1405.26	15.087
1405.53	15.1013
1405.8	22.2933
1406.07	21.2811
1406.34	22.3201
1406.61	24.3871
1406.87	27.4799
1407.14	31.6054
1407.41	37.7832
1407.68	35.7615
1407.95	48.0909
1408.22	57.3457
1408.49	70.703
1408.76	99.4431
1409.02	103.577
1409.29	130.278
1409.56	139.545
1409.83	128.298
1410.1	97.5549
1410.37	79.113
1410.63	59.6265
1410.9	51.4206
1411.17	36.0412
1411.44	26.8241
1411.71	27.8605
1411.98	14.5559
1412.25	17.6496
1412.51	14.6046
1412.78	16.6899
1413.05	12.6403
1413.32	3.47529
1413.59	7.62872
1413.86	11.7258
1414.12	11.689
1414.39	2.49058
1414.66	6.64044
1414.93	15.9202
1415.2	7.72554
1415.47	1.58825
1415.73	8.79645
1416	5.73871
1416.27	8.84352
1416.54	8.86836
1416.81	2.73158
1417.07	3.78333
1417.34	7.91765
1417.61	6.91597
1417.88	4.88618
1418.15	4.90908
1418.42	8.01339
1418.68	4.9529
1418.95	10.1138
1419.22	8.07959
1419.49	11.1842
1419.76	0.923929
1420.02	6.07543
1420.29	5.06091
1420.56	10.2097
1420.83	11.2482
1421.1	2.01952
1421.36	3.0598
1421.63	5.12963
1421.9	4.12543
1422.17	2.10165
1422.44	8.29554
1422.7	4.21944
1422.97	6.31484
1423.24	4.30979
1423.51	11.57
1423.77	3.26831
1424.04	6.29009
1424.31	6.31999
1424.58	2.20482
1424.85	6.32264
1425.11	6.35303
1425.38	11.5267
1425.65	11.5516
1425.92	8.48834
1426.19	11.5991
1426.45	3.4087
1426.72	7.52413
1426.99	4.45689
1427.26	5.49116
1427.52	3.44959
1427.79	3.45425
1428.06	3.46153
1428.33	3.47475
1428.59	1.44344
1428.86	2.48642
1429.13	3.53108
1429.4	6.62469
1429.67	3.57519
1429.93	8.72071
1430.2	2.60035
1430.47	6.72721
1430.74	4.70347
1431	2.68204
1431.27	0.663494
1431.54	-0.333626
1431.81	3.7953
1432.07	3.81338
1432.34	2.79873
1432.61	5.88638
1432.87	2.82109
1433.14	3.85406
1433.41	4.8837
1433.68	3.86127
1433.95	2.84073
1434.21	4.89801
1434.48	2.86383
1434.75	1.87267
1435.01	2.92156
1435.28	0.890881
1435.55	3.98243
1435.82	5.02345
1436.08	4.01427
1436.35	4.02905
1436.62	-1.0792
1436.89	0.983898
1437.15	4.07068
1437.42	1.01153
1437.69	4.10022
1437.95	3.08878
1438.22	0.0312595
1438.49	4.1461
1438.76	2.11926
1439.02	1.11424
1439.29	11.3764
1439.56	1.1496
1439.82	-2.92801
1440.09	1.19428
1440.36	4.29501
1440.63	5.34078
1440.89	1.25734
1441.16	2.29916
1441.43	3.34237
1441.69	3.35552
1441.96	5.41619
1442.23	3.3783
1442.49	-3.77704
1442.76	1.36646
1443.03	3.4396
1443.3	1.39959
1443.56	1.4095
1443.83	-5.75641
1444.1	0.406979
1444.36	-0.60417
1444.63	0.437994
1444.9	3.53827
1445.16	2.53581
1445.43	3.58731
1445.7	-1.53049
1445.97	-2.54439
1446.23	3.62266
1446.5	-0.46838
1446.77	0.569515
1447.03	-0.444006
1447.3	-0.431967
1447.57	2.65563
1447.83	2.66573
1448.1	2.67662
1448.37	6.79128
1448.63	3.73588
1448.9	1.70638
1449.17	-6.48304
1449.43	2.76142
1449.7	-1.32978
1449.97	-3.3707
1450.23	0.739714
1450.5	1.77339
1450.77	4.85936
1451.03	-0.254656
1451.3	-1.26852
1451.57	-1.25764
1451.83	-1.24726
1452.1	2.86173
1452.37	1.84783
1452.63	5.95764
1452.9	3.92214
1453.17	0.863024
1453.43	2.92901
1453.7	0.89539
1453.97	2.95808
1454.23	6.0428
1454.5	1.95465
1454.77	-0.0821114
1455.03	0.955198
1455.3	-1.08263
1455.56	-0.0475349
1455.83	2.01476
1456.1	-0.0170193
1456.36	-6.15164
1456.63	3.08496
1456.9	2.0694
1457.16	0.0265694
1457.43	2.0828
1457.7	0.0434132
1457.96	3.12651
1458.23	4.1613
1458.49	-0.948717
1458.76	-4.00963
1459.03	-0.923197
1459.29	3.18786
1459.56	2.17588
1459.82	-3.95963
1460.09	1.17347
1460.36	0.158207
1460.62	3.24053
1460.89	-2.89714
1461.16	1.20796
1461.42	2.23904
1461.69	-0.826151
1461.95	-1.84334
1462.22	0.210125
1462.49	3.28588
1462.75	-1.82662
1463.02	-0.798944
1463.28	-1.81793
1463.55	-1.81416
1463.82	-1.80966
1464.08	0.24444
1464.35	-4.84945
1464.61	-0.735113
1464.88	2.35598
1465.15	-0.690926
1465.41	-1.72634
1465.68	2.31857
1465.94	2.3024
1466.21	4.35007
1466.48	2.32868
1466.74	0.293949
1467.01	1.31073
1467.27	-1.74425
1467.54	3.36914
1467.8	1.33614
1468.07	-0.696854
1468.34	-0.68881
1468.6	-3.74024
1468.87	0.348486
1469.13	-1.68408
1469.4	2.40174
1469.67	-0.65243
1469.93	-0.649014
1470.2	2.41107
1470.46	-1.66273
1470.73	-2.67682
1470.99	-0.633472
1471.26	-2.66463
1471.53	-0.622366
1471.79	-3.67495
1472.06	1.42175
1472.32	3.4645
1472.59	-0.601458
1472.85	4.49716
1473.12	-3.64129
1473.39	-0.580721
1473.65	0.441135
1473.92	0.444704
1474.18	-1.58638
1474.45	0.454809
1474.71	-0.555111
1474.98	-0.544764
1475.24	-1.55297
1475.51	1.50853
1475.78	1.51515
1476.04	-0.515547
1476.31	-4.58226
1476.57	-2.54232
1476.84	1.53228
1477.1	-1.51707
1477.37	0.51976
1477.63	-4.56054
1477.9	0.530485
1478.16	0.53677
1478.43	-0.476505
1478.69	-0.475178
1478.96	-2.50549
1479.22	1.56273
1479.49	0.54808
1479.76	0.549175
1480.02	-2.49792
1480.29	0.549709
1480.55	0.545589
1480.82	-1.48634
1481.08	-0.470678
1481.35	1.56228
1481.61	4.60673
1481.88	-2.48583
1482.14	1.58346
1482.41	-3.47935
1482.67	-0.422688
1482.94	-6.50384
1483.2	0.608912
1483.47	-3.44316
1483.73	2.65716
1484	0.632076
1484.26	6.72937
1484.53	0.630421
1484.79	-2.42393
1485.06	-5.48704
1485.32	1.57098
1485.59	2.57316
1485.85	1.54339
1486.12	1.61939
1486.38	-0.39349
1486.65	-0.377447
1486.91	-1.41529
1487.18	4.68333
1487.44	-5.44047
1487.71	1.64925
1487.97	0.634232
1488.24	2.66045
1488.5	-0.377577
1488.77	-3.41616
1489.03	4.67929
1489.3	2.65383
1489.56	0.6313
1489.83	-2.4019
1490.09	0.635784
1490.36	-2.39498
1490.62	-1.37933
1490.89	-1.37837
1491.15	3.6771
1491.42	-0.369625
1491.68	-0.368166
1491.95	0.645687
1492.21	-1.37234
1492.48	0.654984
1492.74	1.66899
1493	0.660311
1493.27	2.68504
1493.53	0.666943
1493.8	-1.3531
1494.06	5.72535
1494.33	2.69695
1494.59	1.69175
1494.86	3.71987
1495.12	1.70017
1495.39	-4.36605
1495.65	-3.35934
1495.92	0.675409
1496.18	-2.35936
1496.45	3.69712
1496.71	1.67678
1496.97	-1.3521
1497.24	3.69369
1497.5	-4.37777
1497.77	2.68992
1498.03	-3.36421
1498.3	0.674854
1498.56	-1.34043
1498.82	-2.34624
1499.09	-0.324047
1499.35	-2.33871
1499.62	-1.32493
1499.88	-2.32935
1500.15	0.704151
1500.41	3.73653
1500.68	-2.31873
1500.94	-0.298094
1501.2	-2.31565
1501.47	1.72152
1501.73	-5.34665
1502	0.709112
1502.26	2.72871
1502.52	0.711437
1502.79	0.710745
1503.05	1.71534
1503.32	-0.305845
1503.58	1.70976
1503.85	4.73111
1504.11	5.74117
1504.37	-0.304064
1504.64	-1.30941
1504.9	-0.299007
1505.17	0.709816
1505.43	-1.30818
1505.7	-0.302588
1505.96	0.698853
1506.22	2.70497
1506.49	-3.34042
1506.75	-2.33232
1507.02	2.70758
1507.28	-1.31698
1507.54	-0.306929
1507.81	1.71104
1508.07	3.72741
1508.34	-3.32701
1508.6	0.703066
1508.86	-0.302845
1509.13	-1.30836
1509.39	0.708385
1509.66	-0.298681
1509.92	0.709787
1510.18	1.72169
1510.45	-2.30671
1510.71	-2.31093
1510.98	1.71446
1511.24	3.72257
1511.5	-0.313463
1511.77	1.68881
1512.03	1.6735
1512.29	-0.352745
1512.56	-0.366186
1512.82	-2.38676
1513.08	-1.38883
1513.35	-0.390568
1513.61	3.61998
1513.88	-2.40524
1514.14	2.62154
1514.4	-1.38383
1514.67	3.64182
1514.93	3.63835
1515.2	-1.38986
1515.46	-4.40886
1515.72	1.60718
1515.99	6.615
1516.25	2.59213
1516.51	-0.42313
1516.78	2.58241
1517.04	-2.43373
1517.3	-1.43294
1517.57	1.57404
1517.83	3.57968
1518.09	-1.43177
1518.36	-0.424152
1518.62	0.580034
1518.88	-0.421196
1519.15	0.583204
1519.41	2.59175
1519.67	-0.415962
1519.94	2.5949
1520.2	1.59042
1520.47	4.59673
1520.73	-4.43429
1520.99	2.58883
1521.26	0.584751
1521.52	-0.416624
1521.78	4.60075
1522.05	-3.42829
1522.31	2.58841
1522.57	-0.425385
1522.84	2.57959
1523.1	1.57254
1523.36	-2.44452
1523.62	2.55918
1523.89	-0.460489
1524.15	2.53656
1524.41	-0.475918
1524.68	2.5225
1524.94	0.513906
1525.2	-2.4881
1525.47	1.51792
1525.73	-2.48814
1525.99	2.52281
1526.26	2.52746
1526.52	-0.471777
1526.78	-1.46952
1527.05	-0.466223
1527.31	-1.47057
1527.57	1.53091
1527.84	1.52759
1528.1	-0.480536
1528.36	-6.49636
1528.63	1.51467
1528.89	1.50995
1529.15	1.50571
1529.41	-4.50725
1529.68	-1.50435
1529.94	2.49856
1530.2	1.49052
1530.47	-1.51657
1530.73	2.49014
1530.99	-0.510168
1531.25	1.49763
1531.52	-2.50756
1531.78	3.50356
1532.04	-3.51424
1532.31	0.492687
1532.57	-1.51681
1532.83	-2.51744
1533.09	4.50357
1533.36	-1.50216
1533.62	-0.492624
1533.88	1.51559
1534.15	0.512907
1534.41	-0.49251
1534.67	2.5132
1534.94	-2.50641
1535.2	-0.505411
1535.46	3.50129
1535.72	0.485128
1535.99	-1.53592
1536.25	2.46106
1536.51	-0.553045
1536.77	-0.564978
1537.04	0.423195
1537.3	1.41196
1537.56	-2.59636
1537.82	0.395996
1538.09	4.39499
1538.35	0.385721
1538.61	-1.62525
1538.87	-3.62963
1539.14	-1.63538
1539.4	2.36893
1539.66	-2.61757
1539.92	0.402504
1540.19	1.41643
1540.45	-1.57933
1540.71	2.43997
1540.97	-1.56493
1541.24	3.44987
1541.5	-1.57826
1541.76	2.42743
1542.02	0.412069
1542.29	-2.60343
1542.55	2.39551
1542.81	1.38369
1543.07	6.37979
1543.34	-3.64013
1543.6	-0.64695
1543.86	1.34189
1544.12	-2.67119
1544.39	2.32766
1544.65	3.32695
1544.91	1.33023
1545.17	2.33726
1545.43	-2.66301
1545.7	0.348459
1545.96	3.35644
1546.22	-0.648636
1546.48	-1.65007
1546.74	1.35047
1547.01	0.347336
1547.27	-2.6577
1547.53	-3.6594
1547.79	-0.653427
1548.06	-0.662531
1548.32	-3.68417
1548.58	1.31948
1548.84	0.316746
1549.1	2.32576
1549.37	-3.71063
1549.63	-2.74002
1549.89	3.2483
1550.15	-1.7371
1550.42	2.29272
1550.68	2.33694
1550.94	0.360851
1551.2	-2.62765
1551.46	0.363533
1551.73	0.363338
1551.99	4.36997
1552.25	0.342056
1552.51	3.36417
1552.77	-2.65239
1553.03	-2.65893
1553.3	-4.67774
1553.56	-1.68871
1553.82	1.31323
1554.08	-1.7017
1554.34	-0.707529
1554.61	4.29413
1554.87	-0.731512
1555.13	-0.744736
1555.39	0.250225
1555.65	-0.756651
1555.91	-1.76176
1556.18	-1.76327
1556.44	-0.764433
1556.7	4.2362
1556.96	2.23004
1557.22	-0.776327
1557.48	1.22561
1557.75	-0.780731
1558.01	0.216166
1558.27	1.20907
1558.53	-0.806267
1558.79	1.18535
1559.06	0.171131
1559.32	-3.84258
1559.58	2.14794
1559.84	1.13793
1560.1	0.129572
1560.36	1.12163
1560.63	3.11407
1560.89	-1.88879
1561.15	0.104895
1561.41	-2.89671
1561.67	-0.899446
1561.93	3.10067
1562.19	2.10629
1562.46	1.1121
1562.72	2.10918
1562.98	0.10409
1563.24	4.09844
1563.5	2.09653
1563.76	2.09012
1564.02	-1.91481
1564.29	2.09247
1564.55	5.10317
1564.81	0.100157
1565.07	-3.90808
1565.33	3.07534
1565.59	1.01859
1565.85	-4.03797
1566.11	-2.08362
1566.38	-1.97528
1566.64	1.05419
1566.9	3.03436
1567.16	-1.98462
1567.42	-2.96549
1567.68	0.0560894
1567.94	-0.954395
1568.2	2.02132
1568.47	0.0222034
1568.73	-3.97666
1568.99	2.02152
1569.25	2.01515
1569.51	2.00027
1569.77	0.990868
1570.03	-2.01017
1570.29	-1.012
1570.55	0.984072
1570.82	-1.01771
1571.08	2.97594
1571.34	-1.02629
1571.6	-2.03148
1571.86	-2.03913
1572.12	-0.049469
1572.38	3.94184
1572.64	0.93795
1572.9	3.92448
1573.17	0.920942
1573.43	1.91162
1573.69	-4.0857
1573.95	-3.09462
1574.21	-2.09937
1574.47	0.896807
1574.73	2.89728
1574.99	-1.093
1575.25	-6.08375
1575.51	-3.08402
1575.78	1.91414
1576.04	0.912943
1576.3	2.90609
1576.56	0.90361
1576.82	-2.10066
1577.08	-1.11363
1577.34	-1.12778
1577.6	3.84942
1577.86	3.83465
1578.12	0.828449
1578.38	0.81621
1578.64	1.80436
1578.9	-2.18849
1579.17	-4.18587
1579.43	-1.19855
1579.69	-0.204582
1579.95	3.78182
1580.21	6.77481
1580.47	-2.20058
1580.73	0.788406
1580.99	0.783979
1581.25	-1.2168
1581.51	1.76627
1581.77	2.75579
1582.03	2.74616
1582.29	2.73616
1582.55	4.72323
1582.81	3.72149
1583.07	-2.26112
1583.33	-2.2658
1583.59	2.71058
1583.85	0.714588
1584.11	-0.287455
1584.38	3.69314
1584.64	-4.27521
1584.9	-0.292244
1585.16	0.702023
1585.42	0.69869
1585.68	2.68611
1585.94	-0.305824
1586.2	-0.311632
1586.46	1.67001
1586.72	1.65936
1586.98	-2.33034
1587.24	-0.346603
1587.5	-2.34277
1587.76	0.636856
1588.02	-2.35231
1588.28	1.62466
1588.54	-0.365734
1588.8	0.629807
1589.06	1.6266
1589.32	1.62755
1589.58	-4.34438
1589.84	-0.362488
1590.1	1.62697
1590.36	-0.367199
1590.62	-4.35051
1590.88	-0.367058
1591.14	-6.34262
1591.4	-3.3584
1591.66	1.61806
1591.92	-4.36165
1592.18	-3.37127
1592.44	3.58859
1592.7	-0.405285
1592.96	3.565
1593.22	0.572863
1593.48	-1.42966
1593.74	2.53269
1594	-2.45137
1594.26	-0.474207
1594.52	3.49223
1594.78	1.50316
1595.04	-0.482458
1595.3	3.49507
1595.56	0.515884
1595.82	-1.47401
1596.08	1.49044
1596.34	-1.49239
1596.6	2.47795
1596.86	-0.503927
1597.12	0.487968
1597.38	-3.4857
1597.64	2.47468
1597.9	6.44903
1598.16	0.484877
1598.42	2.4664
1598.68	1.46511
1598.94	2.4473
1599.2	-5.50441
1599.46	-0.548658
1599.72	4.40585
1599.98	6.38217
1600.24	6.37379
1600.5	-1.56914
1600.76	-0.58514
1601.02	6.34541
1601.28	-0.605684
1601.54	1.3641
1601.8	1.35191
1602.06	4.312
1602.32	3.31279
1602.58	-2.6345
1602.84	-1.65282
1603.1	-0.672327
1603.36	-0.680801
1603.62	0.300734
1603.88	0.294914
1604.14	1.27915
1604.4	4.2426
1604.66	0.286249
1604.92	2.2627
1605.17	-0.705206
1605.43	5.22627
1605.69	0.281528
1605.95	0.282103
1606.21	-1.69432
1606.47	6.2207
1606.73	3.25571
1606.99	1.2786
1607.25	0.296753
1607.51	3.23024
1607.77	1.23989
1608.03	1.25422
1608.29	4.16632
1608.55	1.21629
1608.81	1.43708
1609.07	-2.21562
1609.32	3.74447
1609.58	2.19522
1609.84	3.18888
1610.1	0.183006
1610.36	0.32045
1610.62	4.87606
1610.88	3.03425
1611.14	0.65073
1611.4	1.36787
1611.66	1.50333
1611.92	-0.232252
1612.18	-1.81498
1612.44	1.71497
1612.69	0.252913
1612.95	0.275177
1613.21	2.88246
1613.47	-0.79192
1613.73	-0.338333
1613.99	0.779814
1614.25	1.12697
1614.51	0.934448
1614.77	3.09522
1615.03	3.07124
1615.29	-0.479374
1615.54	0.49378
1615.8	-1.78238
1616.06	1.61567
1616.32	2.82385
1616.58	1.13999
1616.84	-1.51461
1617.1	0.474411
1617.36	-1.38258
1617.62	2.28689
1617.88	1.79403
1618.13	-0.131882
1618.39	1.1697
1618.65	-0.51358
1618.91	-0.18614
1619.17	4.96882
1619.43	2.40822
1619.69	1.13013
1619.95	0.53488
1620.2	2.66795
1620.46	-1.11072
1620.72	1.68959
1620.98	1.57655
1621.24	2.92335
1621.5	3.38657
1621.76	1.43841
1622.02	2.62572
1622.27	1.54521
1622.53	-0.243496
1622.79	3.51599
1623.05	-0.338921
1623.31	0.953844
1623.57	0.976036
1623.83	0.98427
1624.09	0.201359
1624.34	0.847582
1624.6	0.219687
1624.86	2.1827
1625.12	4.45159
1625.38	4.09081
1625.64	4.49062
1625.9	1.14032
1626.15	1.08114
1626.41	1.64429
1626.67	1.1433
1626.93	3.44049
1627.19	1.6643
1627.45	1.82851
1627.7	0.17845
1627.96	0.516115
1628.22	0.821709
1628.48	2.85853
1628.74	0.673885
1629	0.212994
1629.26	-0.0625706
1629.51	0.802614
1629.77	1.06808
1630.03	2.72647
1630.29	1.82834
1630.55	-0.958263
1630.81	1.93783
1631.06	1.3025
1631.32	-0.990805
1631.53	-0.995714
1631.79	1.96354
1632.05	2.95415
1632.31	-0.982883
1632.57	3.94296
1632.84	-2.94876
1633.1	-0.963928
1633.36	1.98417
1633.62	-0.00196075
1633.88	1.96547
1634.14	0.98415
1634.4	1.97429
1634.66	0.00452995
1634.93	5.91946
1635.19	1.97632
1635.45	0.989605
1635.71	-0.98321
1635.97	0.000265121
1636.23	2.95385
1636.49	-0.990898
1636.75	-0.00883293
1637.02	4.91288
1637.28	3.92305
1637.54	1.94818
1637.8	-1.0081
1638.06	1.94507
1638.32	1.94275
1638.58	0.955692
1638.84	2.9226
1639.1	1.93904
1639.37	2.92396
1639.63	4.89284
1639.89	4.89316
1640.15	0.955851
1640.41	3.90828
1640.67	0.956854
1640.93	-0.0216541
1641.19	4.90606
1641.46	1.9539
1641.72	0.967888
1641.98	2.9346
1642.24	1.94872
1642.5	3.91678
1642.76	1.94745
1643.02	-3.95911
1643.28	0.962463
1643.54	-0.0216198
1643.8	0.96282
1644.06	4.89818
1644.33	3.91149
1644.59	-1.01216
1644.85	-1.99849
1645.11	1.93682
1645.37	2.92401
1645.63	4.89715
1645.89	0.964449
1646.15	3.91825
1646.41	1.94826
1646.67	4.89756
1646.93	2.92778
1647.19	4.89445
1647.46	0.957901
1647.72	1.93956
1647.98	2.9216
1648.24	0.955479
1648.5	0.957928
1648.76	0.964283
1649.02	0.971233
1649.28	0.986963
1649.54	-0.975019
1649.8	6.89898
1650.06	1.97505
1650.32	5.91366
1650.58	-0.967146
1650.85	6.91975
1651.11	0.0324345
1651.37	2.00986
1651.63	2.01535
1651.89	3.00416
1652.15	0.0496826
1652.41	4.97877
1652.67	3.01089
1652.93	3.00963
1653.19	3.99303
1653.45	3.00793
1653.71	4.98042
1653.97	0.0573521
1654.23	1.04742
1654.49	0.0657558
1654.75	3.0254
1655.01	5.98627
1655.27	2.04971
1655.53	1.07176
1655.8	-1.87649
1656.06	0.107924
1656.32	6.03764
1656.57	-1.85084
1656.84	2.10196
1657.1	2.10553
1657.36	3.09404
1657.62	2.1066
1657.88	0.131805
1658.14	6.05342
1658.4	2.1061
1658.66	0.131891
1658.92	2.10345
1659.18	3.08793
1659.44	2.09954
1659.7	3.08375
1659.96	2.09569
1660.22	6.03479
1660.48	4.06842
1660.74	1.11711
1661	2.11024
1661.26	-0.84082
1661.52	2.12631
1661.78	2.13505
1662.04	0.16662
1662.3	3.13208
1662.56	-1.82293
1662.82	1.19169
1663.08	2.21315
1663.34	3.188
1663.6	2.19907
1663.86	-2.74566
1664.12	2.13635
1664.38	3.15746
1664.64	-0.781153
1664.9	3.17353
1665.16	1.21606
1665.42	5.17706
1665.68	0.209986
1665.94	1.17338
1666.2	-0.727427
1666.46	1.25908
1666.72	-2.69583
1666.98	0.234968
1667.24	0.152565
1667.5	-1.73763
1667.76	3.1949
1668.02	1.21941
1668.28	4.17986
1668.54	1.21819
1668.8	5.16848
1669.06	6.17353
1669.32	1.25789
1669.58	1.26437
1669.84	-1.69486
1670.1	1.27284
1670.36	-2.67744
1670.62	4.23984
1670.88	3.27148
1671.14	2.29665
1671.4	0.320272
1671.66	3.28678
1671.92	1.31233
1672.18	2.30556
1672.44	3.30023
1672.69	1.32785
1672.95	-0.645655
1673.21	5.28897
1673.47	-1.62621
1673.73	-1.62137
1673.99	2.33876
1674.25	5.31197
1674.51	-0.613262
1674.77	1.37191
1675.03	2.36863
1675.29	-5.53683
1675.55	0.407492
1675.81	-2.55503
1676.07	2.39741
1676.33	0.421635
1676.59	1.41624
1676.85	-1.54743
1677.11	2.41628
1677.37	-0.549343
1677.63	0.442883
1677.89	-0.545153
1678.14	0.444616
1678.4	-3.51368
1678.66	3.40866
1678.92	0.440659
1679.18	0.441006
1679.44	2.41907
1679.7	2.42079
1679.96	1.43357
1680.22	2.42323
1680.48	1.43701
1680.74	-0.537962
1681	2.42787
1681.26	3.41756
1681.52	-1.51922
1681.78	-0.527397
1682.03	-0.523251
1682.29	-0.518869
1682.55	-2.49005
1682.81	0.478765
1683.07	2.45791
1683.33	1.47368
1683.59	3.45358
1683.85	-0.49341
1684.11	-2.46529
1684.37	3.46442
1684.63	1.48907
1684.89	0.503731
1685.14	-0.480568
1685.4	3.47309
1685.66	0.514812
1685.92	2.49428
1686.18	4.47414
1686.44	-0.457848
1686.7	0.53665
1686.96	-1.42852
1687.22	3.51832
1687.48	0.56008
1687.73	-1.41287
1687.99	-0.423271
1688.25	4.5166
1688.51	-0.419071
1688.77	-1.40448
1689.03	0.571238
1689.29	1.55738
1689.55	-0.416269
1689.81	2.54418
1690.06	-0.416159
1690.32	2.54181
1690.58	2.54493
1690.84	0.583845
1691.1	0.592476
1691.36	-0.386679
1691.62	3.56681
1691.88	0.614603
1692.13	0.622187
1692.39	1.61435
1692.65	-3.31656
1692.91	0.632202
1693.17	-1.34098
1693.43	-1.34153
1693.69	-2.32924
1693.95	0.626026
1694.2	-2.33097
1694.46	3.58185
1694.72	0.625269
1694.98	-0.35849
1695.24	-2.32359
1695.5	-2.31679
1695.76	-2.31006
1696.01	0.652357
1696.27	0.659672
1696.53	-1.30194
1696.79	1.66242
1697.05	4.62417
1697.31	0.685053
1697.57	2.6559
1697.82	0.683903
1698.08	4.62104
1698.34	1.66644
1698.6	2.65141
1698.86	-1.28454
1699.12	1.66969
1699.38	-1.27867
1699.63	4.62996
1699.89	-3.23466
1700.15	-3.22886
1700.41	-0.270721
1700.67	1.6978
1700.92	-2.23298
1701.18	2.69045
1701.44	-4.19146
1701.7	1.71401
1701.96	0.731691
1702.22	0.731977
1702.47	-2.2164
1702.73	-2.21545
1702.99	-3.19682
1703.25	-1.22704
1703.51	-2.20453
1703.77	0.747433
1704.02	0.750635
1704.28	-1.20995
1704.54	1.74577
1704.8	-0.209818
1705.06	0.779613
1705.32	1.76686
1705.57	-0.194143
1705.83	-1.17076
1706.09	-3.12992
1706.35	1.78451
1706.61	2.76668
1706.86	1.78383
1707.12	-3.12591
1707.38	1.78178
1707.64	-0.180809
1707.9	-0.181786
1708.16	1.77736
1708.41	-3.12741
1708.67	0.791542
1708.93	0.787725
1709.19	-1.17376
1709.44	-0.19422
1709.7	0.787046
1709.96	1.7702
1710.22	-1.16088
1710.48	-1.15421
1710.73	-1.14722
1710.99	-1.13892
1711.25	0.829472
1711.51	-2.09966
1711.77	-1.11187
1712.02	-0.124226
1712.28	-0.117599
1712.54	2.82396
1712.8	2.82208
1713.06	-2.07715
1713.31	1.83188
1713.57	2.80482
1713.83	-2.08706
1714.09	2.79599
1714.34	-0.133968
1714.6	-0.130947
1714.86	-3.05732
1715.12	-0.122129
1715.38	0.860506
1715.63	0.871523
1715.89	1.86101
1716.15	-2.04109
1716.41	-2.03666
1716.66	1.8737
1716.92	-2.03245
1717.18	-1.05644
1717.44	0.893248
1717.69	0.888252
1717.95	0.881296
1718.21	-1.07343
1718.47	-3.99953
1718.72	3.79166
1718.98	2.81778
1719.24	0.873384
1719.5	-3.98886
1719.75	-1.06166
1720.01	3.81135
1720.27	-0.0745335
1720.53	-1.04055
1720.78	-0.0628338
1721.04	-1.03437
1721.3	3.83114
1721.56	-1.03332
1721.81	-0.0589886
1722.07	0.914194
1722.33	3.83097
1722.59	-3.94636
1722.84	-0.0582142
1723.1	2.85691
1723.36	-0.0566387
1723.62	-2.96796
1723.87	-2.964
1724.13	0.926643
1724.39	0.931051
1724.64	0.936317
1724.9	-1.00287
1725.16	-1.00274
1725.42	-1.00587
1725.67	-0.0382557
1725.93	-3.91896
1726.19	1.89732
1726.45	-3.91359
1726.7	1.90953
1726.96	0.945084
1727.22	-1.95887
1727.47	5.78782
1727.73	-3.89156
1727.99	-1.94197
1728.24	0.969381
1728.5	1.9402
1728.76	-3.8726
1729.02	0.937914
1729.27	-0.0619545
1729.53	-0.0697422
1729.79	0.917162
1730.05	-0.0278683
1730.3	-0.0109768
1730.56	-1.95119
1730.82	-0.985498
1731.07	-0.0158081
1731.33	1.95299
1731.59	-1.90405
1731.84	1.96909
1732.1	1.97533
1732.36	0.047739
1732.61	-0.914209
1732.87	0.05616
1733.13	-2.83906
1733.39	-0.905375
1733.64	-1.87165
1733.9	-0.909061
1734.16	1.01695
1734.41	1.01565
1734.67	2.94249
1734.93	-1.87913
1735.18	-1.87998
1735.44	3.89865
1735.7	0.0453777
1735.95	0.0469227
1736.21	1.97503
1736.47	0.0543728
1736.72	1.98343
1736.98	1.98668
1737.24	0.065546
1737.49	-0.893339
1737.75	1.03401
1738.01	1.99928
1738.26	-0.88341
1738.52	-1.84315
1738.78	-0.880043
1739.03	2.96559
1739.29	-0.877325
1739.55	0.0829334
1739.8	1.0403
1740.06	-1.84379
1740.32	1.03079
1740.57	-1.84904
1740.83	-2.8082
1741.09	1.02662
1741.34	1.02755
1741.6	-1.84519
1741.86	1.03008
1742.11	-1.84009
1742.37	2.9517
1742.63	3.91442
1742.88	0.0895805
1743.14	2.96561
1743.4	2.97077
1743.65	0.105423
1743.91	0.109823
1744.16	-2.75913
1744.42	3.94083
1744.68	2.03022
1744.93	1.07871
1745.19	2.99855
1745.45	-2.7331
1745.7	3.01291
1745.96	4.93131
1746.22	-2.71639
1746.47	-1.75785
1746.73	-5.58073
1746.98	-4.62416
1747.24	-3.66665
1747.5	-7.48647
1747.75	1.1105
1748.01	5.88459
1748.27	-3.65779
1748.52	1.12134
1748.78	-4.59877
1749.03	3.0458
1749.29	0.190662
1749.55	3.06485
1749.8	0.211584
1750.06	-0.731647
1750.32	0.236256
1750.57	0.249111
1750.83	-5.47334
1751.08	0.270456
1751.34	0.280273
1751.6	-0.668112
1751.85	-0.664417
1752.11	-4.48707
1752.36	-1.62055
1752.62	-1.61911
1752.88	0.292494
1753.13	2.20293
1753.39	1.24919
1753.64	2.20529
1753.9	-0.654934
1754.15	-0.652084
1754.41	-0.650667
1754.67	-3.50998
1754.92	-1.5997
1755.18	0.310408
1755.43	-0.638897
1755.69	2.22399
1755.95	1.27328
1756.2	-0.630959
1756.46	1.27475
1756.71	-1.58217
1756.97	-1.58299
1757.23	3.17416
1757.48	0.318769
1757.74	0.322466
1757.99	-2.52715
1758.25	2.23677
1758.5	-0.60264
1758.76	1.30944
1759.02	-1.53779
1759.27	1.32391
1759.53	-0.572157
1759.78	1.33913
1760.04	-0.557825
1760.3	1.35018
1760.55	-2.45126
1760.81	-0.543974
1761.06	1.36245
1761.32	-0.537363
1761.57	1.36623
1761.83	2.319
1762.08	4.22357
1762.34	-0.524872
1762.6	-2.42024
1762.85	2.34375
1763.11	-1.4498
1763.36	-0.491789
1763.62	-2.38783
1763.87	0.47205
1764.13	-2.37222
1764.38	1.44079
1764.64	1.4529
1764.89	-1.38534
1765.15	0.528408
1765.4	-2.31721
1765.66	-0.404564
1765.92	1.5077
1766.17	4.3714
1766.43	2.47395
1766.68	0.575499
1766.94	2.48393
1767.19	-1.31905
1767.45	-0.361021
1767.7	-3.21201
1767.96	1.54995
1768.21	-1.30223
1768.47	0.604364
1768.73	-1.29404
1768.98	0.613245
1769.24	-1.29261
1769.49	-3.19997
1769.75	-1.30494
1770	-3.20572
1770.26	-0.349991
1770.51	0.612032
1770.77	2.52489
1771.02	-1.26851
1771.28	-2.21059
1771.53	2.5539
1771.79	3.52088
1772.04	1.6291
1772.3	-1.21593
1772.55	-2.15676
1772.81	-0.24325
1773.06	-4.03898
1773.32	0.727705
1773.57	-1.16637
1773.83	2.64955
1774.08	-0.197266
1774.34	-0.18907
1774.59	1.72269
1774.85	1.73018
1775.1	3.64457
1775.36	0.796124
1775.61	-0.145561
1775.87	-2.03405
1776.12	-0.115643
1776.38	-1.05962
1776.63	1.80748
1776.89	0.859068
1777.14	-2.95078
1777.4	-1.04241
1777.65	2.7728
1777.91	0.868504
1778.16	-1.03517
1778.42	1.82372
1778.67	-0.0794716
1778.93	-0.0786514
1779.18	-1.03091
1779.44	-3.88607
1779.69	-1.02941
1779.95	-2.92653
1780.2	3.74713
1780.46	-4.81024
1780.71	2.81137
1780.97	1.86786
1781.22	2.82842
1781.47	1.88292
1781.73	-3.82224
1781.98	-0.958124
1782.24	1.90781
1782.49	-2.8442
1782.75	-1.8806
1783	2.89279
1783.26	-1.86279
1783.51	3.86374
1783.77	-2.79895
1784.02	-1.83705
1784.28	2.93924
1784.53	-1.81812
1784.79	2.00891
1785.04	1.06475
1785.29	-0.835644
1785.55	1.07827
1785.8	4.89889
1786.06	2.03956
1786.31	1.08854
1786.57	0.140684
1786.82	-0.805582
1787.08	-6.52104
1787.33	-2.69423
1787.58	2.09047
1787.84	0.196072
1788.09	1.17207
1788.35	1.1941
1788.6	1.21594
1788.86	0.275114
1789.11	-1.62998
1789.37	2.21146
1789.62	-1.60513
1789.87	-0.635654
1790.13	-0.627159
1790.38	2.25698
1790.64	-1.56877
1790.89	3.23023
1791.15	-1.55889
1791.4	0.358145
1791.65	1.30616
1791.91	-0.606276
1792.16	-1.561
1792.42	-4.4285
1792.67	0.366213
1792.93	-0.584953
1793.18	0.381254
1793.43	0.388559
1793.69	-0.563639
1793.94	-3.43236
1794.2	-0.549923
1794.45	4.24726
1794.7	-0.539169
1794.96	-3.4119
1795.21	0.432463
1795.47	2.37498
1795.72	0.47463
1795.97	1.44603
1796.23	0.495157
1796.48	-0.455515
1796.74	-3.32715
1796.99	-0.436253
1797.25	-2.34806
1797.5	-0.417036
1797.75	1.51404
1798.01	1.52238
1798.26	-1.35402
1798.51	-1.34703
1798.77	2.50542
1799.02	-0.374228
1799.28	1.55229
1799.53	0.592855
1799.78	-0.367527
1800.04	-1.32855
1800.29	1.55475
1800.55	1.55576
1800.8	0.596743
1801.05	3.48093
1801.31	1.56288
1801.56	1.56669
1801.81	-0.349697
1802.07	5.419
1802.32	2.54379
1802.58	2.55096
1802.83	0.637363
1803.08	-0.314957
1803.34	-0.305702
1803.59	3.54963
1803.84	3.559
1804.1	0.680946
1804.35	-0.275011
1804.61	-1.22941
1804.86	1.6655
1805.11	1.67468
1805.37	-2.16508
1805.62	2.65835
1805.87	-0.219645
1806.13	3.64253
1806.38	-2.12837
1806.64	0.769926
1806.89	2.70487
1807.14	-2.10726
1807.4	-1.13852
1807.65	1.75728
1807.9	-1.12987
1808.16	0.802179
1808.41	-1.12097
1808.66	1.7753
1808.92	4.67191
1809.17	1.78522
1809.42	-1.10167
1809.68	-0.13283
1809.93	-3.98408
1810.18	0.841312
1810.44	-1.08218
1810.69	-0.113831
1810.94	2.78129
1811.2	3.74794
1811.45	2.78735
1811.7	-1.06557
1811.96	0.866035
1812.21	0.870104
1812.46	2.80334
1812.72	1.84583
1812.97	0.88888
1813.22	-1.99656
1813.48	-0.0602951
1813.73	2.83909
1813.98	-2.94276
1814.24	1.89113
1814.49	1.90172
1814.74	3.84388
1815	1.92472
1815.25	-0.965202
1815.5	4.83998
1815.76	1.9467
1816.01	2.91807
1816.26	0.0232468
1816.52	1.96115
1816.77	0.0330563
1817.02	-1.89528
1817.27	0.0401821
1817.53	1.97318
1817.78	0.998371
1818.03	3.89064
1818.29	-2.86537
1818.54	-0.926338
1818.79	1.01565
1819.05	3.92211
1819.3	1.99118
1819.55	3.9292
1819.8	2.0026
1820.06	-1.8579
1820.31	-0.885969
1820.56	0.0867233
1820.82	2.02716
1821.07	0.0988026
1821.32	3.97311
1821.58	1.07783
1821.83	1.08484
1822.08	0.12372
1822.33	0.129501
1822.59	3.03838
1822.84	-0.828728
1823.09	0.143505
1823.34	-0.82053
1823.6	-1.78618
1823.85	2.08673
1824.1	-2.75253
1824.36	3.05693
1824.61	0.158009
1824.86	2.09897
1825.11	4.04023
1825.37	2.10926
1825.62	1.14642
1825.87	-0.785917
1826.12	1.15404
1826.38	-0.780336
1826.63	-1.74576
1826.88	0.194416
1827.14	0.197523
1827.39	2.13876
1827.64	0.206377
1827.89	4.08673
1828.15	-3.65922
1828.4	1.18787
1828.65	4.09589
1828.9	0.220451
1829.16	-0.749229
1829.41	-0.74906
1829.66	-0.747612
1829.91	1.19077
1830.17	-2.68213
1830.42	4.09591
1830.67	7.96787
1830.92	0.221813
1831.18	0.224089
1831.43	3.13363
1831.68	2.17105
1831.93	0.23975
1832.19	1.21353
1832.44	-0.718754
1832.69	1.22436
1832.94	1.23144
1833.2	-1.67073
1833.45	3.17806
1833.7	-1.66586
1833.95	1.24632
1834.2	2.21886
1834.46	-1.65554
1834.71	2.21773
1834.96	1.2372
1835.21	0.258436
1835.47	0.249212
1835.72	5.08164
1835.97	7.0101
1836.22	2.17508
1836.48	2.17084
1836.73	2.27728
1836.98	2.27567
1837.23	-0.666267
1837.48	0.293554
1837.74	0.278154
1837.99	4.1361
1838.24	-4.59201
1838.49	0.229031
1838.74	2.15978
1839	-0.6987
1839.25	5.13019
1839.5	1.26704
1839.75	3.20996
1840	1.27679
1840.26	0.31502
1840.51	7.07364
1840.76	1.24681
1841.01	2.20054
1841.27	1.22206
1841.52	1.21159
1841.77	2.16758
1842.02	3.12383
1842.27	0.219975
1842.53	-0.751711
1842.78	3.09963
1843.03	1.1762
1843.28	1.17483
1843.53	3.10798
1843.78	-3.64375
1844.04	0.215792
1844.29	3.10784
1844.54	4.07318
1844.79	1.18365
1845.04	2.14976
1845.3	3.11092
1845.55	5.04197
1845.8	1.18482
1846.05	4.09082
1846.3	-1.68859
1846.55	6.0471
1846.81	1.23644
1847.06	3.15523
1847.31	1.18851
1847.56	0.184563
1847.81	4.02776
1848.07	2.10377
1848.32	3.08048
1848.57	0.202845
1848.82	3.08043
1849.07	3.07388
1849.32	0.186729
1849.57	1.14524
1849.83	4.98816
1850.08	2.09344
1850.33	4.00992
1850.58	0.154264
1850.83	0.147682
1851.09	0.141874
1851.34	-2.74497
1851.59	3.01451
1851.84	-1.79094
1852.09	1.08796
1852.34	4.928
1852.59	3.96775
1852.84	2.04758
1853.1	1.08748
1853.35	2.04716
1853.6	0.12538
1853.85	0.12291
1854.1	2.0381
1854.35	2.03106
1854.6	2.98208
1854.86	-0.86146
1855.11	1.05272
1855.36	3.92513
1855.61	2.95866
1855.86	1.99179
1856.11	0.0710392
1856.36	-0.889036
1856.61	2.9409
1856.87	-0.890478
1857.12	4.85608
1857.37	-0.891977
1857.62	3.89425
1857.87	0.060482
1858.12	1.0148
1858.37	1.01068
1858.63	-0.908804
1858.88	0.999527
1859.13	3.86352
1859.38	4.81293
1859.63	0.980459
1859.88	3.84386
1860.13	1.93074
1860.38	1.93043
1860.63	-0.936722
1860.89	1.93588
1861.14	0.983381
1861.39	0.0298996
1861.64	3.86087
1861.89	-1.87687
1862.14	0.994633
1862.39	0.99275
1862.64	1.94521
1862.9	0.982489
1863.15	1.93234
1863.4	0.969427
1863.65	1.91897
1863.9	5.73557
1864.15	1.90699
1864.4	0.946171
1864.65	-0.014143
1864.9	-1.92923
1865.15	1.88469
1865.4	5.69562
1865.66	-0.994095
1865.91	1.85936
1866.16	2.8023
1866.41	-1.02255
1866.66	0.872391
1866.91	-0.0912609
1867.16	4.65789
1867.41	2.74203
1867.66	0.828506
1867.91	8.428
1868.16	3.66727
1868.41	2.71236
1868.67	1.75875
1868.92	4.60996
1869.17	6.51169
1869.42	3.65811
1869.67	6.50742
1869.92	2.70188
1870.17	4.60017
1870.42	2.69642
1870.67	2.69378
1870.92	-0.159882
1871.17	4.59016
1871.42	3.63796
1871.67	0.783634
1871.92	1.72965
1872.17	0.773806
1872.42	2.66927
1872.68	4.56485
1872.93	1.70914
1873.18	6.44983
1873.43	1.69742
1873.68	3.59332
1873.93	-3.0551
1874.18	-0.212301
1874.43	4.52627
1874.68	6.41577
1874.93	2.6127
1875.18	5.44898
1875.43	2.59536
1875.68	3.53397
1875.93	6.36462
1876.18	2.55884
1876.43	9.17287
1876.68	6.3224
1876.93	4.42134
1877.18	2.5238
1877.43	5.34496
1877.68	4.38071
1877.93	3.40308
1878.18	4.36768
1878.44	6.36353
1878.69	0.639938
1878.93	4.41185
1879.19	0.621923
1879.44	7.27182
1879.69	0.652086
1879.94	1.58976
1880.19	10.1016
1880.44	4.41702
1880.69	4.413
1880.94	1.5763
1881.19	0.621717
1881.44	2.51172
1881.69	2.49864
1881.94	3.42929
1882.19	6.24955
1882.44	3.39665
1882.69	3.37869
1882.94	0.526548
1883.19	3.34749
1883.44	4.26812
1883.69	4.45127
1883.94	0.547606
1884.19	5.19383
1884.44	5.19368
1884.69	6.15147
1884.94	0.477997
1885.19	1.42749
1885.44	4.2681
1885.69	3.3261
1885.94	3.32705
1886.19	3.3378
1886.44	3.34163
1886.69	7.12121
1886.94	0.504814
1887.19	2.38
1887.44	2.37151
1887.69	4.2499
1887.94	3.29702
1888.19	6.11667
1888.44	2.3342
1888.69	5.14858
1888.94	2.30939
1889.19	4.18199
1889.44	-1.47865
1889.69	1.33892
1889.94	6.04194
1890.19	2.27249
1890.44	3.21347
1890.69	4.15838
1890.94	1.33648
1891.19	6.04484
1891.43	-0.552259
1891.68	2.26803
1891.94	-1.50249
1892.18	2.25991
1892.43	3.1972
1892.68	5.07648
1892.93	1.30331
1893.18	7.88418
1893.43	3.16495
1893.68	1.26596
1893.93	5.01055
1894.18	1.24446
1894.43	3.12546
1894.68	1.23314
1894.93	4.98355
1895.18	4.03872
1895.43	4.97581
1895.68	3.09568
1895.93	0.276312
1896.18	4.03499
1896.43	2.1556
1896.68	1.21655
1896.93	5.91933
1897.18	2.15957
1897.42	1.21914
1897.68	2.15881
1897.92	4.03801
1898.17	4.03454
1898.42	2.14824
1898.67	4.02281
1898.92	3.07421
1899.17	2.12453
1899.42	2.11443
1899.67	4.92514
1899.92	-0.719051
1900.17	1.15347
1900.42	3.96492
1900.67	2.08176
1900.92	1.13968
1901.16	-0.740267
1901.41	6.77715
1901.66	0.201136
1901.91	-1.6778
1902.16	4.90469
1902.41	2.08657
1902.66	5.85119
1902.91	2.08524
1903.16	6.78235
1903.41	4.8945
1903.66	5.82775
1903.91	3.0005
1904.16	0.174265
1904.41	2.99002
1904.65	2.04526
1904.9	3.92089
1905.15	3.91561
1905.4	2.97063
1905.65	-0.793808
1905.9	3.9011
1906.15	2.00993
1906.4	1.05772
1906.65	1.0504
1906.9	1.98274
1907.14	1.03712
1907.39	1.03141
1907.64	1.9668
1907.89	2.90351
1908.14	4.78156
1908.39	2.90423
1908.64	3.842
1908.89	-3.67677
1909.14	1.01962
1909.39	3.83901
1909.63	1.02065
1909.88	0.0827141
1910.13	4.78855
1910.38	1.03066
1910.63	1.97654
1910.88	5.74643
1911.13	3.86572
1911.38	0.0986252
1911.62	5.74858
1911.87	1.03574
1912.12	2.91537
1912.37	1.02553
1912.62	1.96148
1912.87	1.95674
1913.12	1.01064
1913.37	4.77392
1913.61	0.0613041
1913.86	-1.82332
1914.11	5.71733
1914.36	1.00946
1914.61	1.01105
1914.86	4.78415
1915.11	0.0699253
1915.36	1.01383
1915.6	5.73103
1915.85	0.0666637
1916.1	5.72348
1916.35	3.82958
1916.6	6.65423
1916.85	0.0419083
1917.1	1.91873
1917.34	1.90975
1917.59	5.67303
1917.84	1.89445
1918.09	2.83115
1918.34	3.77018
1918.59	0.940994
1918.83	0.942108
1919.08	7.54792
1919.33	2.83477
1919.58	1.89503
1919.83	-2.82038
1920.08	0.961452
1920.33	2.8515
1920.57	0.958357
1920.82	1.89572
1921.07	-0.941732
1921.32	3.78534
1921.57	3.78819
1921.81	2.84239
1922.06	2.8416
1922.31	4.73096
1922.56	-0.948221
1922.81	0.936718
1923.06	3.7649
1923.31	0.919962
1923.55	6.5849
1923.8	4.68725
1924.05	4.67987
1924.3	5.61617
1924.55	-1.00802
1924.79	1.81873
1925.04	0.868261
1925.29	3.69889
1925.54	5.58764
1925.79	1.8088
1926.04	1.81206
1926.28	-1.02245
1926.53	2.76249
1926.78	3.71138
1927.03	0.875982
1927.28	3.71651
1927.52	4.66284
1927.77	0.874224
1928.02	1.81971
1928.27	7.50121
1928.52	-1.02601
1928.76	6.54994
1929.01	-0.0834732
1929.26	5.60072
1929.51	4.65289
1929.76	2.75841
1930	1.8137
1930.25	-1.03019
1930.5	2.76747
1930.75	3.71827
1931	4.67029
1931.24	0.869875
1931.49	1.81514
1931.74	0.858816
1931.99	2.74915
1932.24	5.58801
1932.48	6.52788
1932.73	-1.07248
1932.98	1.76518
1933.23	2.70774
1933.47	-0.14662
1933.72	3.64449
1933.97	0.800838
1934.22	2.70694
1934.46	-1.0804
1934.71	2.73876
1934.96	1.80531
1935.21	2.77221
1935.46	-2.93404
1935.7	4.69921
1935.95	0.888823
1936.2	4.67963
1936.45	3.71859
1936.69	4.66476
1936.94	-2.01424
1937.19	-1.07127
1937.44	0.822861
1937.68	3.66937
1937.93	1.75422
1938.18	2.69623
1938.43	1.73384
1938.68	0.776794
1938.92	3.63663
1939.17	4.58705
1939.42	-2.07979
1939.67	1.72874
1939.91	4.58487
1940.16	0.773478
1940.41	-0.183418
1940.66	1.72345
1940.9	-0.181816
1941.15	1.73698
1941.4	1.74194
1941.64	-4.94331
1941.89	1.72821
1942.14	2.6675
1942.39	0.739422
1942.63	1.6971
1942.88	3.62807
1943.13	5.53922
1943.38	6.49016
1943.62	2.65442
1943.87	1.68287
1944.12	3.57607
1944.37	2.63444
1944.61	1.68056
1944.86	1.68085
1945.11	-4.04823
1945.35	2.63825
1945.6	-0.226648
1945.85	0.729832
1946.1	2.64209
1946.34	3.59811
1946.59	4.55343
1946.84	-0.230385
1947.09	-0.234156
1947.33	-0.239927
1947.58	3.57809
1947.83	4.52616
1948.07	5.47644
1948.32	-1.22261
1948.57	-4.09675
1948.82	4.50161
1949.06	1.62921
1949.31	1.62869
1949.56	-1.24096
1949.8	1.6291
1950.05	0.673477
1950.3	2.58946
1950.54	4.5111
1950.79	2.60301
1951.04	-1.22647
1951.29	2.61288
1951.53	5.49667
1951.78	1.66444
1952.03	2.62714
1952.27	2.6273
1952.52	1.66591
1952.77	0.704462
1953.01	0.698175
1953.26	3.57928
1953.51	1.65955
1953.76	2.60745
1954	-1.24905
1954.25	1.60922
1954.49	-0.328989
1954.74	2.52837
1954.99	-1.32192
1955.24	3.4593
1955.48	2.49504
1955.73	3.45109
1955.98	2.49512
1956.22	8.25418
1956.47	-1.32203
1956.72	0.598742
1956.96	-0.358316
1957.21	2.52124
1957.46	4.44326
1957.7	1.56225
1957.95	1.56197
1958.2	3.48242
1958.44	-2.2864
1958.69	1.55449
1958.94	1.55056
1959.18	3.46533
1959.43	-0.389238
1959.68	0.563828
1959.92	1.51838
1960.17	3.43033
1960.42	-2.34263
1960.66	0.529749
1960.91	2.44057
1961.16	2.43007
1961.4	3.37976
1961.65	0.490898
1961.9	0.482983
1962.14	0.478523
1962.39	3.35388
1962.63	-0.489422
1962.88	-3.37313
1963.13	0.461954
1963.37	1.41757
1963.62	1.41323
1963.87	0.448887
1964.11	2.36494
1964.36	0.442711
1964.61	-3.40088
1964.85	-0.525799
1965.1	2.34755
1965.35	-6.29911
1965.59	2.33651
1965.84	-1.50903
1966.08	0.408659
1966.33	0.408295
1966.58	-2.4734
1966.82	4.25291
1967.07	3.29115
1967.32	-0.555357
1967.56	-3.44496
1967.81	-0.566467
1968.05	-0.569561
1968.3	-1.53522
1968.55	-1.53942
1968.79	0.377552
1969.04	3.25379
1969.29	1.32128
1969.53	0.348598
1969.78	-1.58592
1970.02	-1.59869
1970.27	0.310009
1970.52	-0.660379
1970.76	4.12939
1971.01	2.19997
1971.25	-0.687607
1971.5	2.18219
1971.75	-1.66251
1971.99	0.248652
1972.24	-0.713917
1972.48	-0.716789
1972.73	2.15734
1972.98	-0.726234
1973.22	-2.65212
1973.47	0.216227
1973.71	-0.75355
1973.96	-0.763271
1974.21	-1.73037
1974.45	4.9721
1974.7	0.173264
1974.94	2.08519
1975.19	2.08102
1975.44	-1.75639
1975.68	3.99397
1975.93	3.99329
1976.17	-2.72117
1976.42	-1.76487
1976.66	-1.76851
1976.91	-0.81356
1977.16	3.0184
1977.4	-2.74294
1977.65	2.04622
1977.89	2.03797
1978.14	0.110752
1978.39	0.101439
1978.63	-2.78306
1978.88	1.04348
1979.12	1.99515
1979.37	-0.885439
1979.61	1.98576
1979.86	1.9808
1980.1	1.97682
1980.35	2.93075
1980.6	-0.911032
1980.84	-0.920486
1981.09	-0.92972
1981.33	-2.85309
1981.58	1.92839
1981.82	1.92031
1982.07	4.78675
1982.31	-0.965921
1982.56	-0.971951
1982.81	-0.0232811
1983.05	0.924831
1983.3	3.78518
1983.54	1.85773
1983.79	-1.0234
1984.03	3.75228
1984.28	-0.0810604
1984.52	2.78086
1984.77	-3.92167
1985.02	3.7218
1985.26	0.843513
1985.51	3.69932
1985.75	3.6907
1986	0.818531
1986.24	0.815189
1986.49	-1.09809
1986.73	0.813337
1986.98	-0.145628
1987.22	1.76087
1987.47	1.75796
1987.71	0.792267
1987.96	0.779627
1988.21	-1.14508
1988.45	3.6166
1988.7	0.734625
1988.94	-1.18586
1989.19	-0.223999
1989.43	1.55632
1989.68	1.51517
1989.92	4.36435
1990.17	0.613295
1990.41	-0.503588
1990.66	-0.258648
1990.9	-2.21636
1991.15	0.764856
1991.39	2.33536
1991.64	1.0337
1991.88	0.929968
1992.13	0.579529
1992.37	-1.84672
1992.62	-0.899961
1992.86	-2.28341
1993.11	-1.27963
1993.35	0.164425
1993.6	1.64781
1993.84	1.39306
1994.09	-1.2289
1994.33	0.871269
1994.58	1.47457
1994.82	-1.7734
1995.07	1.15256
1995.31	-2.6719
1995.56	0.791096
1995.8	0.00165558
1996.05	0.0302486
1996.29	-0.898092
1996.54	1.38624
1996.78	-1.0966
1997.03	0.779909
1997.27	2.6036
1997.52	0.126671
1997.76	0.128622
1998.01	0.00974083
1998.25	-0.673353
1998.5	-2.46187
1998.74	-0.633051
1998.99	-0.804422
1999.23	0.266199
1999.48	1.23777
1999.72	0.406086
1999.97	-0.586899
2000.21	2.35332
2000.46	-0.601145
2000.7	1.33832
2000.95	0.0771561
2001.19	1.59068
2001.43	0.568184
2001.68	0.565117
2001.92	-0.447353
2002.17	0.741316
2002.41	-0.649256
2002.66	0.612343
2002.9	-0.0394154
2003.15	0.495308
2003.39	-1.55939
2003.64	-0.331121
2003.88	2.52705
2004.13	0.304508
2004.37	-0.955873
2004.61	-1.41063
2004.86	0.255756
2005.1	-1.01586
2005.35	-0.832458
2005.59	-1.84699
2005.84	-0.0236378
2006.08	1.78655
2006.33	0.634659
2006.57	-0.0660896
2006.81	0.56904
2007.06	0.302975
2007.3	0.161293
2007.55	-0.0913982
2007.79	0.451729
2008.04	1.24062
2008.28	0.229244
2008.53	-0.271446
2008.77	1.47694
2009.01	1.71311
2009.26	-1.96249
2009.5	-1.90902
2009.75	0.563875
2009.99	-0.776697
2010.24	2.91235
2010.48	1.85827
2010.73	0.38541
2010.97	-0.398769
2011.21	-1.73867
2011.46	1.0695
2011.7	-2.89839
2011.95	-0.314814
2012.19	-1.2433
2012.43	-0.317869
2012.68	-2.20615
2012.92	2.49693
2013.17	-3.15971
2013.42	-4.11097
2013.67	-2.24268
2013.91	1.50919
2014.16	-1.32291
2014.41	-0.396301
2014.66	-1.35065
2014.9	2.39018
2015.15	-1.36999
2015.4	-0.433483
2015.64	-2.31052
2015.89	0.506578
2016.14	1.44545
2016.39	1.43981
2016.63	2.38235
2016.88	-1.36024
2017.13	1.45979
2017.37	-0.424301
2017.62	1.44864
2017.87	-0.439058
2018.11	0.490095
2018.36	-3.2774
2018.61	1.40341
2018.86	1.39134
2019.1	-2.37164
2019.35	-2.38297
2019.6	-2.39356
2019.84	2.28368
2020.09	0.403811
2020.34	1.33581
2020.58	-0.540695
2020.83	1.32858
2021.08	1.32485
2021.33	3.19673
2021.57	-1.48751
2021.82	-0.553421
2022.07	-0.557209
2022.31	0.374487
2022.56	1.30478
2022.81	1.29734
2023.05	2.22457
2023.3	-3.39975
2023.55	-1.53571
2023.8	0.327374
2024.04	1.25458
2024.29	1.24653
2024.54	-1.56508
2024.78	-1.57495
2025.03	-2.5193
2025.27	1.20615
2025.52	-1.60473
2025.77	-2.54705
2026.02	0.243452
2026.26	1.16511
2026.51	-0.700321
2026.76	-1.62722
2027	-3.48289
2027.25	2.13653
2027.5	1.2213
2027.74	2.168
2027.99	-0.644663
2028.23	-0.661797
2028.48	1.18259
2028.73	1.11177
2028.98	2.11016
2029.22	-2.48429
2029.47	-2.52947
2029.72	2.17069
2029.96	1.18793
2030.21	3.02582
2030.45	1.1273
2030.7	0.190943
2030.95	-0.762993
2031.19	1.11684
2031.44	0.196285
2031.69	-2.60874
2031.93	1.12138
2032.18	-1.67935
2032.43	0.191633
2032.67	1.13108
2032.92	1.13813
2033.17	0.209929
2033.41	1.14861
2033.66	-1.65271
2033.91	0.221888
2034.15	0.223246
2034.4	-1.66091
2034.64	1.12416
2034.89	0.163332
2035.14	-1.71077
2035.38	2.02972
2035.63	-3.56502
2035.87	-2.62134
2036.12	1.13148
2036.37	-1.66363
2036.61	1.13927
2036.86	-1.68021
2037.11	2.99258
2037.35	-1.67814
2037.6	-0.745274
2037.84	1.12164
2038.09	-0.752592
2038.34	2.98178
2038.58	1.10669
2038.83	-2.63725
2039.08	-1.70822
2039.32	-0.779451
2039.57	0.148705
2039.81	1.0766
2040.06	-2.6656
2040.31	-1.74009
2040.55	-3.6144
2040.8	-0.822737
2041.04	-3.62824
2041.29	0.0957336
2041.54	-0.842619
2041.78	-2.71081
2042.03	3.81156
2042.27	-0.854414
2042.52	0.0730381
2042.77	-0.865547
2043.01	3.78939
2043.26	0.0607681
2043.5	-0.870579
2043.75	0.06604
2044	-0.858376
2044.24	-3.64886
2044.49	0.0844898
2044.73	-0.851252
2044.98	-2.72384
2045.23	1.92627
2045.47	1.90148
2045.72	-4.59639
2045.96	-1.79332
2046.21	1.97378
2046.45	0.143192
2046.7	3.8609
2046.95	-0.837999
2047.19	0.0767193
2047.44	2.87646
2047.68	-0.865593
2047.93	-6.47994
2048.17	-2.75644
2048.42	-2.75701
2048.67	4.70076
2048.91	0.971888
2049.16	-0.891823
2049.4	-0.887232
2049.65	-0.883686
2049.89	-0.878428
2050.14	-3.67187
2050.39	-4.6015
2050.63	-1.79519
2050.88	-2.72722
2051.12	-0.858974
2051.37	-0.861773
2051.61	-2.73585
2051.86	0.0577755
2052.11	2.85741
2052.35	0.0554562
2052.6	2.85959
2052.84	-2.74414
2053.09	0.993387
2053.33	0.0620041
2053.58	1.93441
2053.82	1.93993
2054.07	0.0808964
2054.31	2.89015
2054.56	0.0863209
2054.8	0.0859661
2055.05	1.01969
2055.3	-4.59514
2055.54	2.88495
2055.79	-0.86306
2056.03	1.00316
2056.28	1.9358
2056.52	0.0624619
2056.77	1.92828
2057.01	-2.74806
2057.26	-0.87986
2057.5	1.92446
2057.75	-0.879036
2058	-5.55197
2058.24	2.86576
2058.49	2.86888
2058.73	-3.67385
2058.98	1.94405
2059.22	0.0767136
2059.47	1.01558
2059.71	1.95231
2059.96	-2.7281
2060.2	2.88865
2060.45	-1.79614
2060.69	-0.86451
2060.94	-0.867939
2061.18	1.94184
2061.43	2.88087
2061.67	0.074131
2061.92	1.94684
2062.16	1.01027
2062.41	-1.79864
2062.65	-0.86149
2062.9	1.94964
2063.14	-0.857349
2063.39	-2.72758
2063.63	1.96007
2063.88	1.0257
2064.12	0.0905075
2064.37	1.9664
2064.61	1.96777
2064.86	1.03259
2065.1	3.8485
2065.35	-0.834991
2065.59	2.92402
2065.84	1.99244
2066.08	1.05946
2066.33	-0.813942
2066.57	2.00559
2066.82	0.127975
2067.06	-0.809231
2067.31	-2.68574
2067.55	0.133507
2067.8	1.07557
2068.04	1.07913
2068.29	0.142256
2068.53	-0.795633
2068.78	-2.67472
2069.02	2.02835
2069.27	-3.61253
2069.51	-2.67612
2069.76	-1.74316
2070	-1.75351
2070.25	-3.63614
2070.49	1.06135
2070.73	-1.74748
2070.98	0.143547
2071.22	2.03688
2071.47	-0.787178
2071.71	-0.794662
2071.96	0.173033
2072.2	2.06601
2072.45	3.94703
2072.69	1.11961
2072.94	-0.764839
2073.18	1.11571
2073.43	1.11521
2073.67	3.93781
2073.92	2.99713
2074.16	2.05607
2074.4	0.173985
2074.65	2.05976
2074.89	-0.7614
2075.14	0.186609
2075.38	-0.747822
2075.63	-0.737755
2075.87	-0.725689
2076.12	1.17001
2076.36	0.230408
2076.6	-1.65734
2076.85	1.17546
2077.09	0.228424
2077.34	-1.66444
2077.58	2.10425
2077.83	2.09178
2078.07	-1.68351
2078.31	0.205137
2078.56	-1.67651
2078.8	4.92911
2079.05	1.15746
2079.29	2.10451
2079.54	4.94216
2079.78	-0.710306
2080.03	2.12778
2080.27	-1.64666
2080.51	1.19131
2080.76	3.0844
2081	0.249571
2081.25	-1.64297
2081.49	-0.699928
2081.74	-1.64564
2081.98	2.13317
2082.22	-4.48147
2082.47	-2.59041
2082.71	-2.58894
2082.96	-2.58788
2083.2	2.13749
2083.45	-1.64312
2083.69	3.08064
2083.93	0.244608
2084.18	1.18946
2084.42	0.24472
2084.67	4.02412
2084.91	-0.700365
2085.15	-0.69973
2085.4	-4.47968
2085.64	-1.64482
2085.89	-5.42489
2086.13	1.19197
2086.37	5.92516
2086.62	1.20653
2086.86	0.2665
2087.11	-3.51503
2087.35	2.16404
2087.59	4.06093
2087.84	-0.668142
2088.08	0.278385
2088.32	1.22515
2088.57	-0.667028
2088.81	-0.665981
2089.06	-1.61126
2089.3	-0.66361
2089.54	0.286804
2089.79	-2.54972
2090.03	4.08613
2090.28	-0.647413
2090.52	1.24843
2090.76	-1.59183
2091.01	-2.53717
2091.25	-1.58717
2091.5	-1.58461
2091.74	1.26123
2091.98	1.26787
2092.23	2.22373
2092.47	-1.56229
2092.72	5.08781
2092.96	0.351633
2093.2	1.3079
2093.45	-1.53504
2093.69	-2.47921
2093.93	3.22799
2094.18	-3.41973
2094.42	0.387012
2094.66	-0.562174
2094.91	0.388636
2095.15	-2.46457
2095.39	-1.51539
2095.64	0.381878
2095.88	-0.572855
2096.13	2.27443
2096.37	3.22158
2096.61	1.31968
2096.86	-1.53104
2097.1	-0.581902
2097.34	0.364847
2097.59	-0.58952
2097.83	-1.54353
2098.07	2.25212
2098.32	1.30155
2098.56	-4.3951
2098.8	3.19517
2099.05	1.29713
2099.29	-0.601561
2099.53	-2.5009
2099.78	-0.603689
2100.02	2.24305
2100.27	2.24347
2100.51	-2.50072
2100.75	-3.44846
2101	-0.598608
2101.24	-0.592617
2101.48	1.31145
2101.73	-2.48417
2101.97	2.26649
2102.21	0.367058
2102.45	-0.583145
2102.7	1.31682
2102.94	0.365767
2103.18	1.31161
2103.43	2.25599
2103.67	1.30394
2103.92	-1.5444
2104.16	1.30221
2104.4	0.353666
2104.64	0.35598
2104.89	0.360004
2105.13	0.363914
2105.37	-1.53196
2105.62	1.3221
2105.86	-2.47257
2106.1	3.23396
2106.35	2.28679
2106.59	-0.561981
2106.83	1.34074
2107.08	0.391439
2107.32	-0.556795
2107.56	0.395037
2107.8	-0.558123
2108.05	3.23963
2108.29	-0.568254
2108.53	-4.37453
2108.78	1.31882
2109.02	0.364136
2109.26	1.31184
2109.51	0.36367
2109.75	6.06879
2109.99	0.375492
2110.23	0.37602
2110.48	-1.5236
2110.72	-1.5234
2110.96	-0.573212
2111.21	0.377087
2111.45	-2.47284
2111.69	-1.52415
2111.93	0.372568
2112.18	3.21939
2112.42	0.369099
2112.66	2.26851
2112.91	0.37192
2113.15	-2.47478
2113.39	1.32787
2113.63	-4.36674
2113.88	-0.56085
2114.12	-3.40977
2114.36	-1.50986
2114.61	-1.51162
2114.85	1.33919
2115.09	-1.51052
2115.33	0.391104
2115.58	0.390032
2115.82	-1.51239
2116.06	1.33673
2116.31	-1.51556
2116.55	-2.46981
2116.79	-1.52397
2117.03	3.22255
2117.28	1.32215
2117.52	0.371763
2117.76	-0.576603
2118	1.32032
2118.25	0.367178
2118.49	1.31258
2118.73	-0.591852
2118.97	3.19623
2119.22	-1.55217
2119.46	2.23642
2119.7	-3.45739
2119.94	-3.4614
2120.19	2.22131
2120.43	-2.52015
2120.67	2.21657
2120.91	-3.46775
2121.16	3.16993
2121.4	2.22494
2121.64	4.12716
2121.88	0.341297
2122.13	0.346977
2122.37	2.24969
2122.61	-3.43837
2122.85	1.31013
2123.1	0.364649
2123.34	1.31699
2123.58	-2.47807
2123.82	4.16875
2124.07	-0.579859
2124.31	-0.582283
2124.55	1.31202
2124.79	1.30564
2125.03	1.29575
2125.28	4.1277
2125.52	0.325174
2125.76	1.2642
2126	5.99125
2126.25	-3.48389
2126.49	0.296532
2126.73	1.23775
2126.97	0.286577
2127.21	3.11887
2127.46	1.22215
2127.7	1.22008
2127.94	1.21895
2128.18	0.272175
2128.43	0.269732
2128.67	-1.62218
2128.91	0.268597
2129.15	1.21415
2129.39	2.15853
2129.64	-1.62408
2129.88	2.15492
2130.12	2.15389
2130.36	1.20774
2130.6	-1.62853
2130.85	3.09433
2131.09	-1.63219
2131.33	-3.52418
2131.57	-1.63801
2131.81	0.247358
2132.06	-0.700232
2132.3	0.241756
2132.54	-1.64905
2132.78	3.06603
2133.02	0.229986
2133.27	0.227741
2133.51	3.0583
2133.75	-0.715052
2133.99	0.229628
2134.23	0.229965
2134.48	1.17488
2134.72	2.11952
2134.96	-1.6561
2135.2	1.17448
2135.44	4.00491
2135.68	4.00355
2135.93	0.226549
2136.17	-1.66441
2136.41	2.10122
2136.65	1.15055
2136.89	0.20417
2137.14	-1.6802
2137.38	-2.62201
2137.62	-0.735985
2137.86	0.209473
2138.1	-2.61457
2138.34	-3.55925
2138.59	-1.67959
2138.83	-0.741791
2139.07	-1.68026
2139.31	3.04224
2139.55	-1.66781
2139.79	0.206587
2140.03	1.13976
2140.28	3.01989
2140.52	-0.752836
2140.76	2.07019
2141	1.12539
2141.24	0.181492
2141.49	2.06302
2141.73	0.179775
2141.97	1.11636
2142.21	4.87615
2142.45	1.10832
2142.69	0.166954
2142.93	-1.71139
2143.18	-3.59127
2143.42	3.02238
2143.66	-1.69878
2143.9	2.00364
2144.14	-0.815596
2144.38	-0.811361
2144.62	2.01722
2144.87	-0.795443
2145.11	-0.790918
2145.35	2.01596
2145.59	-1.74294
2145.83	1.07875
2146.07	-0.803289
2146.31	-0.805422
2146.55	-0.807608
2146.8	3.89028
2147.04	0.128139
2147.28	-0.814316
2147.52	2.94097
2147.76	1.05797
2148	1.05462
2148.24	3.86982
2148.48	-1.76916
2148.73	1.98452
2148.97	-2.71422
2149.21	2.91545
2149.45	2.90963
2149.69	1.02601
2149.93	1.01522
2150.17	0.0712929
2150.42	2.87713
2150.66	0.0591793
2150.9	0.993692
2151.14	-3.69351
2151.38	1.93207
2151.62	3.81119
2151.86	0.0632381
2152.1	1.94224
2152.34	0.0680122
2152.58	0.0711174
2152.83	1.94281
2153.07	-1.81205
2153.31	0.0585251
2153.55	4.74099
2153.79	-0.88563
2154.03	1.92347
2154.27	-1.82954
2154.51	0.975037
2154.75	2.83904
2154.99	-1.85338
2155.24	-0.926975
2155.48	0.932728
2155.72	1.85927
2155.96	-0.95311
2156.2	-0.025032
2156.44	-2.83301
2156.68	1.83529
2156.92	-0.968836
2157.16	-0.969912
2157.4	3.70041
2157.64	-1.90332
2157.89	-1.90075
2158.13	2.77547
2158.37	-0.0247459
2158.61	-0.0242462
2158.85	-0.959665
2159.09	0.908094
2159.33	-0.0292435
2159.57	0.901619
2159.81	0.896961
2160.05	0.891317
2160.29	2.75237
2160.53	-0.989679
2160.77	-1.92887
2161.01	0.865995
2161.25	0.862608
2161.5	2.72688
2161.74	-2.87453
2161.98	2.7205
2162.22	3.65178
2162.46	1.7852
2162.7	0.851709
2162.94	-0.0822964
2163.18	-1.95076
2163.42	-0.0889874
2163.66	0.840244
2163.9	0.836979
2164.14	-0.0988846
2164.38	-0.102468
2164.62	-1.97258
2164.86	0.816387
2165.11	-1.05182
2165.35	-1.05165
2165.59	-2.91378
2165.83	0.813099
2166.07	-0.119171
2166.31	-1.05158
2166.55	4.53551
2166.79	-2.92173
2167.03	-3.85724
2167.27	-1.06813
2167.51	-1.07238
2167.75	2.64532
2167.99	-1.08635
2168.23	-0.168213
2168.47	1.6799
2168.71	2.60464
2168.95	-3.90447
2169.19	1.67408
2169.43	1.67665
2169.67	1.68104
2169.91	-1.10349
2170.15	3.55672
2170.39	-2.01941
2170.63	0.778276
2170.87	-0.151768
2171.11	-4.81055
2171.35	0.770979
2171.59	0.767757
2171.83	1.68732
2172.07	-0.19171
2172.31	-0.20159
2172.56	1.65165
2172.79	2.5754
2173.04	-2.07487
2173.28	3.49804
2173.51	2.56749
2173.76	-1.15021
2174	0.708675
2174.24	2.56935
2174.48	-0.217268
2174.72	4.42975
2174.96	-1.14743
2175.2	-2.07812
2175.44	0.708546
2175.68	-0.223526
2175.92	0.703091
2176.16	0.701088
2176.4	1.62784
2176.64	-2.09193
2176.88	3.47728
2177.12	-2.09913
2177.36	-1.17134
2177.6	-0.242956
2177.84	3.47215
2178.08	0.683523
2178.32	2.54123
2178.55	-1.17812
2178.8	-3.97149
2179.03	-1.1914
2179.28	-1.19325
2179.52	4.37741
2179.75	-0.265877
2180	-1.19539
2180.23	-0.268246
2180.47	1.58731
2180.71	-0.27169
2180.95	-1.20293
2181.19	2.50773
2181.43	-0.279341
2181.67	1.5744
2181.91	1.57
2182.15	1.56572
2182.39	1.563
2182.63	-2.15329
2182.87	-0.301161
2183.11	-1.23249
2183.35	-0.310793
2183.59	-0.317598
2183.83	-0.325966
2184.07	-0.332432
2184.31	-6.82467
2184.55	-0.342541
2184.79	-1.27161
2185.03	-4.97859
2185.27	1.50853
2185.51	-1.27119
2185.75	-1.27086
2185.99	-1.26949
2186.23	0.587099
2186.47	-1.26441
2186.7	1.52048
2186.95	-0.329071
2187.18	-4.03534
2187.42	0.610481
2187.66	-1.24091
2187.9	1.54883
2188.14	1.54874
2188.38	-2.17039
2188.62	-1.24721
2188.86	0.603512
2189.1	-4.97244
2189.34	0.589048
2189.58	-2.20244
2189.82	-0.356508
2190.06	3.34381
2190.3	0.557537
2190.54	-0.372086
2190.78	3.33482
2191.01	3.33558
2191.25	1.48195
2191.49	2.40748
2191.73	1.48019
2191.97	0.553402
2192.21	1.48139
2192.45	0.554537
2192.69	-0.37265
2192.93	4.26607
2193.17	1.48578
2193.41	1.4886
2193.65	1.49114
2193.89	-0.361439
2194.13	1.50459
2194.36	0.586176
2194.6	-0.336958
2194.84	0.595263
2195.08	1.5218
2195.32	-3.1306
2195.56	0.583231
2195.8	0.577562
2196.04	0.570436
2196.28	3.34809
2196.52	-0.377329
2196.76	2.39782
2197	1.46144
2197.23	0.526903
2197.47	1.44857
2197.71	-1.33959
2197.95	-3.19632
2198.19	-0.414902
2198.43	1.44113
2198.67	-1.33817
2198.91	0.522041
2199.15	0.527618
2199.38	0.534359
2199.62	1.46877
2199.86	-2.24183
2200.1	-1.30678
2200.34	6.14318
2200.58	-0.356527
2200.82	2.4459
2201.06	4.31781
2201.3	-2.19754
2201.54	-2.194
2201.77	2.45272
2202.01	4.28459
2202.25	1.43608
2202.49	-1.38461
2202.73	4.19531
2202.97	0.52495
2203.21	0.5425
2203.45	-1.32645
2203.68	0.526358
2203.92	1.47667
2204.16	-1.24296
2204.4	3.38909
2204.64	-1.27713
2204.88	1.52252
2205.12	-0.361055
2205.36	-0.384445
2205.59	1.45528
2205.83	2.36871
2206.07	1.43295
2206.31	-0.427952
2206.55	2.36537
2206.79	0.504284
2207.03	-1.36626
2207.26	2.35191
2207.5	1.42402
2207.74	2.35679
2207.98	-1.36058
2208.22	-0.427256
2208.46	0.506449
2208.7	-0.421366
2208.93	-0.419094
2209.17	0.513435
2209.41	-2.27976
2209.65	-1.34916
2209.89	-0.419792
2210.13	2.3713
2210.36	-2.28647
2210.6	1.44009
2210.84	-1.35308
2211.08	-1.35146
2211.32	-0.417952
2211.56	3.31183
2211.8	0.517746
2212.03	0.521042
2212.27	1.45692
2212.51	1.45871
2212.75	-0.407177
2212.99	1.45465
2213.23	-3.21363
2213.46	4.24314
2213.7	1.43902
2213.94	0.499992
2214.18	0.499233
2214.42	1.43458
2214.66	0.510149
2214.89	0.51766
2215.13	-1.34865
2215.37	2.38524
2215.61	-3.21665
2215.85	1.45028
2216.08	1.44878
2216.32	-1.35426
2216.56	0.51055
2216.8	2.37497
2217.04	-2.29643
2217.28	-1.36594
2217.51	0.498955
2217.75	-1.3695
2217.99	-1.37063
2218.23	6.09637
2218.47	-0.441736
2218.7	0.490801
2218.94	3.29249
2219.18	0.49239
2219.42	1.42873
2219.66	-0.43721
2219.9	-1.37114
2220.13	-0.435932
2220.37	-5.10884
2220.61	-0.43853
2220.85	-0.441816
2221.09	-2.31397
2221.32	-0.449574
2221.56	-0.457487
2221.8	0.467817
2222.04	1.39386
2222.27	3.25391
2222.51	-3.28622
2222.75	-2.35561
2222.99	-1.42271
2223.23	0.445738
2223.46	-0.486614
2223.7	0.449226
2223.94	3.25561
2224.18	-0.476456
2224.42	-0.47126
2224.65	2.33862
2224.89	-0.462854
2225.13	-1.3953
2225.37	0.478928
2225.6	-2.32502
2225.84	-0.448408
2226.08	0.491207
2226.32	0.494238
2226.56	0.497454
2226.79	-5.12308
2227.03	0.502249
2227.27	-0.432543
2227.51	-0.430889
2227.74	-0.430214
2227.98	3.32028
2228.22	-2.30915
2228.46	-0.437706
2228.69	2.37118
2228.93	2.36711
2229.17	0.48843
2229.41	-2.32757
2229.64	-1.39235
2229.88	2.35988
2230.12	0.488955
2230.36	2.36909
2230.6	0.495119
2230.83	1.43622
2231.07	2.37803
2231.31	-1.37401
2231.55	-0.431688
2231.78	-0.428007
2232.02	1.45356
2232.26	-3.24215
2232.5	-0.42034
2232.73	-0.417774
2232.97	2.40542
2233.21	2.40837
2233.45	-2.29229
2233.68	2.41385
2233.92	1.47574
2234.16	-0.405087
2234.39	1.47806
2234.63	-0.408039
2234.87	0.528996
2235.11	0.523802
2235.34	-3.24648
2235.58	0.506052
2235.82	-1.38321
2236.06	2.37657
2236.29	-1.38607
2236.53	-1.38695
2236.77	-3.26883
2237	-1.389
2237.24	-2.33053
2237.48	2.37686
2237.72	3.32153
2237.95	-0.435566
2238.19	-5.13675
2238.43	-2.30486
2238.67	1.46907
2238.9	-1.35434
2239.14	0.536659
2239.38	1.48709
2239.61	-2.28698
2239.85	-1.34767
2240.09	-0.409679
2240.33	0.524446
2240.56	-0.426514
2240.8	1.45387
2241.04	-3.25239
2241.27	-3.24634
2241.51	0.526958
2241.75	-1.36059
2241.99	2.41376
2242.22	-1.3614
2242.46	1.47
2242.7	0.526934
2242.93	-0.415983
2243.17	2.4147
2243.41	-0.420473
2243.64	-0.425714
2243.88	-0.431364
2244.12	0.508463
2244.36	1.44942
2244.59	-0.439154
2244.83	-0.437445
2245.07	-3.26477
2245.3	0.520187
2245.54	0.527443
2245.78	0.531406
2246.01	-1.35624
2246.25	-2.29879
2246.49	0.541046
2246.72	2.43524
2246.96	0.544018
2247.2	0.54595
2247.43	-5.13001
2247.67	-0.397846
2247.91	1.49427
2248.14	3.38498
2248.38	2.43522
2248.62	-0.407393
2248.85	-1.35709
2249.09	1.47854
2249.33	-2.30964
2249.56	3.36468
2249.8	-0.417671
2250.04	-2.30947
2250.27	3.36729
2250.51	4.30832
2250.75	1.46236
2250.98	-1.38279
2251.22	0.501362
2251.46	-0.450653
2251.69	-1.40137
2251.93	-2.34987
2252.17	1.43107
2252.4	1.43221
2252.64	0.488827
2252.88	-0.453724
2253.11	2.39104
2253.35	-2.32977
2253.59	-0.42865
2253.82	2.41917
2254.06	0.528639
2254.3	-1.36403
2254.53	0.534897
2254.77	0.536674
2255.01	0.535515
2255.24	-1.36478
2255.48	0.531044
2255.72	-1.36675
2255.95	-3.26391
2256.19	-0.419832
2256.42	1.47959
2256.66	-2.31145
2256.9	3.38359
2257.13	0.539793
2257.37	0.542534
2257.61	-3.25199
2257.84	1.49699
2258.08	-0.400707
2258.32	-3.24963
2258.55	-1.35089
2258.79	-0.401108
2259.02	0.549587
2259.26	-1.34818
2259.5	0.554121
2259.73	4.35601
2259.97	1.50614
2260.2	-2.29387
2260.44	-2.29292
2260.68	2.46104
2260.91	2.46226
2261.15	1.51425
2261.39	-0.381083
2261.62	-0.377243
2261.86	-0.377424
2262.1	1.52578
2262.33	-0.37652
2262.57	-3.2308
2262.8	1.53012
2263.04	-0.369654
2263.28	-4.17451
2263.51	-1.31274
2263.75	0.598906
2263.98	-1.29974
2264.22	-0.338097
2264.46	1.57786
2264.69	-0.32268
2264.93	2.54694
2265.16	-0.311966
2265.4	-1.26304
2265.64	3.51591
2265.87	-1.26033
2266.11	-0.305212
2266.34	0.646954
2266.58	-4.1347
2266.81	-2.23112
2267.05	2.53487
2267.29	-2.24386
2267.52	-0.3403
2267.76	-2.25305
2267.99	-0.349865
2268.23	-1.30999
2268.47	4.40621
2268.7	0.589556
2268.94	1.54295
2269.17	-3.22263
2269.41	-0.357361
2269.65	2.51061
2269.88	1.56312
2270.12	-3.20337
2270.35	-3.19674
2270.59	0.630651
2270.82	1.59027
2271.06	2.54848
2271.3	-1.26992
2271.53	-0.310432
2271.77	-1.26429
2272	-0.305382
2272.24	-1.25804
2272.47	-2.213
2272.71	0.656763
2272.95	-0.299488
2273.18	-0.298885
2273.42	2.5724
2273.65	-4.12513
2273.89	-0.296843
2274.12	0.660875
2274.36	2.57571
2274.6	-1.25215
2274.83	1.62004
2275.07	-1.25082
2275.3	-1.24973
2275.54	1.62318
2275.77	-1.248
2276.01	-0.291876
2276.24	-1.24633
2276.48	-2.19902
2276.72	-1.23582
2276.95	-0.272795
2277.18	-1.22678
2277.42	3.57164
2277.66	-0.255526
2277.89	1.67213
2278.13	0.722366
2278.36	-2.1477
2278.6	-2.14465
2278.83	-3.10378
2279.07	-0.222496
2279.3	-2.14463
2279.54	0.734695
2279.78	3.61038
2280.01	0.717928
2280.24	2.62917
2280.48	-0.256296
2280.72	-3.13939
2280.95	-2.18504
2281.19	-1.22987
2281.42	-2.19105
2281.66	1.63987
2281.89	-0.279669
2282.13	0.681421
2282.36	-2.19271
2282.6	0.686686
2282.83	-0.267313
2283.07	1.65676
2283.3	1.6628
2283.54	-0.249088
2283.77	0.720728
2284.01	-3.10956
2284.24	1.70443
2284.48	-0.205877
2284.71	-2.12264
2284.95	-4.04361
2285.19	4.6197
2285.42	2.70186
2285.65	-2.10773
2285.89	-4.03179
2286.12	0.774746
2286.36	1.72694
2286.59	2.68801
2286.83	1.72834
2287.06	1.73287
2287.3	-2.10454
2287.54	2.71905
2287.77	-0.165754
2288	-1.126
2288.24	2.73447
2288.47	-2.08416
2288.71	-2.08738
2288.94	1.76181
2289.18	1.75726
2289.41	-1.13851
2289.65	2.70199
2289.88	-0.193054
2290.12	2.68166
2290.35	2.67807
2290.59	-0.208364
2290.82	2.67611
2291.06	2.67708
2291.29	-1.16452
2291.53	-3.08141
2291.76	1.73684
2292	0.781006
2292.23	-0.176582
2292.47	1.75354
2292.7	3.68493
2292.94	-1.12337
2293.17	2.73578
2293.41	-3.03995
2293.64	0.818525
2293.88	2.74952
2294.11	-1.10371
2294.34	-2.06875
2294.58	-0.143566
2294.81	-4.00096
2295.05	-0.150951
2295.28	0.809341
2295.52	0.806395
2295.75	-4.97444
2295.99	-0.162443
2296.22	0.797968
2296.46	-4.98242
2296.69	2.70697
2296.93	1.74405
2297.16	1.74697
2297.39	0.789177
2297.63	0.794662
2297.86	-1.12418
2298.1	-0.153749
2298.33	-3.99785
2298.57	-0.13834
2298.8	-1.09772
2299.04	-1.09221
2299.27	1.80717
2299.51	-0.11495
2299.74	1.81935
2299.97	-2.03576
2300.21	1.82326
2300.44	0.859604
2300.68	0.859814
2300.91	1.82845
2301.15	0.869001
2301.38	-1.05692
2301.61	0.87702
2301.85	1.84495
2302.08	-2.01464
2302.32	-0.0839653
2302.55	-0.0852909
2302.79	1.84416
2303.02	0.880619
2303.25	-0.084156
2303.49	-2.97983
2303.72	-0.0840416
2303.96	-0.082613
2304.19	0.885992
2304.43	-0.0739651
2304.66	1.86203
2304.89	-2.96217
2305.13	0.905138
2305.36	-0.0549126
2305.6	1.88113
2305.83	-0.0488071
2306.07	-1.97822
2306.3	0.924847
2306.53	1.89557
2306.77	-0.0352859
2307	2.86598
2307.24	-0.999598
2307.47	-0.0327835
2307.7	3.83182
2307.94	-1.96876
2308.17	3.82821
2308.41	-1.0043
2308.64	-1.00525
2308.87	-1.97034
2309.11	-1.00206
2309.34	-0.997387
2309.58	3.84023
2309.81	0.948311
2310.04	-2.91067
2310.28	-1.93759
2310.51	3.86998
2310.75	0.969692
2310.98	1.93743
2311.21	2.90298
2311.45	1.93055
2311.68	4.81586
2311.92	1.90014
2312.15	0.926212
2312.38	-1.00985
2312.62	3.81362
2312.85	-1.01541
2313.08	0.912333
2313.32	-2.94648
2313.55	2.84715
2313.79	1.89141
2314.02	2.86861
2314.25	2.87793
2314.49	-0.0116081
2314.72	2.89682
2314.95	3.87531
2315.19	5.82071
2315.42	0.0223293
2315.66	-1.91762
2315.89	-1.92231
2316.12	0.97443
2316.36	-2.89757
2316.59	0.955446
2316.82	0.949108
2317.06	1.91206
2317.29	-0.0186634
2317.52	2.88055
2317.76	1.91746
2317.99	-2.90417
2318.23	2.89755
2318.46	-0.974148
2318.69	3.85111
2318.93	-0.0138474
2319.16	1.91393
2319.39	-1.95051
2319.63	2.87243
2319.86	-0.0246315
2320.09	-1.95538
2320.33	2.87022
2320.56	-0.98794
2320.79	1.90762
2321.03	1.91107
2321.26	-0.979668
2321.5	2.88664
2321.73	2.89268
2321.96	1.93377
2322.2	-3.85417
2322.43	0.984997
2322.66	0.992517
2322.9	-0.937578
2323.13	5.82892
2323.36	0.997353
2323.6	3.90046
2323.83	5.83663
2324.06	5.83946
2324.3	5.8411
2324.53	5.84044
2324.76	8.7404
2325	9.69947
2325.23	7.75657
2325.46	10.6436
2325.7	6.77256
2325.93	6.76686
2326.16	11.5883
2326.4	11.5813
2326.63	14.4691
2326.86	21.2148
2327.09	30.8515
2327.33	35.6619
2327.56	38.5413
2327.79	64.562
2328.03	77.0782
2328.26	133.931
2328.49	185.988
2328.73	197.557
2328.96	181.177
2329.19	130.06
2329.43	89.5631
2329.66	54.8555
2329.89	38.4742
2330.13	25.9509
2330.36	19.2148
2330.59	18.2486
2330.82	9.57686
2331.06	7.64752
2331.29	7.64625
2331.52	6.68528
2331.76	2.83687
2331.99	5.73143
2332.22	5.73859
2332.46	3.80315
2332.69	2.83394
2332.92	-1.02263
2333.16	0.899481
2333.39	0.895592
2333.62	-1.03349
2333.85	-1.99924
2334.09	1.84793
2334.32	0.881256
2334.55	1.83845
2334.79	0.868849
2335.02	3.74963
2335.25	-0.10091
2335.48	-1.06428
2335.72	-1.06651
2335.95	0.856806
2336.18	0.857651
2336.41	-3.95271
2336.65	-0.109581
2336.88	5.657
2337.11	0.846964
2337.34	5.65215
2337.58	1.80366
2337.81	-1.08295
2338.04	2.75893
2338.28	-0.128166
2338.51	0.830465
2338.74	0.827692
2338.97	-0.135798
2339.21	0.82468
2339.44	2.74606
2339.67	1.78301
2339.91	1.78038
2340.14	-1.10697
2340.37	0.810154
2340.6	2.72552
2340.84	2.71875
2341.07	-3.05226
2341.3	0.780239
2341.53	3.64945
2341.77	2.67678
2342	1.70722
2342.23	0.740891
2342.46	-2.14261
2342.7	2.64522
2342.93	-1.19516
2343.16	-0.240644
2343.39	-1.20249
2343.63	-3.1223
2343.86	1.66663
2344.09	2.62113
2344.32	0.701378
2344.56	-3.13446
2344.79	-1.21957
2345.02	-0.264868
2345.25	-4.10412
2345.49	2.59959
2345.72	1.63333
2345.95	1.62282
2346.18	1.61426
2346.41	1.60556
2346.65	-2.23082
2346.88	-3.19361
2347.11	-1.28356
2347.34	0.625267
2347.58	1.57651
2347.81	1.57173
2348.04	-0.346798
2348.27	-0.349672
2348.5	-1.30882
2348.74	-1.31148
2348.97	1.55679
2349.2	-0.365671
2349.43	4.4126
2349.67	-0.390049
2349.9	0.550972
2350.13	2.4453
2350.36	-0.443048
2350.59	3.35317
2350.83	-0.503654
2351.06	-0.561178
2351.29	3.28441
2351.52	-1.40616
2351.75	0.527285
2351.99	0.46899
2352.22	-1.47429
2352.45	1.38505
2352.68	2.3367
2352.91	-1.50247
2353.15	2.28207
2353.38	2.25615
2353.61	0.351023
2353.84	1.29457
2354.07	-2.52719
2354.31	-2.53396
2354.54	0.315315
2354.77	3.17236
2355	-1.59283
2355.23	3.16335
2355.47	2.20103
2355.7	2.19087
2355.93	0.275055
2356.16	1.21657
2356.39	-2.60564
2356.63	0.235037
2356.86	-0.737032
2357.09	3.05019
2357.32	1.13358
2357.55	-0.781549
2357.79	1.10699
2358.02	-0.807177
2358.25	-0.819851
2358.48	2.01936
2358.71	2.00777
2358.94	1.04213
2359.18	2.92977
2359.41	-0.881968
2359.64	-0.893406
2359.87	0.99299
2360.1	-0.921169
2360.33	-5.68402
2360.57	0.94519
2360.8	1.87735
2361.03	2.80885
2361.26	-0.0544949
2361.49	-1.02029
2361.72	0.858467
2361.96	-0.107607
2362.19	-0.125885
2362.42	-0.144924
2362.65	-0.163633
2362.88	-1.12849
2363.11	0.747547
2363.34	1.67686
2363.58	-0.232832
2363.81	-0.248672
2364.04	0.681606
2364.27	-3.11888
2364.5	-1.24373
2364.73	1.57642
2364.97	-2.22397
