#Acq. time (s)=	30
#Accumulations=	2
#Range (cm-¹)=	1200...2365
#Windows=	3
#Auto scanning=	Off
#Autofocus=	Off
#Macrospot=	Off
#AutoExposure=	Off
#Spike filter=	Multiple accum.
#Delay time (s)=	2
#Binning=	1
#Readout mode=	Signal
#DeNoise=	Off
#ICS correction=	On
#Dark correction=	Off
#Inst. Process=	Off
#Detector Gain=	Best Dynamic
#Detector ADC=	50 kHz HS
#Detector temperature (°C)=	-60.09
#Instrument=	LabRAM HR Evol
#Detector=	SIN-EM FIVIS
#Objective=	x100_VIS_LWD
#Grating=	1800 (450-850nm)
#ND Filter=	100%
#Laser=	532nm_Edge
#Hole=	49.98
#Temperature=	0
#Range=	Visible
#StageXY=	75x50mm Scan+
#StageZ=	Z motor
#X (µm)=	0
#Y (µm)=	0
#Z (µm)=	-10.3
#Full time(mm:ss)=	3:11
#Project=	21_11_26
#Sample=	BU02Aw
#Site=	
#Title=	BU02aW-A-FF1-FI01-V_1800 (450-850nm)_532nm_Edge_100%_x100_VIS_LWD_H50um_30sX2
#Remark=	
#Date=	26.11.2021 10:39
#Acquired=	26.11.2021 10:39:57
#Base:Fit=	26.11.2021 10:51:03
#Base:Fit=	26.11.2021 10:51:08
#Base:Fit=	26.11.2021 10:51:11
#Base:Fit=	26.11.2021 10:51:11
#Base:Fit=	26.11.2021 10:51:11
#Base:Fit=	26.11.2021 10:51:11
#Base:Fit=	26.11.2021 10:51:11
#Base:Fit=	26.11.2021 10:51:11
#Base:Fit=	26.11.2021 10:51:11
#Base:Fit=	26.11.2021 10:51:11
#Base:Fit=	26.11.2021 10:51:11
#Base:Fit=	26.11.2021 10:51:11
#Base:Fit=	26.11.2021 10:51:11
#Base:Fit=	26.11.2021 10:51:12
#Base:Fit=	26.11.2021 10:51:12
#Base:Fit=	26.11.2021 10:51:12
#Base:Edit=	26.11.2021 10:51:20
#Base:Edit=	26.11.2021 10:51:21
#Base:Edit=	26.11.2021 10:51:22
#Base:Edit=	26.11.2021 10:51:22
#Base:Edit=	26.11.2021 10:51:23
#Base:Fit=	26.11.2021 10:51:26
#Base:Edit=	26.11.2021 10:51:29
#Base:Edit=	26.11.2021 10:51:29
#Base:Edit=	26.11.2021 10:51:30
#Base:Edit=	26.11.2021 10:51:30
#Base:Edit=	26.11.2021 10:51:31
#Base:Edit=	26.11.2021 10:51:31
#Base:Sub=	26.11.2021 10:51:33
#Edit:Shape=	26.11.2021 10:52:28
#Edit:Shape=	26.11.2021 10:52:35
#Edit:Shape=	26.11.2021 10:53:25
#Base:Fit=	16.12.2021 16:15:35
#Base:Fit=	16.12.2021 16:17:33
#Base:Sub=	16.12.2021 16:17:34
1202.72	0.021189
1203	4.34541
1203.28	3.25763
1203.56	-0.00982332
1203.84	2.10202
1204.11	2.06836
1204.39	0.962202
1204.67	4.16784
1204.95	-0.149747
1205.23	1.97452
1205.5	7.3157
1205.78	-1.31096
1206.06	4.02476
1206.34	1.84369
1206.61	7.1727
1206.89	4.99234
1207.17	4.95682
1207.45	1.71065
1207.73	1.68268
1208	5.9374
1208.28	3.77039
1208.56	4.81346
1208.84	2.64345
1209.11	3.68414
1209.39	2.58589
1209.67	4.69961
1209.95	3.60805
1210.23	2.51512
1210.5	-0.718352
1210.78	0.318282
1211.06	3.4904
1211.34	0.256822
1211.61	-0.841753
1211.89	2.3301
1212.17	0.164512
1212.45	-0.932915
1212.72	3.30196
1213	2.20663
1213.28	0.0465339
1213.56	3.2147
1213.83	3.18963
1214.11	2.09749
1214.39	-0.051949
1214.67	-0.0723675
1214.94	0.971272
1215.22	0.949683
1215.5	0.927251
1215.78	1.96908
1216.05	-2.31247
1216.33	1.91684
1216.61	-0.242165
1216.89	0.788621
1217.16	0.756514
1217.44	-0.335702
1217.72	-1.42694
1218	2.7926
1218.27	-0.420716
1218.55	-1.50927
1218.83	-1.53572
1219.1	1.62365
1219.38	-2.64388
1219.66	0.515705
1219.94	-1.63055
1220.21	-0.595394
1220.49	0.443325
1220.77	5.7256
1221.04	-0.660778
1221.32	2.49704
1221.6	-2.83062
1221.88	0.324464
1222.15	1.35549
1222.43	3.44243
1222.71	-0.827834
1222.98	-1.92001
1223.26	0.16312
1223.54	0.130104
1223.81	2.21207
1224.09	-0.988512
1224.37	-1.01828
1224.65	-1.0454
1224.92	2.0963
1225.2	-0.0393372
1225.48	2.05053
1225.76	-1.13345
1226.03	-0.0953062
1226.31	-1.16813
1226.59	-0.134021
1226.86	0.89957
1227.14	0.874058
1227.42	1.9045
1227.69	-0.240374
1227.97	-1.34016
1228.25	-1.3758
1228.52	-4.56827
1228.8	-1.45478
1229.08	0.607351
1229.35	2.68679
1229.63	-0.419012
1229.91	-0.381652
1230.18	2.73711
1230.46	-1.5253
1230.74	-2.60726
1231.01	-2.62406
1231.29	2.60553
1231.57	-0.624724
1231.84	3.5642
1232.12	-1.70979
1232.4	0.37168
1232.67	0.349189
1232.95	-0.721213
1233.23	1.35938
1233.5	-1.81382
1233.78	0.267494
1234.06	-0.800333
1234.33	-1.86729
1234.61	2.31938
1234.89	1.25425
1235.16	5.44457
1235.44	1.22436
1235.71	-2.99627
1235.99	0.142401
1236.27	-1.97649
1236.54	-1.99518
1236.82	1.13728
1237.1	1.11461
1237.37	-2.0624
1237.65	1.06254
1237.93	-0.015867
1238.2	5.20528
1238.48	0.977983
1238.76	0.94992
1239.03	-0.124287
1239.31	-2.24375
1239.58	-0.167919
1239.86	0.860102
1240.14	-1.25556
1240.41	-1.27369
1240.69	2.90178
1240.97	1.83732
1241.24	1.82188
1241.52	-1.33877
1241.79	-3.45448
1242.07	-1.37967
1242.35	-0.351519
1242.62	-3.51141
1242.9	-1.43046
1243.18	0.65313
1243.45	-4.6008
1243.73	0.623888
1244	-0.440256
1244.28	2.69047
1244.56	-3.61594
1244.83	-1.53701
1245.11	2.6371
1245.39	1.56666
1245.66	2.59109
1245.94	0.470232
1246.21	0.445084
1246.49	1.47234
1246.76	3.54802
1247.04	0.392686
1247.32	-1.71654
1247.59	0.359304
1247.87	1.39036
1248.14	1.37216
1248.42	4.48451
1248.7	1.32562
1248.97	-3.91977
1249.25	-0.795172
1249.52	1.28441
1249.8	1.26796
1250.08	-0.83916
1250.35	4.37634
1250.63	2.26389
1250.9	2.2419
1251.18	3.26618
1251.45	1.15604
1251.73	4.27133
1252.01	2.16269
1252.28	3.18781
1252.56	-1.0084
1252.83	3.14905
1253.11	-2.09009
1253.39	4.15314
1253.66	-1.0808
1253.94	-0.0502148
1254.21	-2.146
1254.49	0.97769
1254.76	-2.161
1255.04	2.00533
1255.31	5.12522
1255.59	0.938241
1255.87	-0.11853
1256.14	0.911891
1256.42	6.12234
1256.69	1.93552
1256.97	6.10589
1257.24	4.00646
1257.52	1.9039
1257.79	6.06505
1258.07	1.87317
1258.35	4.99168
1258.62	3.93319
1258.9	3.9181
1259.17	5.98642
1259.45	-0.287913
1259.72	2.83569
1260	3.87329
1260.27	4.92026
1260.55	4.90061
1260.82	0.70615
1261.1	6.94573
1261.37	6.92632
1261.65	2.73763
1261.92	7.94785
1262.2	10.0587
1262.48	8.00864
1262.75	12.2065
1263.02	10.04
1263.3	16.2423
1263.58	16.2116
1263.85	20.4212
1264.13	18.3604
1264.4	25.7143
1264.68	28.8705
1264.95	16.2799
1265.23	26.7109
1265.5	15.2049
1265.78	13.1019
1266.05	9.95059
1266.33	16.2106
1266.6	10.9804
1266.88	3.6615
1267.15	7.8401
1267.43	8.88566
1267.7	3.65848
1267.98	10.9824
1268.25	13.0803
1268.53	8.9033
1268.8	7.8618
1269.08	2.62362
1269.35	9.95463
1269.63	9.95177
1269.9	8.89397
1270.18	7.83048
1270.45	13.0476
1270.73	4.65539
1271	11.9669
1271.28	8.81293
1271.55	6.7103
1271.83	9.83746
1272.1	3.55505
1272.38	11.929
1272.65	12.9809
1272.93	6.70638
1273.2	8.80442
1273.47	8.80802
1273.75	14.0527
1274.03	11.961
1274.3	11.9658
1274.57	5.6731
1274.85	7.76663
1275.12	14.0527
1275.4	8.80245
1275.67	8.80097
1275.95	11.9492
1276.22	7.75339
1276.5	7.75691
1276.77	5.65867
1277.05	7.76027
1277.32	6.71016
1277.6	8.81487
1277.87	6.71782
1278.14	10.9254
1278.42	15.1333
1278.69	11.9829
1278.97	8.83513
1279.24	10.9405
1279.52	10.9427
1279.79	8.83222
1280.07	14.0842
1280.34	19.3335
1280.61	11.9657
1280.89	18.2757
1281.16	22.4839
1281.44	23.5453
1281.71	25.6631
1281.99	26.7197
1282.26	31.978
1282.53	42.5074
1282.81	55.1462
1283.08	89.8661
1283.36	105.586
1283.63	149.616
1283.91	206.293
1284.18	270.384
1284.45	332.571
1284.73	359.655
1285	367.099
1285.28	264.88
1285.55	172.053
1285.83	98.2825
1286.1	71.9613
1286.37	46.7071
1286.65	29.855
1286.92	27.7361
1287.2	21.4162
1287.47	18.2527
1287.75	12.9807
1288.02	8.7616
1288.29	7.70354
1288.57	11.9111
1288.84	5.59647
1289.12	7.70257
1289.39	5.60167
1289.66	14.0293
1289.94	3.50621
1290.21	5.61857
1290.49	4.57035
1290.76	1.40914
1291.03	2.45831
1291.31	7.72205
1291.58	3.50801
1291.86	3.50715
1292.13	5.61186
1292.4	6.66502
1292.68	-0.705687
1292.95	3.50527
1293.22	2.44948
1293.5	1.39794
1293.77	4.56868
1294.05	1.42108
1294.32	1.43452
1294.59	1.43847
1294.87	-3.83371
1295.14	3.5462
1295.42	2.4981
1295.69	2.51229
1295.96	5.69761
1296.24	-0.614957
1296.51	1.5117
1296.79	-3.76899
1297.06	1.51782
1297.33	-1.65514
1297.61	3.62485
1297.88	1.50636
1298.15	-1.66818
1298.43	-0.618113
1298.7	2.55519
1298.97	2.55423
1299.25	1.49471
1299.52	3.60369
1299.79	-2.73322
1300.07	1.49061
1300.34	-0.613448
1300.62	4.67085
1300.89	1.50628
1301.16	2.56288
1301.44	-3.77087
1301.71	0.456187
1301.98	-2.70444
1302.25	-0.585347
1302.53	-3.74918
1302.8	-0.576801
1303.08	-0.574466
1303.35	2.5952
1303.62	2.59454
1303.9	-2.68806
1304.17	-3.74195
1304.44	-0.570455
1304.72	-2.67914
1304.99	3.65934
1305.26	-0.564649
1305.54	0.489238
1305.81	0.485877
1306.08	-0.572499
1306.35	1.53382
1306.63	-0.578058
1306.9	-1.63153
1307.18	4.69982
1307.45	1.54259
1307.72	-2.67154
1308	-0.558466
1308.27	-0.554636
1308.54	0.505836
1308.81	-3.71065
1309.09	0.514109
1309.36	-1.58672
1309.63	1.58689
1309.91	5.81687
1310.18	4.76937
1310.45	-1.55892
1310.73	-0.500795
1311	-0.496036
1311.27	0.565296
1311.55	-2.59435
1311.82	5.85519
1312.09	-0.470031
1312.37	-0.45998
1312.64	-1.5065
1312.91	-0.443483
1313.18	0.616394
1313.46	2.72839
1313.73	-0.43445
1314	2.73516
1314.28	3.79382
1314.55	-0.422786
1314.82	-4.6378
1315.09	0.64878
1315.37	-2.50924
1315.64	-3.55618
1315.91	1.73353
1316.18	2.79973
1316.46	3.86052
1316.73	-2.47231
1317	-1.4113
1317.28	4.93043
1317.55	-0.343689
1317.82	0.722921
1318.09	-2.4368
1318.37	3.90966
1318.64	1.80456
1318.91	2.86823
1319.18	0.761958
1319.46	2.8806
1319.73	-1.33964
1320	-0.277589
1320.28	0.787603
1320.55	-1.31811
1320.82	-1.31278
1321.09	-0.25364
1321.37	1.85894
1321.64	2.91291
1321.91	-1.31169
1322.18	0.80087
1322.46	-0.255312
1322.73	-2.36153
1323	-4.46722
1323.27	-2.35456
1323.55	1.86475
1323.82	-2.34179
1324.09	-3.38755
1324.36	1.89278
1324.64	-1.26385
1324.91	0.853148
1325.18	-2.30328
1325.45	-2.29377
1325.73	0.869839
1326	-0.189523
1326.27	-0.198204
1326.54	0.841704
1326.81	-0.211144
1327.09	0.846737
1327.36	-0.187588
1327.63	1.9457
1327.9	0.911457
1328.18	-1.17742
1328.45	-1.15836
1328.72	-2.1938
1328.99	-2.17687
1329.27	-0.0557661
1329.54	-0.0508745
1329.81	4.18094
1330.08	1.02305
1330.35	-0.0256677
1330.63	-2.13036
1330.9	1.03724
1331.17	-1.06984
1331.44	-0.0153208
1331.71	-0.0176308
1331.99	5.24456
1332.26	-3.18089
1332.53	-1.07403
1332.8	2.08322
1333.07	1.02975
1333.35	1.02826
1333.62	5.23223
1333.89	-1.07393
1334.16	-0.0221243
1334.43	1.02938
1334.71	-0.0191083
1334.98	2.08266
1335.25	2.08555
1335.52	-0.00961447
1335.79	1.04352
1336.07	-2.099
1336.34	7.34489
1336.61	0.00890565
1336.88	2.11154
1337.15	-1.0274
1337.43	3.17261
1337.7	-3.1093
1337.97	1.0898
1338.24	2.14008
1338.51	4.23788
1338.78	0.0533741
1339.06	0.0584977
1339.33	-0.981794
1339.6	-0.972658
1339.87	0.0855017
1340.14	2.1915
1340.42	4.2967
1340.69	1.16632
1340.96	0.130152
1341.23	4.3288
1341.5	0.148667
1341.77	-0.890282
1342.04	1.21098
1342.32	3.31025
1342.59	2.26716
1342.86	-0.869722
1343.13	-0.866544
1343.4	4.36982
1343.67	-0.85158
1343.95	-0.842017
1344.22	1.25994
1344.49	0.225193
1344.76	-2.90179
1345.03	2.33531
1345.3	1.29533
1345.58	2.34476
1345.85	-0.789328
1346.12	-1.83032
1346.39	0.26028
1346.66	5.47638
1346.93	1.30209
1347.2	5.47712
1347.47	0.262769
1347.75	0.265744
1348.02	3.39883
1348.29	1.32106
1348.56	1.32946
1348.83	-0.746027
1349.1	1.34472
1349.37	2.39216
1349.65	0.314026
1349.92	1.36133
1350.19	0.325892
1350.46	-0.709048
1350.73	2.4197
1351	4.50467
1351.27	3.4673
1351.54	2.43321
1351.81	3.47657
1352.09	0.365928
1352.36	-0.663059
1352.63	-1.68847
1352.9	1.44912
1353.17	2.51002
1353.44	-0.595678
1353.71	-1.60251
1353.98	2.60358
1354.25	4.66936
1354.53	-0.567938
1354.8	2.53225
1355.07	3.58623
1355.34	-0.556081
1355.61	3.60097
1355.88	3.60682
1356.15	2.59021
1356.42	2.60427
1356.69	4.68697
1356.96	3.65675
1357.24	1.58852
1357.51	1.59733
1357.78	1.60523
1358.05	1.6124
1358.32	4.7332
1358.59	3.70125
1358.86	2.67005
1359.13	4.75061
1359.4	5.79344
1359.67	2.68913
1359.94	7.88205
1360.22	3.73786
1360.49	3.74045
1360.76	2.70745
1361.03	5.8215
1361.3	3.75905
1361.57	6.87805
1361.84	-0.361907
1362.11	7.93449
1362.38	6.90665
1362.65	7.95043
1362.92	-0.324334
1363.19	5.89906
1363.46	2.80688
1363.73	4.89544
1364	4.91161
1364.28	4.92776
1364.55	8.04714
1364.82	1.84206
1365.09	8.06526
1365.36	11.1776
1365.63	9.11062
1365.9	8.07907
1366.17	10.1528
1366.44	9.12202
1366.71	7.05689
1366.98	10.1613
1367.25	9.12683
1367.52	4.99925
1367.79	8.10863
1368.06	7.09199
1368.33	10.2079
1368.6	8.15502
1368.87	6.10193
1369.15	6.11623
1369.41	11.3009
1369.68	21.6558
1369.95	26.8317
1370.23	22.7028
1370.5	16.5076
1370.77	12.3751
1371.04	12.3823
1371.31	13.4205
1371.58	6.19211
1371.85	12.3879
1372.12	11.3526
1372.39	8.68064
1372.66	8.67272
1372.93	7.71766
1373.2	7.36559
1373.47	8.68371
1373.74	8.18537
1374.01	7.85287
1374.28	8.41019
1374.55	8.48542
1374.82	10.0742
1375.09	10.3691
1375.36	11.9632
1375.63	10.9819
1375.9	10.8475
1376.17	12.2371
1376.44	11.185
1376.71	10.4836
1376.98	10.4142
1377.25	11.5063
1377.52	11.065
1377.79	11.1892
1378.06	11.74
1378.33	12.058
1378.6	12.3294
1378.87	12.2273
1379.14	11.9811
1379.41	12.3466
1379.68	12.7599
1379.95	13.4025
1380.22	13.9289
1380.49	14.55
1380.76	14.7808
1381.03	17.7094
1381.3	19.0134
1381.57	22.1416
1381.84	23.9247
1382.11	27.747
1382.38	27.7407
1382.65	27.7345
1382.92	29.741
1383.19	29.7349
1383.46	31.7415
1383.73	31.1003
1384	33.7422
1384.27	39.7742
1384.54	39.6716
1384.81	43.7878
1385.08	51.8327
1385.34	51.827
1385.61	63.8973
1385.88	72.3394
1386.15	79.5606
1386.42	96.0167
1386.69	136.11
1386.96	171.061
1387.23	238.862
1387.5	388.508
1387.77	603.862
1388.04	798.132
1388.31	842.638
1388.58	585.813
1388.85	315.196
1389.12	173.001
1389.39	113.589
1389.66	82.8093
1389.93	57.162
1390.2	44.8277
1390.46	40.6816
1390.73	35.5426
1391	32.4768
1391.27	27.3405
1391.54	25.2985
1391.81	21.2071
1392.08	21.2086
1392.35	22.2329
1392.62	20.1863
1392.89	19.167
1393.16	13.0306
1393.43	17.1329
1393.7	14.0702
1393.97	12.032
1394.23	15.1111
1394.5	14.0973
1394.77	13.0838
1395.04	9.00171
1395.31	11.0644
1395.58	14.1532
1395.85	13.1466
1396.12	15.2081
1396.39	13.1718
1396.66	11.1336
1396.93	9.09456
1397.2	10.1255
1397.46	12.1771
1397.73	7.06763
1398	10.1451
1398.27	2.99715
1398.54	6.07991
1398.81	14.2799
1399.08	10.2025
1399.35	10.2165
1399.62	7.16483
1399.89	4.11021
1400.16	6.17222
1400.42	7.20752
1400.69	7.22417
1400.96	12.3642
1401.23	5.21246
1401.5	9.31931
1401.77	-1.92993
1402.04	6.27487
1402.31	7.32222
1402.58	9.40308
1402.84	11.4879
1403.11	4.33339
1403.38	9.48731
1403.65	9.50461
1403.92	8.49026
1404.19	6.44224
1404.46	6.43607
1404.73	6.45273
1404.99	7.48764
1405.26	8.5214
1405.53	6.47593
1405.8	9.55815
1406.07	7.51324
1406.34	9.56992
1406.61	8.55303
1406.87	10.6119
1407.14	12.6754
1407.41	14.74
1407.68	18.8558
1407.95	15.7946
1408.22	16.834
1408.49	18.8989
1408.76	30.1927
1409.02	35.336
1409.29	38.4301
1409.56	40.4984
1409.83	49.7471
1410.1	34.3758
1410.37	29.2586
1410.63	21.0545
1410.9	17.9773
1411.17	14.9004
1411.44	8.75381
1411.71	5.6856
1411.98	1.59498
1412.25	4.67894
1412.51	8.79308
1412.78	8.81438
1413.05	5.7705
1413.32	4.79236
1413.59	3.79478
1413.86	4.81044
1414.12	3.75691
1414.39	1.72365
1414.66	3.80551
1414.93	5.88373
1415.2	4.86642
1415.47	0.772112
1415.73	6.94358
1416	3.87566
1416.27	0.808958
1416.54	2.87632
1416.81	-2.24468
1417.07	2.90444
1417.34	3.94624
1417.61	4.98821
1417.88	2.94768
1418.15	2.96038
1418.42	1.94451
1418.68	5.03957
1418.95	1.96911
1419.22	0.952801
1419.49	5.07527
1419.76	-0.055027
1420.02	0.978765
1420.29	4.06621
1420.56	5.09886
1420.83	0.996275
1421.1	5.10813
1421.36	-1.04521
1421.63	4.09537
1421.9	4.10791
1422.17	6.17989
1422.44	5.17421
1422.7	2.11296
1422.97	2.13836
1423.24	0.114631
1423.51	-0.882199
1423.77	0.0990596
1424.04	1.08275
1424.31	1.10043
1424.58	-0.962897
1424.85	4.17054
1425.11	5.21432
1425.38	3.19476
1425.65	1.15761
1425.92	3.21564
1426.19	-1.8936
1426.45	4.27024
1426.72	2.2243
1426.99	1.20244
1427.26	7.35651
1427.52	3.25833
1427.79	7.35506
1428.06	1.21045
1428.33	-1.85508
1428.59	1.22539
1428.86	2.25999
1429.13	3.29593
1429.4	-0.787608
1429.67	4.34634
1429.93	1.28812
1430.2	1.30391
1430.47	1.32113
1430.74	0.311789
1431	-3.77188
1431.27	5.47989
1431.54	-3.73528
1431.81	3.46304
1432.07	3.47325
1432.34	3.47826
1432.61	-0.622142
1432.87	1.43589
1433.14	-0.612946
1433.41	4.51376
1433.68	-0.6121
1433.95	0.412766
1434.21	3.4888
1434.48	-3.67192
1434.75	-0.578959
1435.01	2.50993
1435.28	-0.553195
1435.55	-1.56797
1435.82	4.58958
1436.08	2.54874
1436.35	-1.54165
1436.62	1.54015
1436.89	4.62091
1437.15	3.60343
1437.42	3.6107
1437.69	0.546843
1437.95	4.65033
1438.22	3.63437
1438.49	1.5971
1438.76	3.65931
1439.02	1.62258
1439.29	3.68192
1439.56	1.64386
1439.82	-1.41671
1440.09	-0.377079
1440.36	0.664286
1440.63	3.75289
1440.89	1.71321
1441.16	-1.35336
1441.43	-1.34273
1441.69	0.715716
1441.96	-4.40548
1442.23	1.75322
1442.49	-3.35927
1442.76	0.752317
1443.03	2.81782
1443.3	0.772533
1443.56	3.85356
1443.83	-1.2674
1444.1	1.81479
1444.36	1.82292
1444.63	1.83367
1444.9	-0.200751
1445.16	0.839825
1445.43	0.856809
1445.7	0.86376
1445.97	1.89625
1446.23	1.90298
1446.5	-1.16739
1446.77	0.891043
1447.03	1.92355
1447.3	-0.120641
1447.57	0.911211
1447.83	2.96742
1448.1	-1.12725
1448.37	0.931696
1448.63	1.9702
1448.9	-5.19445
1449.17	3.0207
1449.43	2.00334
1449.7	2.00983
1449.97	-1.06128
1450.23	0.994134
1450.5	0.99862
1450.77	-4.12022
1451.03	4.08656
1451.3	3.06795
1451.57	-0.000319004
1451.83	-4.09316
1452.1	1.03648
1452.37	-1.00613
1452.63	2.07482
1452.9	-5.0882
1453.17	1.06855
1453.43	3.12919
1453.7	-0.959198
1453.97	-3.00041
1454.23	-0.944116
1454.5	0.0875449
1454.77	0.0957751
1455.03	-1.94545
1455.3	2.16084
1455.56	-3.98056
1455.83	2.17591
1456.1	-2.93567
1456.36	-1.90071
1456.63	3.23201
1456.9	-0.861701
1457.16	0.167091
1457.43	-0.853308
1457.7	1.20189
1457.96	0.183783
1458.23	4.28819
1458.49	1.22309
1458.76	0.20714
1459.03	0.216319
1459.29	0.225306
1459.56	-2.83979
1459.82	-0.782411
1460.09	3.32269
1460.36	-1.79383
1460.62	2.31001
1460.89	0.266869
1461.16	2.32042
1461.42	3.3488
1461.69	1.30494
1461.95	1.30893
1462.22	-0.735061
1462.49	3.3623
1462.75	1.31778
1463.02	0.296818
1463.28	3.36737
1463.55	0.300517
1463.82	-2.76434
1464.08	0.309435
1464.35	3.39233
1464.61	-1.70377
1464.88	0.358413
1465.15	2.42498
1465.41	-0.657323
1465.68	2.37269
1465.94	-3.76467
1466.21	1.34301
1466.48	-0.683774
1466.74	-2.7202
1467.01	-1.70192
1467.27	-3.73801
1467.54	-0.668313
1467.8	0.357475
1468.07	-1.67737
1468.34	1.38889
1468.6	2.41549
1468.87	1.40186
1469.13	-2.67255
1469.4	1.41184
1469.67	0.395959
1469.93	-0.621282
1470.2	0.39955
1470.46	-0.617263
1470.73	-1.63258
1470.99	1.42836
1471.26	0.414479
1471.53	-1.61942
1471.79	1.43857
1472.06	-0.594847
1472.32	0.428488
1472.59	-0.584015
1472.85	0.440222
1473.12	-0.572083
1473.39	-0.567209
1473.65	-1.58194
1473.92	-1.57864
1474.18	0.460709
1474.45	1.48316
1474.71	4.54252
1474.98	0.48051
1475.24	0.488523
1475.51	-0.522583
1475.78	1.5187
1476.04	0.505119
1476.31	2.54346
1476.57	-0.505179
1476.84	-1.51825
1477.1	-0.498188
1477.37	-1.51272
1477.63	2.55969
1477.9	-0.485888
1478.16	0.536674
1478.43	-0.476708
1478.69	0.541665
1478.96	0.544336
1479.22	-2.50207
1479.49	2.58136
1479.76	-1.48133
1480.02	-0.46419
1480.29	2.58375
1480.55	-1.48024
1480.82	-5.54015
1481.08	1.56537
1481.35	3.59832
1481.61	1.57079
1481.88	-2.47926
1482.14	2.6035
1482.41	-1.44556
1482.67	-3.46549
1482.94	-1.42606
1483.2	-1.42033
1483.47	0.618895
1483.73	0.626227
1484	1.64751
1484.26	-0.378521
1484.53	-2.41202
1484.79	1.64009
1485.06	-2.43416
1485.32	0.579866
1485.59	0.574067
1485.85	1.5723
1486.12	-1.40469
1486.38	-1.39303
1486.65	0.64826
1486.91	-0.383908
1487.18	6.72581
1487.44	-2.38477
1487.71	0.653908
1487.97	0.65389
1488.24	-2.38218
1488.5	-0.354978
1488.77	-0.354556
1489.03	-3.391
1489.3	0.658405
1489.56	-1.36252
1489.83	-0.347334
1490.09	0.668067
1490.36	-1.35017
1490.62	-1.34524
1490.89	3.71499
1491.15	1.69225
1491.42	4.72602
1491.68	0.684396
1491.95	-0.322512
1492.21	0.693541
1492.48	-0.311359
1492.74	-2.32905
1493	0.707799
1493.27	-0.298873
1493.53	-0.293879
1493.8	4.76386
1494.06	-2.30796
1494.33	-0.281039
1494.59	1.74723
1494.86	5.79822
1495.12	0.74722
1495.39	0.748349
1495.65	3.77786
1495.92	-1.27756
1496.18	-0.269043
1496.45	2.76071
1496.71	-0.266621
1496.97	-0.264612
1497.24	1.75567
1497.5	2.76949
1497.77	3.78328
1498.03	0.758842
1498.3	1.77217
1498.56	-0.241343
1498.82	0.773049
1499.09	1.78776
1499.35	-2.24377
1499.62	-1.22844
1499.88	-4.25036
1500.15	-1.21554
1500.41	-2.21979
1500.68	-1.20582
1500.94	-2.21157
1501.2	1.83037
1501.47	3.85107
1501.73	-1.19568
1502	-2.20172
1502.26	-1.18876
1502.52	-2.19429
1502.79	1.84418
1503.05	-1.183
1503.32	-0.174277
1503.58	-1.18103
1503.85	0.836029
1504.11	-1.17633
1504.37	-1.16997
1504.64	-0.156256
1504.9	-1.16028
1505.17	0.85982
1505.43	0.861634
1505.7	1.87044
1505.96	1.86775
1506.22	0.855743
1506.49	-2.16405
1506.75	0.861759
1507.02	1.8744
1507.28	-1.1408
1507.54	2.89478
1507.81	-0.123075
1508.07	-1.12687
1508.34	1.8986
1508.6	-5.1517
1508.86	2.91344
1509.13	3.92602
1509.39	3.93044
1509.66	-0.0964921
1509.92	-2.10788
1510.18	0.921563
1510.45	-0.0807736
1510.71	-1.08875
1510.98	0.925876
1511.24	1.93154
1511.5	4.94938
1511.77	-0.0904102
1512.03	0.907677
1512.29	0.899294
1512.56	-1.1184
1512.82	-4.13733
1513.08	0.883259
1513.35	-2.13059
1513.61	0.880956
1513.88	0.882786
1514.14	-2.12017
1514.4	-0.0996761
1514.67	2.91984
1514.93	-2.1015
1515.2	-0.0940509
1515.46	0.907564
1515.72	-0.0984079
1515.99	-0.101548
1516.25	3.90776
1516.51	2.90295
1516.78	3.90685
1517.04	2.90561
1517.3	2.90751
1517.57	2.9104
1517.83	0.909092
1518.09	1.91704
1518.36	0.922095
1518.62	1.92979
1518.88	1.93505
1519.15	-1.06928
1519.41	-1.06395
1519.67	-0.0555607
1519.94	0.952295
1520.2	1.95846
1520.47	0.956478
1520.73	2.96449
1520.99	2.96934
1521.26	6.98838
1521.52	-0.0292471
1521.78	2.98514
1522.05	-1.02604
1522.31	0.981933
1522.57	-0.0205266
1522.84	2.98928
1523.1	-1.02191
1523.36	0.98342
1523.62	0.979675
1523.89	-0.028438
1524.15	3.97625
1524.41	0.969022
1524.68	1.96963
1524.94	0.967674
1525.2	5.98066
1525.47	2.98077
1525.73	0.981847
1525.99	0.98842
1526.26	1.99775
1526.52	0.00314111
1526.78	2.0155
1527.05	-0.986646
1527.31	-1.98642
1527.57	2.0227
1527.84	1.02204
1528.1	-0.981059
1528.36	0.0222511
1528.63	2.02642
1528.89	0.0232583
1529.15	1.02596
1529.41	0.0261277
1529.68	4.03527
1529.94	0.0302283
1530.2	1.03104
1530.47	1.03298
1530.73	2.03953
1530.99	2.04744
1531.25	-1.95217
1531.52	-0.944092
1531.78	0.0613282
1532.04	2.06674
1532.31	2.07028
1532.57	-1.9376
1532.83	3.07767
1533.09	1.08275
1533.36	-1.91392
1533.62	0.101153
1533.88	-0.895929
1534.15	0.111764
1534.41	2.12069
1534.67	4.12832
1534.94	3.12604
1535.2	-0.885541
1535.46	5.13232
1535.72	3.1246
1535.99	3.11473
1536.25	1.10608
1536.51	0.101937
1536.77	-3.90821
1537.04	3.09413
1537.3	0.086725
1537.56	2.08725
1537.82	3.08454
1538.09	1.087
1538.35	2.08495
1538.61	2.08001
1538.87	2.0802
1539.14	0.0813774
1539.4	2.08974
1539.66	0.10545
1539.92	1.12547
1540.19	3.14305
1540.45	0.150264
1540.71	3.16999
1540.97	-0.831438
1541.24	1.17922
1541.5	1.17211
1541.76	1.17352
1542.02	0.167582
1542.29	1.16643
1542.55	1.16309
1542.81	-1.84436
1543.07	8.16497
1543.34	-0.847719
1543.6	2.1516
1543.86	-1.8553
1544.12	1.14039
1544.39	5.14424
1544.65	3.14806
1544.91	1.15509
1545.17	0.16394
1545.43	5.17563
1545.7	1.18387
1545.96	3.19431
1546.22	1.19679
1546.48	2.20352
1546.74	0.201148
1547.01	2.20806
1547.27	1.21138
1547.53	5.22439
1547.79	4.22761
1548.06	1.21869
1548.32	1.20893
1548.58	0.209906
1548.84	2.21622
1549.1	2.22571
1549.37	1.20485
1549.63	3.18259
1549.89	3.17932
1550.15	-0.804564
1550.42	2.2233
1550.68	4.26757
1550.94	-2.72713
1551.2	1.31273
1551.46	4.31127
1551.73	2.30795
1551.99	1.3014
1552.25	2.29993
1552.51	2.31308
1552.77	2.32532
1553.03	3.32872
1553.3	3.32368
1553.56	4.31074
1553.82	4.30877
1554.08	4.30879
1554.34	4.30566
1554.61	0.289985
1554.87	0.284681
1555.13	5.2885
1555.39	3.28366
1555.65	4.28588
1555.91	-0.720673
1556.18	4.29175
1556.44	2.29061
1556.7	3.2907
1556.96	3.29317
1557.22	4.29869
1557.48	1.29703
1557.75	3.30319
1558.01	2.30217
1558.27	1.29828
1558.53	-0.709461
1558.79	-0.712673
1559.06	1.28354
1559.32	1.27851
1559.58	7.275
1559.84	3.27118
1560.1	2.26911
1560.36	2.26775
1560.63	1.26782
1560.89	0.268636
1561.15	3.26735
1561.41	1.27054
1561.67	1.27423
1561.93	6.27842
1562.19	2.28885
1562.46	3.29829
1562.72	3.30057
1562.98	0.301066
1563.24	1.30134
1563.5	0.304415
1563.76	2.30422
1564.02	2.30479
1564.29	6.31644
1564.55	5.32877
1564.81	1.33106
1565.07	5.3343
1565.33	2.32051
1565.59	1.28147
1565.85	3.21919
1566.11	0.205057
1566.38	1.29732
1566.64	1.32731
1566.9	1.31737
1567.16	1.30397
1567.42	5.32364
1567.68	5.3498
1567.94	4.34513
1568.2	3.32906
1568.47	4.33383
1568.73	4.33949
1568.99	0.343451
1569.25	4.34275
1569.51	3.33552
1569.77	1.33346
1570.03	2.33489
1570.29	-0.659375
1570.55	-0.656953
1570.82	3.34295
1571.08	5.34319
1571.34	3.3452
1571.6	2.34557
1571.86	2.34368
1572.12	0.343417
1572.38	6.33804
1572.64	3.34007
1572.9	2.33848
1573.17	2.33684
1573.43	3.33361
1573.69	4.32949
1573.95	3.3297
1574.21	1.33611
1574.47	2.3404
1574.73	3.3463
1574.99	1.35691
1575.25	6.35927
1575.51	5.36881
1575.78	8.37369
1576.04	6.37825
1576.3	4.37948
1576.56	3.38157
1576.82	5.37895
1577.08	1.37678
1577.34	5.36367
1577.6	6.35385
1577.86	5.34815
1578.12	2.34896
1578.38	1.34643
1578.64	3.33798
1578.9	3.33834
1579.17	4.33689
1579.43	1.34778
1579.69	4.34064
1579.95	5.34099
1580.21	4.34966
1580.47	4.35342
1580.73	3.35855
1580.99	2.36219
1581.25	0.367117
1581.51	3.35618
1581.77	5.34826
1582.03	2.3549
1582.29	1.3552
1582.55	3.34792
1582.81	10.3216
1583.07	4.34402
1583.33	8.32871
1583.59	5.34145
1583.85	4.34655
1584.11	6.33764
1584.38	2.3557
1584.64	3.35566
1584.9	6.34743
1585.16	2.36591
1585.42	2.3675
1585.68	4.36011
1585.94	5.35732
1586.2	6.35248
1586.46	3.36063
1586.72	5.34718
1586.98	4.34886
1587.24	5.34237
1587.5	6.33635
1587.76	6.33576
1588.02	6.3362
1588.28	3.35346
1588.54	5.34736
1588.8	6.3474
1589.06	5.35809
1589.32	1.38173
1589.58	7.35956
1589.84	7.3641
1590.1	4.38006
1590.36	5.37744
1590.62	4.38574
1590.88	2.39898
1591.14	7.38265
1591.4	5.39186
1591.66	4.39762
1591.92	5.3935
1592.18	5.39253
1592.44	3.39732
1592.7	1.40083
1592.96	8.36185
1593.22	5.37468
1593.48	0.394441
1593.74	5.35766
1594	3.36101
1594.26	6.33651
1594.52	3.35482
1594.78	9.31612
1595.04	5.34819
1595.3	3.36838
1595.56	7.34835
1595.82	3.37544
1596.08	7.33883
1596.34	6.34682
1596.6	4.36218
1596.86	5.35747
1597.12	4.36707
1597.38	2.38407
1597.64	4.37487
1597.9	4.37896
1598.16	8.35407
1598.42	4.3795
1598.68	6.36309
1598.94	5.36441
1599.2	3.37426
1599.46	4.36394
1599.72	10.3154
1599.98	9.31969
1600.24	6.34023
1600.5	2.3701
1600.76	5.34226
1601.02	5.33747
1601.28	8.30427
1601.54	7.30541
1601.8	5.31695
1602.06	8.28212
1602.32	7.28772
1602.58	8.27377
1602.84	2.33164
1603.1	6.28508
1603.36	5.29161
1603.62	8.25532
1603.88	7.26458
1604.14	6.27528
1604.4	8.25394
1604.66	5.29011
1604.92	4.30401
1605.17	8.26125
1605.43	5.2974
1605.69	7.27795
1605.95	11.2378
1606.21	7.28745
1606.47	6.30398
1606.73	14.2237
1606.99	4.33558
1607.25	6.32106
1607.51	6.32373
1607.77	9.28613
1608.03	8.32543
1608.29	9.1959
1608.55	6.47556
1608.81	6.19745
1609.07	7.44535
1609.32	7.37004
1609.58	6.60822
1609.84	5.69609
1610.1	9.16021
1610.36	8.00522
1610.62	8.86315
1610.88	7.42456
1611.14	8.06836
1611.4	7.76267
1611.66	7.78025
1611.92	4.94432
1612.18	11.44
1612.44	7.71429
1612.69	6.71791
1612.95	6.84464
1613.21	2.41854
1613.47	7.33829
1613.73	8.32706
1613.99	7.12702
1614.25	7.17325
1614.51	4.18122
1614.77	6.03938
1615.03	9.99218
1615.29	5.38266
1615.54	9.90059
1615.8	7.43655
1616.06	9.70089
1616.32	7.69902
1616.58	6.45882
1616.84	8.58423
1617.1	8.75335
1617.36	9.18524
1617.62	10.4651
1617.88	9.34362
1618.13	7.18316
1618.39	8.06681
1618.65	7.37726
1618.91	6.73893
1619.17	7.56139
1619.43	10.2783
1619.69	6.53844
1619.95	6.36417
1620.2	8.03348
1620.46	7.22605
1620.72	8.20557
1620.98	10.0913
1621.24	5.35748
1621.5	8.23262
1621.76	9.55682
1622.02	8.43168
1622.27	9.00489
1622.53	9.86298
1622.79	8.87599
1623.05	8.25683
1623.31	8.95687
1623.57	8.68228
1623.83	7.21631
1624.09	9.29468
1624.34	8.26928
1624.6	7.43947
1624.86	9.38943
1625.12	9.76204
1625.38	7.80146
1625.64	7.9342
1625.9	7.62116
1626.15	9.42007
1626.41	10.5999
1626.67	10.222
1626.93	6.0029
1627.19	8.67414
1627.45	8.4495
1627.7	8.1736
1627.96	8.76395
1628.22	9.26408
1628.48	6.53743
1628.74	8.61203
1629	8.84444
1629.26	10.4435
1629.51	9.90553
1629.77	7.68165
1630.03	6.91347
1630.29	9.70608
1630.55	7.942
1630.81	10.9486
1631.06	9.03631
1631.32	7.47102
1631.53	7.50075
1631.79	10.4628
1632.05	11.4562
1632.31	7.52201
1632.57	14.4209
1632.84	7.53283
1633.1	11.495
1633.36	10.4991
1633.62	13.4406
1633.88	11.4681
1634.14	11.4749
1634.4	11.4824
1634.66	10.5005
1634.93	8.5321
1635.19	10.5051
1635.45	7.54901
1635.71	11.4917
1635.97	8.53449
1636.23	12.4751
1636.49	12.473
1636.75	10.5005
1637.02	10.4982
1637.28	8.52528
1637.54	9.50654
1637.8	7.53651
1638.06	10.4914
1638.32	14.4285
1638.58	11.4737
1638.84	10.489
1639.1	10.4915
1639.37	13.4468
1639.63	8.52685
1639.89	13.4505
1640.15	14.4364
1640.41	6.56288
1640.67	7.55024
1640.93	9.52705
1641.19	12.4875
1641.46	9.53691
1641.72	11.5062
1641.98	10.5202
1642.24	8.55109
1642.5	11.5049
1642.76	9.53689
1643.02	10.522
1643.28	7.57013
1643.54	9.54022
1643.8	14.463
1644.06	11.5096
1644.33	8.55583
1644.59	11.505
1644.85	6.58378
1645.11	10.5202
1645.37	11.5088
1645.63	14.4674
1645.89	12.5043
1646.15	6.60243
1646.41	3.64979
1646.67	9.55224
1646.93	8.56735
1647.19	7.58385
1647.46	11.5175
1647.72	10.5326
1647.98	8.56499
1648.24	11.5168
1648.5	8.57
1648.76	11.5284
1649.02	10.5534
1649.28	9.58762
1649.54	13.5342
1649.8	7.62605
1650.06	11.5623
1650.32	18.4546
1650.58	12.5612
1650.85	12.5718
1651.11	9.62534
1651.37	8.64843
1651.63	10.6254
1651.89	10.6296
1652.15	12.6029
1652.41	11.6198
1652.67	9.65251
1652.93	11.6225
1653.19	9.65012
1653.45	7.68023
1653.71	10.6384
1653.97	12.6128
1654.23	4.73538
1654.49	11.6377
1654.75	11.6414
1655.01	7.70368
1655.27	12.6384
1655.53	9.68986
1655.8	7.72895
1656.06	11.6882
1656.32	6.7645
1656.57	12.6932
1656.84	8.75037
1657.1	12.7027
1657.36	8.75562
1657.62	10.7294
1657.88	9.74121
1658.14	6.78092
1658.4	14.6754
1658.66	9.74043
1658.92	6.7787
1659.18	6.77688
1659.44	6.77497
1659.7	7.75923
1659.96	8.74315
1660.22	9.72464
1660.48	8.74378
1660.74	5.79217
1661	9.74333
1661.26	12.7103
1661.52	9.75968
1661.78	6.80844
1662.04	10.7605
1662.3	10.7654
1662.56	7.78015
1662.82	10.802
1663.08	9.84945
1663.34	9.83443
1663.6	5.88019
1663.86	9.82761
1664.12	11.7369
1664.38	9.80072
1664.64	7.83638
1664.9	10.8035
1665.16	8.84646
1665.42	4.9028
1665.68	7.83748
1665.94	9.78444
1666.2	6.90211
1666.46	10.8661
1666.72	7.89887
1666.98	9.83462
1667.24	7.77058
1667.5	7.85992
1667.76	5.88196
1668.02	10.8139
1668.28	9.82627
1668.54	8.83689
1668.8	5.88031
1669.06	8.8563
1669.32	8.87608
1669.58	9.8696
1669.84	3.94627
1670.1	7.90081
1670.36	6.91252
1670.62	10.8657
1670.88	11.8733
1671.14	7.93281
1671.4	7.93226
1671.66	7.9324
1671.92	8.92191
1672.18	6.94895
1672.44	8.93086
1672.69	8.93435
1672.95	3.99411
1673.21	4.98497
1673.47	8.94236
1673.73	5.98039
1673.99	6.97342
1674.25	9.94522
1674.51	7.97419
1674.77	7.98034
1675.03	6.99749
1675.29	4.0373
1675.55	8.99135
1675.81	8.00693
1676.07	8.00984
1676.33	9.99111
1676.59	5.04641
1676.85	9.00915
1677.11	10.0023
1677.37	9.01455
1677.63	7.03595
1677.89	9.01505
1678.14	3.07647
1678.4	1.09566
1678.66	6.03849
1678.92	6.03598
1679.18	9.00085
1679.44	7.0224
1679.7	10.9766
1679.96	8.0105
1680.22	4.05663
1680.48	6.03372
1680.74	8.99787
1681	7.02115
1681.26	8.99707
1681.52	9.98602
1681.78	7.02422
1682.03	9.00228
1682.29	4.0652
1682.55	8.01961
1682.81	5.05892
1683.07	6.04822
1683.33	6.04994
1683.59	10.9915
1683.85	7.04244
1684.11	3.09277
1684.37	9.02041
1684.63	7.04298
1684.89	3.09287
1685.14	8.03163
1685.4	6.05821
1685.66	6.06019
1685.92	1.12529
1686.18	4.09035
1686.44	6.06842
1686.7	6.07319
1686.96	8.05689
1687.22	4.1109
1687.48	7.07771
1687.73	3.12672
1687.99	3.12637
1688.25	4.11368
1688.51	5.1013
1688.77	7.07575
1689.03	10.0359
1689.29	8.0576
1689.55	7.06824
1689.81	2.13216
1690.06	8.04921
1690.32	6.07251
1690.58	7.05951
1690.84	6.08214
1691.1	2.1418
1691.36	7.0799
1691.62	9.05741
1691.88	3.14203
1692.13	7.09452
1692.39	5.12319
1692.65	3.15043
1692.91	5.12287
1693.17	4.13376
1693.43	3.14416
1693.69	9.05652
1693.95	2.14948
1694.2	3.13284
1694.46	7.07211
1694.72	8.05387
1694.98	3.12691
1695.24	4.11408
1695.5	7.07335
1695.76	4.12202
1696.01	3.14082
1696.27	5.11557
1696.53	6.10715
1696.79	5.12673
1697.05	7.10005
1697.31	3.15825
1697.57	7.09713
1697.82	-3.74235
1698.08	5.11795
1698.34	3.14588
1698.6	5.11283
1698.86	4.12682
1699.12	4.12587
1699.38	-0.793303
1699.63	6.09628
1699.89	4.13231
1700.15	1.183
1700.41	3.15393
1700.67	4.1358
1700.92	-0.781851
1701.18	3.15479
1701.44	1.18848
1701.7	3.15623
1701.96	4.13822
1702.22	6.10221
1702.47	6.09981
1702.73	5.11399
1702.99	2.16353
1703.25	5.11263
1703.51	1.18388
1703.77	5.11519
1704.02	4.13267
1704.28	1.1864
1704.54	1.19092
1704.8	-0.768891
1705.06	3.16494
1705.32	3.16626
1705.57	5.13234
1705.83	3.16968
1706.09	5.13732
1706.35	3.17085
1706.61	6.11476
1706.86	5.12885
1707.12	5.12474
1707.38	5.12071
1707.64	5.11751
1707.9	3.15093
1708.16	1.18432
1708.41	2.1601
1708.67	5.09539
1708.93	1.16945
1709.19	3.12347
1709.44	1.16206
1709.7	6.0563
1709.96	2.14104
1710.22	6.05887
1710.48	3.12499
1710.73	3.1282
1710.99	5.09082
1711.25	5.09719
1711.51	1.18486
1711.77	0.209876
1712.02	2.17289
1712.28	5.11418
1712.54	4.13435
1712.8	3.15061
1713.06	5.10051
1713.31	2.15683
1713.57	4.10578
1713.83	4.09911
1714.09	5.06922
1714.34	1.1589
1714.6	4.0891
1714.86	5.06595
1715.12	4.09016
1715.38	4.09214
1715.63	1.16827
1715.89	0.198482
1716.15	3.13199
1716.41	0.201399
1716.66	4.10819
1716.92	3.12859
1717.18	2.14779
1717.44	2.14205
1717.69	2.13467
1717.95	-2.75004
1718.21	5.04196
1718.47	0.162771
1718.72	3.08017
1718.98	0.155889
1719.24	1.1293
1719.5	-1.78969
1719.75	5.0279
1720.01	2.10807
1720.27	3.08577
1720.53	3.08916
1720.78	1.14197
1721.04	1.14034
1721.3	1.1367
1721.56	2.10732
1721.81	1.1323
1722.07	2.10214
1722.33	1.12649
1722.59	-1.79296
1722.84	2.09167
1723.1	-0.826114
1723.36	4.02864
1723.62	3.05551
1723.87	2.084
1724.13	-0.827071
1724.39	0.14453
1724.64	2.08761
1724.9	2.08621
1725.16	3.05298
1725.42	4.016
1725.67	-0.839444
1725.93	4.0023
1726.19	4.96766
1726.45	3.02875
1726.7	2.06371
1726.96	3.03332
1727.22	4.00097
1727.47	-1.81695
1727.73	1.09046
1727.99	1.09803
1728.24	3.03634
1728.5	1.09751
1728.76	0.123295
1729.02	-0.870296
1729.27	0.0664815
1729.53	1.98646
1729.79	1.03651
1730.05	2.01607
1730.3	2.0273
1730.56	2.01557
1730.82	0.0808352
1731.07	1.04635
1731.33	-0.859375
1731.59	3.97647
1731.84	1.07979
1732.1	1.08154
1732.36	1.08248
1732.61	1.08258
1732.87	0.116231
1733.13	4.94551
1733.39	1.07888
1733.64	1.07442
1733.9	3.96343
1734.16	2.9905
1734.41	1.05653
1734.67	2.98019
1734.93	-0.88067
1735.18	-0.884967
1735.44	-1.85235
1735.7	1.03333
1735.95	-1.85728
1736.21	0.067178
1736.47	1.99244
1736.72	0.0674416
1736.98	0.0668377
1737.24	3.91478
1737.49	3.91333
1737.75	1.98838
1738.01	-0.897642
1738.26	1.98579
1738.52	1.02172
1738.78	2.94162
1739.03	1.01681
1739.29	-2.82929
1739.55	1.00953
1739.8	3.88379
1740.06	0.995758
1740.32	2.90711
1740.57	2.90023
1740.83	-1.89809
1741.09	0.974461
1741.34	0.971674
1741.6	1.92687
1741.86	-1.90662
1742.11	2.88023
1742.37	-1.90758
1742.63	1.92309
1742.88	3.83803
1743.14	2.88029
1743.4	0.966485
1743.65	4.79661
1743.91	-0.946296
1744.16	1.92231
1744.42	2.87712
1744.68	0.00594294
1744.93	0.00649285
1745.19	4.79096
1745.45	1.92388
1745.7	0.969384
1745.96	-0.94267
1746.22	-0.943156
1746.47	4.79181
1746.73	-1.90418
1746.98	0.959023
1747.24	4.77756
1747.5	1.90688
1747.75	-0.0061585
1748.01	2.855
1748.27	1.89969
1748.52	-1.91708
1748.78	1.90338
1749.03	-0.00295341
1749.29	-0.954256
1749.55	-0.950041
1749.8	2.87492
1750.06	0.97123
1750.32	2.88885
1750.57	0.029537
1750.83	-0.919904
1751.08	3.86302
1751.34	-1.86818
1751.6	0.0463088
1751.85	-0.910365
1752.11	0.0414945
1752.36	0.992388
1752.62	-0.92096
1752.88	2.89633
1753.13	0.98346
1753.39	0.0259898
1753.64	-0.93039
1753.9	0.0222294
1754.15	0.0207293
1754.41	-1.88956
1754.67	0.968785
1754.92	-1.89297
1755.18	2.87263
1755.43	-1.89413
1755.69	2.87057
1755.95	0.962623
1756.2	0.00711256
1756.46	-0.948632
1756.71	0.952265
1756.97	-0.00484633
1757.23	-0.96128
1757.48	2.84001
1757.74	4.7413
1757.99	-0.015457
1758.25	3.79216
1758.5	1.89834
1758.76	2.85373
1759.02	0.95295
1759.27	-0.948179
1759.53	0.95698
1759.78	2.86308
1760.04	2.86442
1760.3	3.81592
1760.55	1.91259
1760.81	-0.942006
1761.06	1.91121
1761.32	0.00702333
1761.57	1.9064
1761.83	-1.89898
1762.08	-1.89964
1762.34	-0.948841
1762.6	-1.89852
1762.85	1.90913
1763.11	0.0116755
1763.36	3.81711
1763.62	0.965291
1763.87	0.0167873
1764.13	-1.88191
1764.38	-1.87833
1764.64	0.980786
1764.89	3.84521
1765.15	1.94723
1765.4	1.95183
1765.66	1.0036
1765.92	1.00665
1766.17	2.91314
1766.43	0.0585729
1766.68	-1.84463
1766.94	1.96328
1767.19	1.01134
1767.45	0.0606525
1767.7	-0.891344
1767.96	3.86587
1768.21	-0.894042
1768.47	1.00804
1768.73	0.0563147
1768.98	-0.894991
1769.24	2.90194
1769.49	1.94001
1769.75	-0.919781
1770	0.0244397
1770.26	-0.923081
1770.51	1.93243
1770.77	-4.7108
1771.02	0.0412601
1771.28	0.044185
1771.53	-0.899238
1771.79	1.01079
1772.04	-0.886782
1772.3	1.01758
1772.55	-1.83073
1772.81	1.9797
1773.06	2.93604
1773.32	-1.81756
1773.57	0.0893855
1773.83	1.04472
1774.08	0.0962387
1774.34	-2.75668
1774.59	0.101781
1774.85	5.8166
1775.1	2.01279
1775.36	-0.84099
1775.61	2.97375
1775.87	1.07998
1776.12	1.08693
1776.38	0.137726
1776.63	0.139793
1776.89	-0.813204
1777.14	-0.814444
1777.4	-3.67567
1777.65	-1.77043
1777.91	-2.72531
1778.16	0.130471
1778.42	-1.77696
1778.67	2.02983
1778.93	1.07418
1779.18	2.97323
1779.44	2.01632
1779.69	-1.79167
1779.95	2.96597
1780.2	-3.68751
1780.46	1.07339
1780.71	0.124346
1780.97	0.127328
1781.22	-0.821414
1781.47	-0.81986
1781.73	2.03824
1781.98	-1.76712
1782.24	-0.811141
1782.49	0.145583
1782.75	-0.801087
1783	-0.796973
1783.26	1.11231
1783.51	-3.64942
1783.77	-0.786661
1784.02	1.12359
1784.28	0.174368
1784.53	1.1328
1784.79	3.04715
1785.04	-1.71827
1785.29	-0.761573
1785.55	0.193551
1785.8	-1.71469
1786.06	0.192292
1786.31	1.14494
1786.57	0.192384
1786.82	1.14912
1787.08	-0.754691
1787.33	0.20486
1787.58	-1.69771
1787.84	-0.73466
1788.09	-2.63297
1788.35	1.2043
1788.6	0.262259
1788.86	0.272023
1789.11	-0.680894
1789.37	1.23999
1789.62	2.20711
1789.87	0.297235
1790.13	1.25921
1790.38	7.01412
1790.64	0.307997
1790.89	2.22641
1791.15	-0.649726
1791.4	5.09716
1791.65	-5.45394
1791.91	0.292078
1792.16	-0.666839
1792.42	1.24956
1792.67	-0.664193
1792.93	0.295441
1793.18	0.298903
1793.43	2.21743
1793.69	1.26075
1793.94	3.17781
1794.2	0.307168
1794.45	1.26693
1794.7	3.18366
1794.96	2.22268
1795.21	1.27151
1795.47	1.28918
1795.72	-2.53728
1795.97	1.30756
1796.23	0.351702
1796.48	-0.604033
1796.74	0.360812
1796.99	0.365598
1797.25	1.33128
1797.5	1.33602
1797.75	2.30133
1798.01	1.34371
1798.26	-0.576026
1798.51	0.387914
1798.77	0.389755
1799.02	0.390495
1799.28	-2.49468
1799.53	-0.573271
1799.78	0.385408
1800.04	-0.579263
1800.29	1.33945
1800.55	-1.54552
1800.8	2.29538
1801.05	0.372664
1801.31	2.29293
1801.56	-0.588829
1801.81	-1.54888
1802.07	0.373325
1802.32	-0.585422
1802.58	2.29907
1802.83	2.30253
1803.08	0.38477
1803.34	0.389341
1803.59	1.35569
1803.84	-0.563267
1804.1	-1.52274
1804.35	1.36391
1804.61	0.40522
1804.86	0.409518
1805.11	-2.473
1805.37	-0.543697
1805.62	1.38707
1805.87	-3.42206
1806.13	3.32418
1806.38	-2.4514
1806.64	0.442304
1806.89	-1.48187
1807.14	-2.44367
1807.4	2.37612
1807.65	4.30421
1807.9	-1.47827
1808.16	1.41365
1808.41	-1.47725
1808.66	0.451168
1808.92	2.37984
1809.17	1.41694
1809.42	1.418
1809.68	0.454924
1809.93	0.456003
1810.18	0.457049
1810.44	0.45792
1810.69	0.458282
1810.94	-0.506741
1811.2	3.3487
1811.45	0.456259
1811.7	-0.508147
1811.96	0.455714
1812.21	1.4201
1812.46	-1.47108
1812.72	0.459488
1812.97	-0.501855
1813.22	-1.46278
1813.48	0.469382
1813.73	2.40018
1813.98	-2.421
1814.24	-0.486737
1814.49	-0.481365
1814.74	2.42121
1815	-0.46916
1815.25	2.43324
1815.5	0.504154
1815.76	-0.460532
1816.01	1.47343
1816.26	0.507877
1816.52	2.44209
1816.77	1.47692
1817.02	0.511697
1817.27	0.510368
1817.53	1.47376
1817.78	-1.43488
1818.03	1.45588
1818.29	-2.40645
1818.54	4.35858
1818.79	0.500155
1819.05	3.40257
1819.3	1.46843
1819.55	-0.463035
1819.8	2.43888
1820.06	-0.458649
1820.31	-0.457038
1820.56	0.511997
1820.82	-0.452416
1821.07	-0.450451
1821.32	-3.35055
1821.58	2.45582
1821.83	-2.37849
1822.08	-0.440779
1822.33	-0.438721
1822.59	1.49864
1822.84	3.43579
1823.09	-1.40332
1823.34	0.533465
1823.6	-0.435341
1823.85	-0.437403
1824.1	1.49601
1824.36	0.527189
1824.61	3.43236
1824.86	3.43414
1825.11	-0.436694
1825.37	1.50137
1825.62	2.47169
1825.87	4.40981
1826.12	0.536124
1826.38	-0.432858
1826.63	-2.36985
1826.88	2.47267
1827.14	3.4413
1827.39	0.536582
1827.64	0.538108
1827.89	-0.428844
1828.15	-1.39626
1828.4	-1.39665
1828.65	-1.39796
1828.9	0.537195
1829.16	-3.34092
1829.41	-1.40597
1829.66	-0.438743
1829.91	1.49688
1830.17	-0.441845
1830.42	1.49186
1830.67	5.36164
1830.92	2.45396
1831.18	0.517179
1831.43	1.48714
1831.68	3.42623
1831.93	-0.445135
1832.19	-0.44325
1832.44	0.527416
1832.69	-0.439193
1832.94	2.4715
1833.2	0.535594
1833.45	0.535323
1833.7	-1.40351
1833.95	3.44453
1834.2	0.536612
1834.46	-0.432217
1834.71	0.531134
1834.96	1.48807
1835.21	0.508181
1835.47	-1.43794
1835.72	-0.476826
1835.97	0.484204
1836.22	1.45038
1836.48	2.41155
1836.73	2.50362
1836.98	0.558125
1837.23	-0.440576
1837.48	0.51816
1837.74	0.502402
1837.99	-0.479362
1838.24	0.466294
1838.49	2.38505
1838.74	0.449058
1839	0.483266
1839.25	2.43453
1839.5	-1.43318
1839.75	2.44449
1840	-1.42975
1840.26	0.512752
1840.51	0.492506
1840.76	-0.490881
1841.01	0.463459
1841.27	-3.415
1841.52	-1.49151
1841.77	1.39649
1842.02	-3.44057
1842.27	-2.48273
1842.53	0.404408
1842.78	-0.568007
1843.03	-0.565565
1843.28	-2.49766
1843.53	-1.53205
1843.78	1.36044
1844.04	-2.49915
1844.29	-0.573105
1844.54	-1.53887
1844.79	0.391663
1845.04	4.24966
1845.3	-0.57814
1845.55	-0.578513
1845.8	0.385072
1846.05	-3.46733
1846.3	1.36596
1846.55	3.30497
1846.81	-3.44473
1847.06	1.37426
1847.31	1.34166
1847.56	1.30363
1847.81	-0.629983
1848.07	-1.59343
1848.32	-0.622014
1848.57	1.31311
1848.82	0.337597
1849.07	0.330756
1849.32	2.25582
1849.57	1.28741
1849.83	4.16698
1850.08	-0.652433
1850.33	0.302187
1850.58	2.21593
1850.83	-0.67556
1851.09	1.23971
1851.34	-1.6484
1851.59	-0.692823
1851.84	-2.61783
1852.09	-0.700492
1852.34	3.13813
1852.59	0.255832
1852.84	2.17496
1853.1	3.13372
1853.35	-2.62963
1853.6	1.2084
1853.85	2.16462
1854.1	1.19888
1854.35	2.15096
1854.6	2.14214
1854.86	-0.742815
1855.11	-2.6651
1855.36	2.12427
1855.61	-0.759132
1855.86	-2.68338
1856.11	-1.73029
1856.36	-1.73351
1856.61	-0.778216
1856.87	3.05151
1857.12	0.176395
1857.37	0.173918
1857.62	1.12822
1857.87	0.166507
1858.12	-0.795075
1858.37	2.07219
1858.63	0.151786
1858.88	0.14548
1859.13	0.139059
1859.38	-0.824063
1859.63	-1.78695
1859.88	2.03226
1860.13	2.03008
1860.38	0.116496
1860.63	-3.70822
1860.89	1.07464
1861.14	-0.836123
1861.39	1.07828
1861.64	1.08068
1861.89	1.08245
1862.14	0.124938
1862.39	-1.79172
1862.64	-2.75305
1862.9	-0.845437
1863.15	2.01724
1863.4	0.0978332
1863.65	1.04724
1863.9	1.04083
1864.15	-1.83174
1864.4	0.073751
1864.65	-0.886864
1864.9	1.01786
1865.15	1.96638
1865.4	-1.8595
1865.66	3.85882
1865.91	0.0329392
1866.16	-0.930388
1866.41	0.012738
1866.66	0.954852
1866.91	-1.91325
1867.16	2.83708
1867.41	0.922362
1867.66	1.8636
1867.91	0.904124
1868.16	-1.00315
1868.41	0.894148
1868.67	-1.96117
1868.92	-0.0614624
1869.17	0.888427
1869.42	-1.0151
1869.67	-2.91938
1869.92	1.83054
1870.17	0.876751
1870.42	2.77469
1870.67	1.82109
1870.92	0.867805
1871.17	-2.9363
1871.42	1.81336
1871.67	-0.0908911
1871.92	-0.0952361
1872.17	-2.00086
1872.42	1.79462
1872.68	-2.95888
1872.93	1.78419
1873.18	-2.02036
1873.43	-1.0756
1873.68	4.61732
1873.93	-0.132948
1874.18	-2.03611
1874.43	-7.73525
1874.68	0.798192
1874.93	-0.157719
1875.18	2.67963
1875.43	-2.06877
1875.68	-1.1284
1875.93	2.65199
1876.18	-3.04416
1876.43	0.733192
1876.68	-0.221714
1876.93	-3.06676
1877.18	-0.23388
1877.43	-2.13702
1877.68	0.683977
1877.93	2.54483
1878.18	0.67262
1878.44	3.59199
1878.69	-1.17721
1878.93	-0.241967
1879.19	0.699271
1879.44	1.66438
1879.69	1.6725
1879.94	0.716312
1880.19	1.6544
1880.44	0.704244
1880.69	2.59404
1880.94	-2.13776
1881.19	6.37656
1881.44	-1.20069
1881.69	0.681543
1881.94	2.56035
1882.19	0.655638
1882.44	-0.302999
1882.69	0.627192
1882.94	1.55363
1883.19	0.601592
1883.44	-1.3017
1883.69	0.722859
1883.94	-0.317273
1884.19	2.45418
1884.44	1.5112
1884.69	-0.363938
1884.94	0.565353
1885.19	0.571006
1885.44	0.579676
1885.69	-0.363151
1885.94	0.580729
1886.19	-2.24348
1886.44	-1.29718
1886.69	-1.29652
1886.94	-0.356511
1887.19	-2.25549
1887.44	-1.31828
1887.69	-0.381675
1887.94	3.3842
1888.19	-2.28296
1888.44	2.42345
1888.69	-1.35793
1888.94	-0.425043
1889.19	-3.25945
1889.44	1.44029
1889.69	0.492703
1889.94	0.489474
1890.19	-0.455321
1890.44	0.485488
1890.69	3.31269
1890.94	3.3158
1891.19	2.37309
1891.43	-2.33962
1891.68	0.481528
1891.94	1.42037
1892.18	2.3581
1892.43	0.471009
1892.68	0.4677
1892.93	-0.479413
1893.18	-0.48619
1893.43	3.26783
1893.68	-1.45038
1893.93	0.417537
1894.18	2.29211
1894.43	2.29331
1894.68	-0.536766
1894.93	2.27556
1895.18	0.392295
1895.43	2.26926
1895.68	-0.550236
1895.93	0.388909
1896.18	2.26834
1896.43	-0.550911
1896.68	-0.5502
1896.93	-5.25003
1897.18	-1.48839
1897.42	1.3331
1897.68	0.391948
1897.92	0.390299
1898.17	2.26889
1898.42	-1.49761
1898.67	1.31897
1898.92	2.25278
1899.17	5.06522
1899.42	1.29636
1899.67	1.28943
1899.92	0.344787
1900.17	3.15786
1900.42	1.27335
1900.67	1.2699
1900.92	-0.610839
1901.16	-0.611471
1901.41	1.26849
1901.66	-1.54909
1901.91	3.15211
1902.16	1.27387
1902.41	-1.54494
1902.66	-2.48414
1902.91	-0.605304
1903.16	1.27142
1903.41	-0.614628
1903.66	0.320577
1903.91	2.19657
1904.16	0.311812
1904.41	1.24824
1904.65	-1.57575
1904.9	-2.51937
1905.15	1.23728
1905.4	-3.46675
1905.65	-0.649611
1905.9	0.286456
1906.15	3.09692
1906.4	-2.5507
1906.65	2.14044
1906.9	1.19571
1907.14	0.251551
1907.39	-2.56988
1907.64	-1.63346
1907.89	0.243063
1908.14	3.06071
1908.39	1.18362
1908.64	0.243148
1908.89	1.18109
1909.14	0.240938
1909.39	-1.63813
1909.63	-1.63705
1909.88	0.245491
1910.13	-1.63204
1910.38	-0.687638
1910.63	-2.56575
1910.88	-1.62142
1911.13	0.263499
1911.38	3.08953
1911.62	0.263242
1911.87	0.261232
1912.12	1.20018
1912.37	0.253855
1912.62	1.19137
1912.87	2.12984
1913.12	1.18505
1913.37	0.240387
1913.61	1.18014
1913.86	-0.703433
1914.11	-3.52742
1914.36	-0.696944
1914.61	1.19057
1914.86	-0.693788
1915.11	1.19424
1915.36	-0.691169
1915.6	-0.691166
1915.85	-2.58016
1916.1	4.02182
1916.35	-0.70092
1916.6	4.01255
1916.85	1.17593
1917.1	-2.60442
1917.34	2.10441
1917.59	2.09808
1917.84	1.14996
1918.09	-0.739798
1918.34	0.200532
1918.59	0.200558
1918.83	0.202325
1919.08	2.09182
1919.33	-0.735107
1919.58	1.1564
1919.83	1.16271
1920.08	1.16766
1920.33	-3.55547
1920.57	4.9467
1920.82	3.05106
1921.07	1.15994
1921.32	2.10781
1921.57	-0.725198
1921.81	1.16604
1922.06	0.220492
1922.31	1.16518
1922.56	0.216443
1922.81	1.15745
1923.06	1.15103
1923.31	-2.63689
1923.55	0.194305
1923.8	-2.64623
1924.05	0.184544
1924.3	-0.766541
1924.55	0.171678
1924.79	0.166033
1925.04	-1.72731
1925.29	2.04955
1925.54	-1.73006
1925.79	-2.6741
1926.04	-0.780667
1926.28	2.05898
1926.53	-0.775787
1926.78	2.06536
1927.03	2.06966
1927.28	2.07147
1927.52	3.96566
1927.77	3.01919
1928.02	0.177924
1928.27	-0.769863
1928.52	-0.770684
1928.76	3.01728
1929.01	2.06989
1929.26	-0.773076
1929.51	1.12276
1929.76	-4.56348
1930	1.12857
1930.25	2.07979
1930.5	-0.762737
1930.75	-1.70993
1931	2.08966
1931.24	-2.65879
1931.49	-0.762406
1931.74	1.13173
1931.99	2.07502
1932.24	2.06881
1932.48	3.01147
1932.73	2.05615
1932.98	0.151967
1933.23	2.04533
1933.47	0.141955
1933.72	1.08885
1933.97	-0.805631
1934.22	1.10005
1934.46	-1.73847
1934.71	-1.72425
1934.96	3.9995
1935.21	0.205622
1935.46	2.12171
1935.7	-1.68372
1935.95	3.08872
1936.2	3.06948
1936.45	-0.74834
1936.69	-0.752742
1936.94	3.05312
1937.19	2.0923
1937.44	-4.58383
1937.68	1.12326
1937.93	1.11544
1938.18	0.156321
1938.43	3.95568
1938.68	0.145514
1938.92	2.05397
1939.17	-0.80283
1939.42	2.05416
1939.67	2.05497
1939.91	0.149705
1940.16	1.10291
1940.41	1.10074
1940.66	0.150037
1940.9	-0.801082
1941.15	1.11723
1941.4	4.93994
1941.64	3.98255
1941.89	-5.56562
1942.14	-1.75902
1942.39	2.99244
1942.63	0.137357
1942.88	2.0655
1943.13	-0.796593
1943.38	-1.75375
1943.62	0.144183
1943.87	1.08543
1944.12	2.0283
1944.37	0.131364
1944.61	1.08747
1944.86	-0.820478
1945.11	0.136146
1945.35	0.138362
1945.6	-2.72585
1945.85	2.05418
1946.1	1.10034
1946.34	1.10146
1946.59	3.01429
1946.84	-0.811565
1947.09	-3.68274
1947.33	3.00869
1947.58	3.95983
1947.83	1.08536
1948.07	-0.830754
1948.32	-0.834041
1948.57	-0.837345
1948.82	-0.842129
1949.06	2.02435
1949.31	-1.80001
1949.56	2.02713
1949.8	0.115476
1950.05	3.94592
1950.3	-0.83689
1950.54	-0.831299
1950.79	-0.824938
1951.04	-0.820715
1951.29	2.06083
1951.53	0.148907
1951.78	1.1137
1952.03	0.157555
1952.27	3.99924
1952.52	1.11921
1952.77	-0.801104
1953.01	0.155383
1953.26	1.11683
1953.51	2.0803
1953.76	0.149514
1954	0.138208
1954.25	-0.838424
1954.49	1.06502
1954.74	1.04996
1954.99	1.99465
1955.24	1.98819
1955.48	0.0683591
1955.73	-2.80636
1955.98	1.98728
1956.22	1.99437
1956.47	0.0890603
1956.72	2.97124
1956.96	0.096036
1957.21	-0.863486
1957.46	-0.861708
1957.7	1.06086
1957.95	-2.78123
1958.2	-0.859671
1958.44	-1.82171
1958.69	0.0989282
1958.94	0.096977
1959.18	3.93663
1959.43	-1.83704
1959.68	1.04046
1959.92	-1.84592
1960.17	0.0692952
1960.42	-2.81879
1960.66	-1.86434
1960.91	1.97015
1961.16	0.0425215
1961.4	0.995481
1961.65	1.94869
1961.9	-1.89535
1962.14	0.981278
1962.39	0.97951
1962.63	0.97734
1962.88	1.9351
1963.13	-1.90642
1963.37	-1.9087
1963.62	3.84866
1963.87	0.96657
1964.11	2.88474
1964.36	-0.955924
1964.61	-2.87724
1964.85	0.000146389
1965.1	-0.00458384
1965.35	-0.00719714
1965.59	-1.9314
1965.84	-1.93404
1966.08	2.86644
1966.33	-0.973832
1966.58	-1.93292
1966.82	-0.00968289
1967.07	-1.9315
1967.32	-0.97079
1967.56	2.87033
1967.81	-0.0160985
1968.05	-0.0171883
1968.3	-0.0193653
1968.55	-1.94416
1968.79	0.936514
1969.04	-0.0298595
1969.29	0.924417
1969.53	1.87671
1969.78	1.86622
1970.02	-2.94567
1970.27	0.88659
1970.52	-1.04078
1970.76	1.83238
1971.01	1.82529
1971.25	-0.100058
1971.5	-1.06484
1971.75	0.848563
1971.99	-2.03359
1972.24	-0.11673
1972.48	1.80098
1972.73	-3.95688
1972.98	0.836656
1973.22	-0.127542
1973.47	2.74322
1973.71	0.817008
1973.96	-0.148844
1974.21	-0.154701
1974.45	-0.159508
1974.7	2.71215
1974.94	-3.04168
1975.19	-0.168334
1975.44	1.74774
1975.68	1.74784
1975.93	-0.16929
1976.17	1.74873
1976.42	-1.12917
1976.66	0.787647
1976.91	-0.173691
1977.16	-1.13577
1977.4	-3.05777
1977.65	0.774702
1977.89	1.72828
1978.14	-1.15504
1978.39	1.71494
1978.63	-2.12571
1978.88	3.62042
1979.12	-1.17647
1979.37	-2.1379
1979.61	3.61088
1979.86	1.6911
1980.1	1.68916
1980.35	-1.18909
1980.6	3.59848
1980.84	-0.24222
1981.09	0.709403
1981.33	0.704578
1981.58	-0.259456
1981.82	1.65098
1982.07	3.56209
1982.31	-1.23047
1982.56	5.46991
1982.81	1.63245
1983.05	1.62565
1983.3	0.660076
1983.54	-0.306322
1983.79	-1.2706
1984.03	-0.318856
1984.28	2.5464
1984.52	2.54119
1984.77	-2.24603
1985.02	0.618317
1985.26	3.48011
1985.51	0.60301
1985.75	0.597376
1986	0.594655
1986.24	0.593227
1986.49	3.46145
1986.73	-3.23006
1986.98	-0.362647
1987.22	3.45851
1987.47	0.588806
1987.71	1.53828
1987.96	1.52861
1988.21	1.51802
1988.45	-2.31421
1988.7	-1.37091
1988.94	1.47125
1989.19	1.45267
1989.43	0.471951
1989.68	-3.18477
1989.92	0.507826
1990.17	1.32837
1990.41	-0.621492
1990.66	-1.17107
1990.9	-0.487927
1991.15	0.324008
1991.39	-0.277828
1991.64	-0.487588
1991.88	-0.808522
1992.13	0.250446
1992.37	2.12627
1992.62	-0.303428
1992.86	1.76392
1993.11	-0.284458
1993.35	-1.19039
1993.6	-3.31966
1993.84	1.03482
1994.09	1.40832
1994.33	2.14578
1994.58	1.62671
1994.82	-0.933713
1995.07	-0.254569
1995.31	0.796778
1995.56	-1.25908
1995.8	0.689615
1996.05	-0.701781
1996.29	-0.593701
1996.54	-1.20201
1996.78	-1.95827
1997.03	0.897123
1997.27	-3.18079
1997.52	-0.340466
1997.76	3.04364
1998.01	1.36009
1998.25	-1.20414
1998.5	-0.627697
1998.74	-1.12979
1998.99	1.14901
1999.23	0.14317
1999.48	1.44758
1999.72	0.966979
1999.97	0.655601
2000.21	0.142072
2000.46	1.27872
2000.7	0.256965
2000.95	-0.869349
2001.19	0.969844
2001.43	0.603503
2001.68	1.23384
2001.92	-1.16927
2002.17	-0.581398
2002.41	-0.789167
2002.66	0.0340073
2002.9	-0.711782
2003.15	0.549263
2003.39	-0.813405
2003.64	0.947779
2003.88	-0.594198
2004.13	-1.63922
2004.37	0.115729
2004.61	0.792224
2004.86	-0.220533
2005.1	-0.720899
2005.35	-0.270402
2005.59	1.25895
2005.84	0.239155
2006.08	2.36646
2006.33	-0.164078
2006.57	0.24561
2006.81	0.9562
2007.06	1.54533
2007.3	-0.10856
2007.55	0.286463
2007.79	0.493459
2008.04	2.41683
2008.28	2.29666
2008.53	0.577549
2008.77	0.240279
2009.01	0.0535324
2009.26	0.836151
2009.5	-0.747133
2009.75	-1.94803
2009.99	1.81469
2010.24	0.89625
2010.48	0.223379
2010.73	0.47173
2010.97	0.0752237
2011.21	-0.696414
2011.46	0.282877
2011.7	0.315479
2011.95	1.90357
2012.19	-2.52077
2012.43	0.209807
2012.68	-0.736142
2012.92	-0.740186
2013.17	-4.51252
2013.42	0.183984
2013.67	-0.770194
2013.91	-5.48021
2014.16	-4.54885
2014.41	2.01751
2014.66	2.00226
2014.9	0.111395
2015.15	-0.832371
2015.4	1.98165
2015.64	1.98255
2015.89	1.98436
2016.14	-1.77073
2016.39	1.04111
2016.63	1.98371
2016.88	2.93902
2017.13	1.06054
2017.37	1.99661
2017.62	-0.828527
2017.87	1.04308
2018.11	-2.72317
2018.36	1.02224
2018.61	-1.80504
2018.86	-4.62911
2019.1	3.80172
2019.35	0.0395749
2019.6	0.966139
2019.84	0.022517
2020.09	2.82715
2020.34	-0.923595
2020.58	-0.926331
2020.83	-1.8662
2021.08	-2.80583
2021.33	-0.933829
2021.57	0.00189137
2021.82	-0.000230551
2022.07	-0.94015
2022.31	0.928674
2022.56	-0.0132592
2022.81	-0.0197437
2023.05	-0.963382
2023.3	-0.0359242
2023.55	1.82812
2023.8	3.69119
2024.04	-0.992254
2024.29	1.80561
2024.54	0.864
2024.78	-1.94904
2025.03	-0.0901053
2025.27	5.50293
2025.52	-0.108894
2025.77	-1.05085
2026.02	-2.9247
2026.26	-2.93366
2026.51	-0.135792
2026.76	-1.99577
2027	-0.11767
2027.25	0.831593
2027.5	-0.0857675
2027.74	0.859714
2027.99	-0.0810888
2028.23	1.77266
2028.48	0.814122
2028.73	2.61182
2028.98	-1.99382
2029.22	-1.92119
2029.47	-2.89983
2029.72	3.67186
2029.96	-0.11522
2030.21	0.792208
2030.45	-2.03451
2030.7	-0.172265
2030.95	0.739453
2031.19	3.55214
2031.44	-0.16717
2031.69	-2.03864
2031.93	-2.97357
2032.18	0.757316
2032.43	0.762069
2032.67	-1.09962
2032.92	-2.0278
2033.17	0.779986
2033.41	0.784021
2033.66	-2.01751
2033.91	1.72684
2034.15	1.72838
2034.4	2.64854
2034.64	-1.1067
2034.89	-0.197276
2035.14	2.59361
2035.38	1.66909
2035.63	-1.12535
2035.87	2.62144
2036.12	-3.90605
2036.37	-3.89847
2036.61	-2.03059
2036.86	-1.10831
2037.11	-2.0444
2037.35	3.569
2037.6	0.76174
2037.84	-0.176268
2038.09	0.754605
2038.34	-2.98934
2038.58	0.744717
2038.83	1.67375
2039.08	-1.13509
2039.32	-0.206107
2039.57	-1.14585
2039.81	1.65038
2040.06	2.57689
2040.31	-1.16574
2040.55	3.4924
2040.8	-1.18074
2041.04	-1.18768
2041.29	1.60363
2041.54	3.46231
2041.78	-0.270629
2042.03	1.59065
2042.27	-2.14273
2042.52	-1.21494
2042.77	-0.2894
2043.01	-1.22461
2043.26	0.636961
2043.5	0.637284
2043.75	2.50592
2044	1.58185
2044.24	-1.20828
2044.49	-0.273724
2044.73	-4.0082
2044.98	-2.14892
2045.23	-1.22754
2045.47	0.614679
2045.72	-0.291174
2045.96	-1.21886
2046.21	0.678338
2046.45	0.714597
2046.7	-0.241892
2046.95	-0.265049
2047.19	-0.283108
2047.44	0.649618
2047.68	-0.292022
2047.93	-2.17619
2048.17	0.614411
2048.42	0.613798
2048.67	1.54563
2048.91	4.34267
2049.16	-2.18317
2049.4	-1.24678
2049.65	-2.17668
2049.89	1.56028
2050.14	1.56759
2050.39	2.5064
2050.63	2.51202
2050.88	0.646078
2051.12	-1.22277
2051.37	-1.22563
2051.61	-2.1655
2051.86	0.628217
2052.11	-0.307239
2052.35	-3.1095
2052.6	2.49538
2052.84	-2.1747
2053.09	2.49656
2053.33	1.56497
2053.58	1.56834
2053.82	2.5078
2054.07	-1.22213
2054.31	-2.15483
2054.56	-0.282688
2054.8	-0.28335
2055.05	2.52104
2055.3	2.51833
2055.54	0.644487
2055.79	-2.16777
2056.03	-0.301505
2056.28	0.631003
2056.52	-1.24234
2056.77	3.42782
2057.01	-2.18351
2057.26	2.48854
2057.5	-0.315877
2057.75	-2.18514
2058	1.55588
2058.24	2.49336
2058.49	-3.11564
2058.73	-1.24115
2058.98	-2.17332
2059.22	-0.298526
2059.47	2.51186
2059.71	-1.23237
2059.96	-0.29628
2060.2	2.51154
2060.45	-1.23726
2060.69	-1.24178
2060.94	-2.1812
2061.18	0.627888
2061.43	-0.306077
2061.67	0.631178
2061.92	-1.24154
2062.16	2.50281
2062.41	0.629867
2062.65	1.56672
2062.9	-0.304892
2063.14	-0.3029
2063.39	0.636742
2063.63	0.639476
2063.88	-1.23277
2064.12	-0.294364
2064.37	0.643676
2064.61	2.51917
2064.86	-0.291509
2065.1	-1.227
2065.35	-0.285273
2065.59	-0.279593
2065.84	0.663921
2066.08	-4.02483
2066.33	5.3663
2066.57	-3.08184
2066.82	1.61309
2067.06	-0.263694
2067.31	0.677035
2067.55	-1.2007
2067.8	0.680021
2068.04	-0.256821
2068.29	2.56455
2068.53	-1.19331
2068.78	3.50663
2069.02	-5.89135
2069.27	-0.251577
2069.51	-3.07577
2069.76	-1.20303
2070	2.54373
2070.25	0.660157
2070.49	2.53979
2070.73	-1.20913
2070.98	-1.19928
2071.22	-2.12975
2071.47	3.51103
2071.71	-0.258838
2071.96	-0.23408
2072.2	0.715872
2072.45	1.65491
2072.69	-1.17273
2072.94	2.59204
2073.18	0.705848
2073.43	2.5879
2073.67	1.64412
2073.92	-0.238771
2074.16	-0.238944
2074.4	-0.238546
2074.65	3.52995
2074.89	-0.233621
2075.14	-2.11288
2075.38	-1.16416
2075.63	-3.04133
2075.87	-1.14493
2076.12	0.749553
2076.36	3.58498
2076.6	0.752763
2076.85	2.64104
2077.09	-0.19442
2077.34	1.6876
2077.58	1.68118
2077.83	1.66905
2078.07	0.722435
2078.31	0.724442
2078.56	-0.214633
2078.8	0.72997
2079.05	1.67477
2079.29	-3.98438
2079.54	3.57026
2079.78	-0.195439
2080.03	-0.191676
2080.27	-1.13324
2080.51	-2.07541
2080.76	-1.12849
2081	1.70606
2081.25	0.75787
2081.49	1.70031
2081.74	0.754018
2081.98	-3.02624
2082.22	0.751385
2082.47	-2.08208
2082.71	1.69851
2082.96	-1.13579
2083.2	-2.0811
2083.45	-2.08216
2083.69	-0.193794
2083.93	-3.0302
2084.18	1.69382
2084.42	0.748507
2084.67	-1.14233
2084.91	-0.197706
2085.15	1.69233
2085.4	0.746877
2085.64	0.746145
2085.89	-1.14444
2086.13	-3.03377
2086.37	1.69736
2086.62	-1.13239
2086.86	0.763755
2087.11	1.71147
2087.35	-1.12446
2087.59	-0.175213
2087.84	-1.11998
2088.08	-0.174041
2088.32	1.71852
2088.57	0.77216
2088.81	-0.17382
2089.06	4.55943
2089.3	-3.0124
2089.54	0.77702
2089.79	1.72734
2090.03	-1.10814
2090.28	-0.159405
2090.52	-0.158784
2090.76	-0.157692
2091.01	3.63376
2091.25	0.793424
2091.5	3.63861
2091.74	1.74532
2091.98	-0.144938
2092.23	-0.138825
2092.47	-0.132063
2092.72	2.72163
2092.96	3.67934
2093.2	-5.80962
2093.45	-1.05685
2093.69	-1.05176
2093.93	-0.0966144
2094.18	-0.0923858
2094.42	2.76349
2094.66	0.863069
2094.91	1.81333
2095.15	-2.94183
2095.39	0.858861
2095.64	-0.0960259
2095.88	2.75028
2096.13	1.79606
2096.37	-0.107329
2096.61	2.74058
2096.86	0.839289
2097.1	0.837924
2097.34	0.834334
2097.59	4.62771
2097.83	0.824119
2098.07	-1.07694
2098.32	1.76942
2098.56	1.76783
2098.8	0.814802
2099.05	0.814472
2099.29	0.813516
2099.53	2.70986
2099.78	1.75937
2100.02	-0.13941
2100.27	1.75847
2100.51	0.809864
2100.75	-0.138266
2101	0.812882
2101.24	-2.02995
2101.48	0.82267
2101.73	3.67459
2101.97	4.62579
2102.21	-2.02324
2102.45	-0.124443
2102.7	2.72484
2102.94	3.67281
2103.18	-1.07976
2103.43	1.76372
2103.67	-2.98582
2103.92	-2.98664
2104.16	-2.98804
2104.4	-0.140174
2104.64	2.70951
2104.89	0.814245
2105.13	0.817546
2105.37	-1.07892
2105.62	-2.02528
2105.86	0.829669
2106.1	0.833985
2106.35	-0.11407
2106.59	-1.06255
2106.83	-2.01224
2107.08	-0.110205
2107.32	-0.108295
2107.56	2.74466
2107.8	-0.110413
2108.05	-1.06545
2108.29	-2.02149
2108.53	2.72263
2108.78	1.76582
2109.02	1.76046
2109.26	4.6067
2109.51	0.809683
2109.75	-1.08394
2109.99	-1.07966
2110.23	5.57027
2110.48	2.7203
2110.72	-0.129817
2110.96	-1.07997
2111.21	0.819926
2111.45	-0.130399
2111.69	0.817864
2111.93	-0.135274
2112.18	0.811995
2112.42	3.65941
2112.66	0.810281
2112.91	2.712
2113.15	-1.08478
2113.39	0.817631
2113.63	-0.126814
2113.88	1.77856
2114.12	-1.07059
2114.36	2.72983
2114.61	0.826809
2114.85	1.77661
2115.09	-0.123065
2115.33	-1.07297
2115.58	-2.02455
2115.82	1.77476
2116.06	-0.1276
2116.31	-0.129525
2116.55	2.71572
2116.79	-0.138473
2117.03	-0.140578
2117.28	-2.041
2117.52	2.70609
2117.76	-2.04101
2118	0.805497
2118.25	3.64997
2118.49	-2.04978
2118.73	2.68967
2118.97	-2.0613
2119.22	1.72793
2119.46	-2.07034
2119.7	3.61383
2119.94	0.764793
2120.19	2.65594
2120.43	0.757169
2120.67	-0.191543
2120.91	0.756739
2121.16	0.760708
2121.4	-0.184817
2121.64	-0.17968
2121.88	1.7225
2122.13	0.779546
2122.37	-3.9589
2122.61	1.73791
2122.85	1.74179
2123.1	1.74521
2123.34	0.798901
2123.58	-1.09772
2123.82	0.802035
2124.07	3.64826
2124.31	-1.10063
2124.55	-0.15514
2124.79	-0.160844
2125.03	2.67562
2125.28	0.767659
2125.52	0.757393
2125.76	0.749475
2126	-1.15143
2126.25	-0.210932
2126.49	0.72977
2126.73	1.67117
2126.97	-1.17182
2127.21	1.66109
2127.46	2.60177
2127.7	-1.18236
2127.94	0.707666
2128.18	-0.238973
2128.43	1.64945
2128.67	1.6481
2128.91	0.703148
2129.15	0.703481
2129.39	0.702762
2129.64	0.701098
2129.88	0.699721
2130.12	-3.08133
2130.36	-0.247028
2130.6	0.696811
2130.85	-1.19451
2131.09	-0.251576
2131.33	-2.14344
2131.57	0.687402
2131.81	3.51716
2132.06	-0.263324
2132.3	0.678913
2132.54	2.56464
2132.78	-1.21557
2133.02	-1.21927
2133.27	3.49701
2133.51	2.55334
2133.75	1.61104
2133.99	-0.275073
2134.23	1.61286
2134.48	0.670519
2134.72	2.55911
2134.96	0.671268
2135.2	3.50208
2135.44	-1.21685
2135.68	-2.16126
2135.93	1.61125
2136.17	-1.22281
2136.41	-2.17213
2136.65	-4.06361
2136.89	5.36084
2137.14	3.47697
2137.38	-0.292643
2137.62	1.59374
2137.86	-0.289027
2138.1	-2.17002
2138.34	-1.22818
2138.59	-0.291177
2138.83	1.58958
2139.07	-1.2338
2139.31	1.60269
2139.55	-1.22106
2139.79	1.59705
2140.03	0.64577
2140.28	2.52667
2140.52	-0.303173
2140.76	1.57842
2141	-2.19146
2141.24	1.57472
2141.49	-1.2521
2141.73	0.632214
2141.97	1.56951
2142.21	-1.25966
2142.45	3.44542
2142.69	-0.319319
2142.93	0.626994
2143.18	1.57275
2143.42	-0.29173
2143.66	-2.18427
2143.9	3.40284
2144.14	0.584203
2144.38	-1.29063
2144.62	-0.342455
2144.87	-1.27479
2145.11	-0.329308
2145.35	-0.341694
2145.59	-1.27955
2145.83	-0.337795
2146.07	-0.338541
2146.31	-1.28005
2146.55	-0.341306
2146.8	1.53738
2147.04	2.47588
2147.28	3.41372
2147.52	2.47088
2147.76	1.52845
2148	-1.29238
2148.24	-4.11215
2148.48	-0.356776
2148.73	1.51942
2148.97	1.51681
2149.21	0.574776
2149.45	-3.18416
2149.69	-0.372867
2149.93	0.556437
2150.17	-0.386195
2150.42	2.42103
2150.66	1.47913
2150.9	4.28914
2151.14	-0.397192
2151.38	0.542655
2151.62	-3.20293
2151.86	0.550156
2152.1	-2.25892
2152.34	-2.2569
2152.58	-1.31539
2152.83	0.557704
2153.07	0.555059
2153.31	3.36401
2153.55	3.36029
2153.79	1.48413
2154.03	0.545331
2154.27	1.47912
2154.51	-1.33664
2154.75	3.33923
2154.99	-3.2239
2155.24	2.38335
2155.48	2.37271
2155.72	-2.30961
2155.96	1.42385
2156.2	0.483875
2156.44	-1.38846
2156.68	-2.32421
2156.92	-1.39027
2157.16	0.478164
2157.4	-1.38932
2157.64	-0.452831
2157.89	-3.25207
2158.13	1.42485
2158.37	0.494783
2158.61	-1.37294
2158.85	1.4318
2159.09	0.496772
2159.33	2.36468
2159.57	3.29674
2159.81	1.42459
2160.05	-0.447805
2160.29	0.481378
2160.53	-0.457355
2160.77	-2.32844
2161.01	-0.4651
2161.25	2.33275
2161.5	-1.40034
2161.74	-0.468521
2161.98	-2.33577
2162.22	5.12762
2162.46	3.26249
2162.7	-2.33415
2162.94	-0.467876
2163.18	1.39663
2163.42	-0.471161
2163.66	0.459796
2163.9	-3.27178
2164.14	-0.475869
2164.38	1.38691
2164.62	1.38255
2164.86	0.445211
2165.11	0.442292
2165.35	-0.487675
2165.59	5.10636
2165.83	0.44837
2166.07	3.24515
2166.31	-0.481193
2166.55	0.448842
2166.79	-0.484464
2167.03	5.10223
2167.27	-4.21581
2167.51	2.30072
2167.75	1.36482
2167.99	-0.502867
2168.23	2.27797
2168.47	1.33796
2168.71	2.26477
2168.95	-1.45353
2169.19	1.33774
2169.43	2.27172
2169.67	-5.16256
2169.91	1.35539
2170.15	1.36463
2170.39	0.443898
2170.63	1.38126
2170.87	0.453024
2171.11	4.17733
2171.35	-1.4133
2171.59	-1.41426
2171.83	-0.491246
2172.07	2.28399
2172.31	0.416558
2172.56	-1.44567
2172.79	2.26863
2173.04	1.3371
2173.28	0.408325
2173.51	1.33804
2173.76	0.409639
2174	-2.37512
2174.24	3.20408
2174.48	1.34881
2174.72	-0.507863
2174.96	2.28169
2175.2	0.423721
2175.44	-2.36384
2175.68	0.423871
2175.92	-2.36439
2176.16	3.21141
2176.4	0.423527
2176.64	0.422671
2176.88	-0.508855
2177.12	-2.36703
2177.36	2.27869
2177.6	1.35149
2177.84	1.353
2178.08	1.35359
2178.32	-0.502385
2178.55	1.35439
2178.8	2.27769
2179.03	1.34535
2179.28	-3.29635
2179.52	1.34801
2179.75	-2.36448
2180	1.3509
2180.23	-5.14762
2180.47	0.424396
2180.71	1.35335
2180.95	1.35296
2181.19	2.28094
2181.43	1.35307
2181.67	-1.43211
2181.91	0.422869
2182.15	-1.43471
2182.39	-0.506645
2182.63	1.34746
2182.87	1.34635
2183.11	1.34531
2183.35	1.34185
2183.59	-1.44435
2183.83	0.404817
2184.07	-5.16004
2184.31	-2.38143
2184.55	-1.45656
2184.79	1.32332
2185.03	-0.527811
2185.27	-0.524412
2185.51	2.25873
2185.75	3.18873
2185.99	-3.29537
2186.23	-0.509597
2186.47	-1.43161
2186.7	2.28313
2186.95	-0.491611
2187.18	-1.41169
2187.42	0.452388
2187.66	0.460372
2187.9	-0.46209
2188.14	0.469249
2188.38	-4.17545
2188.62	1.39401
2188.86	-2.32281
2189.1	-3.25402
2189.34	1.38242
2189.58	2.30489
2189.82	0.443277
2190.06	1.3654
2190.3	1.36359
2190.54	-1.41696
2190.78	1.36585
2191.01	1.36928
2191.25	-0.481677
2191.49	0.446875
2191.73	-0.477616
2191.97	1.38022
2192.21	2.31118
2192.45	0.459846
2192.69	1.39069
2192.93	2.32193
2193.17	2.32752
2193.41	-2.30656
2193.65	-3.22994
2193.89	0.489172
2194.13	0.500468
2194.36	-2.27456
2194.6	3.31055
2194.84	2.38694
2195.08	-0.401847
2195.32	-1.3325
2195.56	-0.403735
2195.8	2.38216
2196.04	-0.408975
2196.28	2.37274
2196.52	-0.419921
2196.76	-0.425495
2197	-3.21336
2197.23	4.20686
2197.47	1.42097
2197.71	0.491443
2197.95	1.42063
2198.19	1.42287
2198.43	-0.428308
2198.67	0.506396
2198.91	3.29813
2199.15	1.45061
2199.38	3.31791
2199.62	-0.388988
2199.86	-0.380086
2200.1	2.41771
2200.34	5.22159
2200.58	-2.20673
2200.82	-0.333617
2201.06	0.608448
2201.3	2.48034
2201.54	-3.10354
2201.77	4.34258
2202.01	1.525
2202.25	-0.381374
2202.49	1.44325
2202.73	1.46013
2202.97	-1.28526
2203.21	2.45395
2203.45	3.37858
2203.68	-0.344272
2203.92	1.53785
2204.16	-3.05146
2204.4	2.52138
2204.64	-3.07334
2204.88	0.661939
2205.12	2.51178
2205.36	2.49128
2205.59	-0.317806
2205.83	2.46114
2206.07	5.24824
2206.31	2.46143
2206.55	-2.18082
2206.79	5.26148
2207.03	0.604791
2207.26	0.607987
2207.5	1.54304
2207.74	-0.310752
2207.98	-1.2346
2208.22	3.42389
2208.46	4.36188
2208.7	4.36917
2208.93	0.65186
2209.17	3.45044
2209.41	2.52376
2209.65	-1.19806
2209.89	2.52919
2210.13	-2.12615
2210.36	-1.19223
2210.6	-1.18765
2210.84	-3.04594
2211.08	-2.10919
2211.32	1.62361
2211.56	-1.16699
2211.8	0.702913
2212.03	-0.222603
2212.27	-1.14857
2212.51	0.722109
2212.75	-2.07279
2212.99	0.726156
2213.23	-2.07236
2213.46	-1.13974
2213.7	-1.14117
2213.94	-2.07526
2214.18	1.6573
2214.42	-1.13365
2214.66	-1.12294
2214.89	0.753904
2215.13	-2.04189
2215.37	-0.171103
2215.61	0.765938
2215.85	1.70265
2216.08	-0.162023
2216.32	1.70745
2216.56	1.70916
2216.8	3.57784
2217.04	-5.75727
2217.28	1.71263
2217.51	-1.08605
2217.75	0.784041
2217.99	2.65451
2218.23	-0.14445
2218.47	1.72468
2218.7	1.72783
2218.94	-1.06905
2219.18	1.73783
2219.42	-1.05809
2219.66	-2.92059
2219.9	1.75568
2220.13	-2.91176
2220.37	-0.103829
2220.61	0.8324
2220.85	2.70267
2221.09	1.76942
2221.32	2.7036
2221.56	0.831396
2221.8	1.76137
2222.04	-2.91061
2222.27	-1.0449
2222.51	1.75508
2222.75	-0.110304
2222.99	0.827056
2223.23	-1.03474
2223.46	0.838278
2223.7	-0.0895381
2223.94	-2.88466
2224.18	0.861244
2224.42	-3.80333
2224.65	-1.92565
2224.89	1.8229
2225.13	-1.91162
2225.37	0.902255
2225.6	0.910293
2225.84	1.85549
2226.08	1.8632
2226.32	-1.87608
2226.56	-2.80622
2226.79	1.88426
2227.03	2.82902
2227.27	0.961396
2227.51	0.967466
2227.74	0.97263
2227.98	-0.898963
2228.22	-1.83487
2228.46	0.0413344
2228.69	-2.77076
2228.93	-2.76971
2229.17	1.91925
2229.41	-5.57942
2229.64	0.985284
2229.88	0.0539706
2230.12	-0.875659
2230.36	-0.868049
2230.6	-1.80008
2230.83	1.02176
2231.07	1.02898
2231.31	1.03638
2231.55	3.86167
2231.78	0.113076
2232.02	-0.819668
2232.26	1.0666
2232.5	0.133765
2232.73	-0.799454
2232.97	1.08759
2233.21	1.09455
2233.45	1.1013
2233.68	-1.71446
2233.92	0.17402
2234.16	2.06211
2234.39	0.184822
2234.63	2.06867
2234.87	-3.57774
2235.11	1.12793
2235.34	-1.69633
2235.58	3.94243
2235.82	5.81907
2236.06	2.06089
2236.29	-1.69708
2236.53	2.06853
2236.77	3.01307
2237	1.13561
2237.24	3.02077
2237.48	2.08855
2237.72	0.214233
2237.95	-1.65741
2238.19	1.17929
2238.43	-3.52013
2238.67	-1.62737
2238.9	-0.676575
2239.14	2.16167
2239.38	2.17323
2239.61	2.17764
2239.85	-1.59518
2240.09	-0.651995
2240.33	0.287766
2240.56	-0.657658
2240.8	-0.6574
2241.04	-5.36085
2241.27	1.25223
2241.51	2.20003
2241.75	-0.626274
2241.99	-3.45275
2242.22	3.1572
2242.46	0.330837
2242.7	2.22395
2242.93	4.11791
2243.17	4.1213
2243.41	0.347009
2243.64	0.346894
2243.88	-3.42873
2244.12	0.347519
2244.36	-0.593942
2244.59	1.29709
2244.83	2.24738
2245.07	0.369119
2245.3	-0.563417
2245.54	1.33714
2245.78	2.29065
2246.01	2.29837
2246.25	2.30647
2246.49	2.31434
2246.72	-1.46219
2246.96	-0.511189
2247.2	-1.45116
2247.43	1.39384
2247.67	1.39923
2247.91	-1.43613
2248.14	1.40594
2248.38	0.461308
2248.62	-0.483425
2248.85	-1.4281
2249.09	0.466312
2249.33	-1.42437
2249.56	1.41635
2249.8	1.42344
2250.04	3.32232
2250.27	0.485679
2250.51	3.32499
2250.75	-3.30009
2250.98	5.21302
2251.22	1.42657
2251.46	0.479775
2251.69	-2.35678
2251.93	-0.463932
2252.17	4.26731
2252.4	2.38214
2252.64	2.38905
2252.88	2.3971
2253.11	3.35422
2253.35	1.47752
2253.59	2.43672
2253.82	2.44713
2254.06	2.45608
2254.3	-1.32763
2254.53	0.57558
2254.77	1.52997
2255.01	-0.362798
2255.24	-0.361701
2255.48	-0.357477
2255.72	-0.354145
2255.95	0.598074
2256.19	1.55049
2256.42	2.50615
2256.66	0.616778
2256.9	-2.22247
2257.13	-0.318162
2257.37	1.58692
2257.61	-0.304555
2257.84	-3.14624
2258.08	2.55629
2258.32	-1.23744
2258.55	-0.28364
2258.79	2.57024
2259.02	-0.273601
2259.26	-0.267237
2259.5	-2.16092
2259.73	-0.255323
2259.97	-0.250208
2260.2	-0.244415
2260.44	-1.18934
2260.68	-4.03589
2260.91	-1.17872
2261.15	0.729559
2261.39	-3.0647
2261.62	4.55381
2261.86	-1.1503
2262.1	0.757357
2262.33	-1.14061
2262.57	-1.13547
2262.8	1.7263
2263.04	2.68673
2263.28	2.69561
2263.51	1.75296
2263.75	0.810791
2263.98	2.72843
2264.22	-0.119117
2264.46	2.75428
2264.69	-0.096576
2264.93	0.867681
2265.16	3.74097
2265.4	-0.0703099
2265.64	-1.01818
2265.87	-0.0588496
2266.11	0.90077
2266.34	-7.69432
2266.58	3.7659
2266.81	-0.055703
2267.05	-1.01213
2267.29	4.71275
2267.52	1.84935
2267.76	1.84933
2267.99	4.7108
2268.23	0.89368
2268.47	1.84688
2268.7	-0.058022
2268.94	-1.96084
2269.17	-0.0473298
2269.41	0.91468
2269.65	-0.0299615
2269.88	3.79739
2270.12	-1.91969
2270.35	0.000800252
2270.59	1.92188
2270.82	0.0188802
2271.06	-1.88621
2271.3	1.94523
2271.53	-1.8713
2271.77	-1.86525
2272	1.9665
2272.24	1.018
2272.47	-0.889368
2272.71	0.0713056
2272.95	-0.880821
2273.18	-3.74651
2273.42	1.04234
2273.65	0.0902108
2273.89	0.094959
2274.12	0.0997504
2274.36	0.10444
2274.6	2.98044
2274.83	-0.843416
2275.07	1.07584
2275.3	-0.833603
2275.54	-2.74362
2275.77	-2.7388
2276.01	-0.820971
2276.24	0.143309
2276.48	1.10992
2276.72	2.07726
2276.95	-2.70532
2277.18	-0.78095
2277.42	-0.772649
2277.66	2.11491
2277.89	2.12746
2278.13	0.220801
2278.36	3.11436
2278.6	1.20103
2278.83	1.20637
2279.07	-3.59205
2279.3	0.252633
2279.54	-0.705527
2279.78	0.254564
2280.01	0.248397
2280.24	-1.67335
2280.48	0.243423
2280.72	-0.717051
2280.95	-1.67633
2281.19	-0.716852
2281.42	3.11923
2281.66	-0.71429
2281.89	2.16264
2282.13	0.251821
2282.36	-1.66018
2282.6	3.1401
2282.83	-0.687196
2283.07	0.280531
2283.3	2.20802
2283.54	0.29902
2283.77	-2.56897
2284.01	0.325107
2284.24	-0.623028
2284.48	-0.609553
2284.71	-3.48543
2284.95	0.36756
2285.19	-0.585762
2285.42	-0.577451
2285.65	0.390129
2285.89	3.2816
2286.12	-0.56882
2286.36	2.31239
2286.59	0.391658
2286.83	0.396934
2287.06	-0.557911
2287.3	1.38048
2287.54	-1.49563
2287.77	-0.525991
2288	-3.40958
2288.24	0.452699
2288.47	1.41811
2288.71	-2.43466
2288.94	-1.47083
2289.18	0.455038
2289.41	-1.4733
2289.65	2.37195
2289.88	-1.48041
2290.12	4.28425
2290.35	2.36135
2290.59	0.439869
2290.82	1.40489
2291.06	-0.513791
2291.29	0.454361
2291.53	4.31083
2291.76	-1.44965
2292	7.21949
2292.23	0.490464
2292.47	-0.464886
2292.7	3.39423
2292.94	0.514306
2293.17	5.33943
2293.41	1.49361
2293.64	-0.42676
2293.88	-1.3847
2294.11	0.547678
2294.34	2.47711
2294.58	-4.26794
2294.81	-1.3765
2295.05	0.549896
2295.28	2.47672
2295.52	-1.37547
2295.75	0.551078
2295.99	-0.411338
2296.22	-1.3731
2296.46	1.51318
2296.69	2.46942
2296.93	1.50946
2297.16	0.552642
2297.39	-1.36543
2297.63	-0.395859
2297.86	-2.31312
2298.1	-0.378422
2298.33	1.55874
2298.57	-1.32349
2298.8	-0.353591
2299.04	2.5456
2299.27	-1.30146
2299.51	0.634935
2299.74	1.6067
2299.97	0.647646
2300.21	1.61527
2300.44	0.654072
2300.68	-0.307809
2300.91	1.62743
2301.15	1.63464
2301.38	1.64086
2301.61	3.57707
2301.85	-0.278946
2302.08	-0.275233
2302.32	0.692576
2302.55	-1.23653
2302.79	-1.23471
2303.02	3.59466
2303.25	0.701904
2303.49	2.63399
2303.72	0.706653
2303.96	-0.254887
2304.19	0.715484
2304.43	-0.243011
2304.66	-1.20211
2304.89	1.70014
2305.13	-2.15663
2305.36	-1.18397
2305.6	-1.17867
2305.83	3.65613
2306.07	-0.203749
2306.3	0.768306
2306.53	0.774
2306.77	-0.188602
2307	-0.185225
2307.24	-0.182574
2307.47	2.71929
2307.7	-1.1458
2307.94	-0.17909
2308.17	2.72103
2308.41	-0.176878
2308.64	0.790314
2308.87	0.793102
2309.11	0.796918
2309.34	1.76934
2309.58	1.77602
2309.81	3.71802
2310.04	-0.139604
2310.28	1.80218
2310.51	-0.127609
2310.75	0.843078
2310.98	1.81249
2311.21	-0.121864
2311.45	-2.05827
2311.68	0.832995
2311.92	-1.11035
2312.15	0.816252
2312.38	-1.11738
2312.62	-1.1178
2312.85	-1.11884
2313.08	-0.1541
2313.32	-0.151957
2313.55	-2.07708
2313.79	-2.0689
2314.02	0.837935
2314.25	1.81277
2314.49	-0.110663
2314.72	1.83124
2314.95	2.80911
2315.19	-0.0823752
2315.42	-1.04398
2315.66	-0.0798452
2315.89	1.85105
2316.12	-2.01852
2316.36	0.878062
2316.59	0.868213
2316.82	2.7955
2317.06	2.7942
2317.29	0.864577
2317.52	-0.0978711
2317.76	0.871001
2317.99	2.81075
2318.23	-2.01371
2318.46	-0.0866555
2318.69	4.74001
2318.93	1.84187
2319.16	0.874697
2319.39	1.83804
2319.63	2.8015
2319.86	3.76561
2320.09	2.8006
2320.33	2.80239
2320.56	2.80471
2320.79	1.84121
2321.03	1.84502
2321.26	1.85001
2321.5	-0.0753796
2321.73	-1.03553
2321.96	2.83339
2322.2	-0.0565608
2322.43	2.8505
2322.66	1.89148
2322.9	2.86188
2323.13	3.82879
2323.36	2.86446
2323.6	1.90066
2323.83	2.8701
2324.06	1.90596
2324.3	2.87481
2324.53	0.940957
2324.76	-1.95977
2325	5.77005
2325.23	6.72911
2325.46	3.822
2325.7	4.78292
2325.93	0.916177
2326.16	4.77443
2326.4	3.80465
2326.63	3.80007
2326.86	5.72505
2327.09	4.75528
2327.33	8.60796
2327.56	14.3871
2327.79	16.3105
2328.03	24.016
2328.26	36.5408
2328.49	47.1466
2328.73	50.0392
2328.96	55.8249
2329.19	41.3544
2329.43	26.8899
2329.66	19.1713
2329.89	11.4623
2330.13	12.4241
2330.36	11.4654
2330.59	9.53673
2330.82	9.53419
2331.06	4.71611
2331.29	4.71508
2331.52	-1.06177
2331.76	-0.0958356
2331.99	2.79754
2332.22	-0.0878959
2332.46	0.869354
2332.69	-1.06177
2332.92	-0.102097
2333.16	1.82032
2333.39	-2.99722
2333.62	2.77588
2333.85	1.81002
2334.09	1.80715
2334.32	1.8032
2334.55	-0.125839
2334.79	0.829764
2335.02	-3.98342
2335.25	2.7457
2335.48	0.820495
2335.72	-0.143457
2335.95	5.62615
2336.18	-4.95221
2336.41	6.58645
2336.65	1.77419
2336.88	4.65599
2337.11	2.73041
2337.34	3.68949
2337.58	-0.159016
2337.81	-0.161513
2338.04	2.71899
2338.28	2.7156
2338.51	0.790324
2338.74	-3.05728
2338.97	5.59055
2339.21	2.70603
2339.44	0.782168
2339.67	-0.18123
2339.91	1.73831
2340.14	1.73423
2340.37	0.768126
2340.6	-0.198739
2340.84	4.59862
2341.07	1.70902
2341.3	0.739899
2341.53	0.730291
2341.77	0.719301
2342	2.62873
2342.23	2.62159
2342.46	0.69692
2342.7	5.48448
2342.93	2.60246
2343.16	0.680729
2343.39	2.5943
2343.63	1.63269
2343.86	2.58687
2344.09	4.49959
2344.32	-2.21337
2344.56	1.61885
2344.79	2.57469
2345.02	0.653067
2345.25	-1.26928
2345.49	4.47563
2345.72	0.634283
2345.95	-0.333489
2346.18	1.57439
2346.41	-1.30719
2346.65	0.602428
2346.88	-0.360718
2347.11	2.50652
2347.34	-1.32994
2347.58	3.45097
2347.81	-2.29854
2348.04	1.52685
2348.27	2.48094
2348.5	2.47889
2348.74	0.560482
2348.97	-2.31774
2349.2	0.548126
2349.43	0.539294
2349.67	-1.38935
2349.9	1.46663
2350.13	-3.33096
2350.36	0.475093
2350.59	0.453583
2350.83	3.28058
2351.06	2.27115
2351.29	1.34933
2351.52	-0.492069
2351.75	2.39552
2351.99	2.3409
2352.22	2.30826
2352.45	-0.559444
2352.68	-0.563354
2352.91	0.371388
2353.15	2.2512
2353.38	-1.58204
2353.61	0.32149
2353.84	0.312567
2354.07	-1.60354
2354.31	-1.61049
2354.54	3.14364
2354.77	3.14231
2355	1.23483
2355.23	0.273673
2355.47	-0.688279
2355.7	1.20758
2355.93	-0.707809
2356.16	0.234258
2356.39	-3.58712
2356.63	-0.744871
2356.86	-1.71461
2357.09	-0.779301
2357.32	0.158956
2357.55	-0.804321
2357.79	0.134234
2358.02	-1.77907
2358.25	2.01106
2358.48	-1.80214
2358.71	1.98837
2358.94	-0.876418
2359.18	1.96211
2359.41	-1.84899
2359.64	0.0399933
2359.87	0.0275199
2360.1	2.86273
2360.33	0.948597
2360.57	0.933148
2360.8	-1.9293
2361.03	-0.995529
2361.26	0.88621
2361.49	-5.76824
2361.72	-1.0425
2361.96	-1.05865
2362.19	1.76779
2362.42	0.802654
2362.65	-2.05583
2362.88	2.66263
2363.11	1.69943
2363.34	-1.15597
2363.58	1.6681
2363.81	0.707144
2364.04	-1.19979
2364.27	1.62374
2364.5	0.662048
2364.73	0.64623
2364.97	-1.26107
