#Acq. time (s)=	45
#Accumulations=	2
#Range (cm-¹)=	100...4000
#Windows=	1
#Auto scanning=	Off
#Autofocus=	Off
#Macrospot=	Off
#AutoExposure=	Off
#Spike filter=	Multiple accum.
#Delay time (s)=	2
#Binning=	1
#Readout mode=	Signal
#DeNoise=	Off
#ICS correction=	On
#Dark correction=	Off
#Inst. Process=	Off
#Detector Gain=	Best Dynamic
#Detector ADC=	50 kHz HS
#Detector temperature (°C)=	-60.09
#Instrument=	LabRAM HR Evol
#Detector=	SIN-EM FIVIS
#Objective=	x100_VIS_LWD
#Grating=	150 (500nm)
#ND Filter=	100%
#Laser=	633nm_Edge
#Hole=	49.98
#Temperature=	0
#Range=	Visible
#StageXY=	75x50mm Scan+
#StageZ=	Z motor
#X (µm)=	0
#Y (µm)=	0
#Z (µm)=	57.9
#Full time(mm:ss)=	1:34
#Project=	21_11_22
#Sample=	BU04w
#Site=	
#Title=	BU04w-A-FF3-FI03-V_150 (500nm)_633nm_Edge_100%_x100_VIS_LWD_H50um_45sX2
#Remark=	
#Date=	22.11.2021 12:21
#Acquired=	22.11.2021 12:21:09
#Base:Fit=	16.12.2021 16:15:35
#Base:Fit=	16.12.2021 16:22:22
#Base:Clear=	16.12.2021 16:22:25
#Base:Edit=	16.12.2021 16:22:27
#Base:Edit=	16.12.2021 16:22:28
#Base:Edit=	16.12.2021 16:22:29
#Base:Edit=	16.12.2021 16:22:29
#Base:Edit=	16.12.2021 16:22:30
#Base:Edit=	16.12.2021 16:22:31
#Base:Edit=	16.12.2021 16:22:32
#Base:Edit=	16.12.2021 16:22:32
#Base:Edit=	16.12.2021 16:22:34
#Base:Edit=	16.12.2021 16:22:34
#Base:Edit=	16.12.2021 16:22:35
#Base:Edit=	16.12.2021 16:22:37
#Base:Edit=	16.12.2021 16:22:40
#Base:Edit=	16.12.2021 16:22:42
#Base:Sub=	16.12.2021 16:22:45
100.177	454.839
103.438	395.073
106.695	341.151
109.954	312.128
113.209	291.768
116.464	268.617
119.717	223.512
122.969	212.921
126.219	190.908
129.469	195.782
132.716	169.124
135.963	175.073
139.208	168.621
142.452	154.616
145.694	124.451
148.936	106.788
152.175	114.115
155.414	94.739
158.651	140.552
161.887	173.068
165.121	142.418
168.353	104.126
171.586	83.1257
174.815	49.697
178.045	39.3087
181.272	39.5129
184.5	26.3173
187.724	17.0123
190.947	21.129
194.17	-0.493256
197.39	0.8983
200.611	7.15369
203.829	3.99275
207.045	-1.05641
210.262	8.24806
213.475	8.05827
216.688	7.92369
219.9	10.6837
223.11	43.0279
226.32	50.5798
229.527	96.1663
232.733	122.759
235.939	129.413
239.142	98.0937
242.344	48.7936
245.546	36.699
248.745	27.4494
251.943	19.1729
255.141	19.4661
258.336	24.5611
261.53	10.7154
264.723	11.1397
267.916	19.1915
271.106	16.8515
274.294	17.3913
277.483	19.8615
280.669	10.956
283.854	11.5432
287.038	13.0933
290.221	10.856
293.402	10.5172
296.582	2.6333
299.76	-2.38316
302.938	2.07599
306.114	8.43248
309.288	22.371
312.461	31.5966
315.634	62.5536
318.805	135.977
321.974	202.842
325.142	242.349
328.309	254.495
331.475	174.261
334.639	111.953
337.802	78.9054
340.963	55.3105
344.123	32.6708
347.282	29.8187
350.441	14.7417
353.597	15.6666
356.752	32.6004
359.906	26.9298
363.058	47.6082
366.209	47.5851
369.36	33.4796
372.509	14.7025
375.656	25.9773
378.802	7.23967
381.947	8.21713
385.09	4.57123
388.232	-1.8085
391.373	5.93047
394.512	12.785
397.652	14.9915
400.789	21.0601
403.925	8.2504
407.059	24.6612
410.192	24.1096
413.324	11.2441
416.455	26.6659
419.584	56.3495
422.712	66.0897
425.839	92.7491
428.964	103.068
432.089	108.626
435.212	111.334
438.333	83.8849
441.454	78.1414
444.573	75.2094
447.691	65.6897
450.807	62.7337
453.923	71.9782
457.037	67.2195
460.15	51.3298
463.261	40.1941
466.371	39.3909
469.48	15.2855
472.588	21.9855
475.695	27.7982
478.8	19.6685
481.904	23.623
485.007	21.0551
488.108	17.5546
491.208	32.6978
494.307	17.1017
497.405	34.1045
500.502	51.1302
503.597	53.2698
506.691	59.1278
509.784	65.0012
512.874	69.0341
515.964	76.8083
519.053	55.6803
522.141	56.0697
525.227	48.0508
528.312	45.6712
531.396	40.5058
534.479	55.0833
537.559	54.6416
540.639	42.8327
543.718	47.9358
546.796	36.9561
549.873	34.3548
552.948	35.5807
556.022	43.3758
559.093	36.9024
562.165	16.1797
565.235	20.9232
568.304	19.0042
571.372	14.2242
574.437	4.71991
577.503	16.7805
580.567	21.3231
583.63	25.9054
586.691	20.2113
589.75	20.1738
592.81	23.9359
595.868	34.2251
598.924	25.9658
601.98	28.0616
605.033	27.4076
608.086	39.8241
611.138	29.8792
614.188	40.5076
617.236	35.3206
620.285	47.9194
623.332	31.4725
626.376	35.7033
629.42	27.5446
632.464	37.2153
635.506	32.647
638.545	16.6769
641.585	23.2797
644.623	26.0038
647.659	10.9176
650.695	24.9676
653.73	50.1799
656.762	28.4165
659.794	46.0415
662.825	18.7193
665.854	32.5901
668.883	26.8315
671.91	15.6084
674.935	21.3347
677.96	8.34387
680.982	20.5327
684.005	4.81624
687.027	3.1064
690.045	14.539
693.064	10.1224
696.082	13.1878
699.097	5.00076
702.113	11.7991
705.126	7.32266
708.139	5.62558
711.149	16.1036
714.16	10.4074
717.169	5.71912
720.176	10.3902
723.183	12.287
726.187	19.7229
729.192	9.28824
732.194	17.6061
735.196	14.6735
738.196	-1.3532
741.196	11.6258
744.193	-0.621704
747.19	-2.56052
750.185	13.2248
753.18	20.6776
756.173	18.7757
759.165	9.54681
762.155	18.113
765.146	9.94646
768.133	11.1479
771.121	12.3473
774.107	10.7454
777.092	-5.93077
780.075	-0.106873
783.058	10.3967
786.039	17.1164
789.02	9.6906
791.998	0.344803
794.975	9.82372
797.952	12.6689
800.927	10.7468
803.902	1.2598
806.874	5.88515
809.845	0.149139
812.817	18.8283
815.786	21.4752
818.755	8.13403
821.721	14.5046
824.686	12.4194
827.652	15.0113
830.615	22.3346
833.576	20.4389
836.538	11.118
839.498	12.1521
842.458	17.96
845.415	18.0987
848.37	20.1545
851.327	10.9734
854.28	14.9405
857.233	17.0515
860.184	15.4116
863.135	20.3729
866.084	22.5139
869.032	15.1969
871.98	23.9128
874.925	20.2593
877.87	23.1945
880.813	40.3517
883.756	22.3753
886.697	15.7437
889.636	26.1618
892.576	34.6523
895.513	19.4128
898.45	23.0676
901.385	25.7034
904.318	15.0824
907.253	25.2568
910.184	34.4371
913.114	29.4812
916.044	35.8313
918.973	31.0021
921.9	31.848
924.826	33.7231
927.75	45.9668
930.674	49.8934
933.596	61.302
936.519	58.7747
939.439	67.6535
942.357	97.3801
945.275	105.442
948.192	127.823
951.107	136.015
954.023	111.814
956.936	120.881
959.848	104.107
962.759	96.82
965.669	93.2633
968.577	96.4181
971.485	81.2639
974.391	88.1117
977.296	106.378
980.201	125.468
983.104	128.185
986.006	154.815
988.907	152.661
991.806	139.97
994.704	131.109
997.602	102.244
1000.5	118.305
1003.39	107.673
1006.29	98.0674
1009.18	116.174
1012.07	119.195
1014.96	140.353
1017.85	147.193
1020.74	161.727
1023.63	200.302
1026.51	182.577
1029.4	155.25
1032.28	110.596
1035.16	67.7855
1038.04	63.3653
1040.92	63.7476
1043.8	53.5067
1046.68	49.0572
1049.56	40.6424
1052.43	51.5621
1055.31	30.4627
1058.18	17.0546
1061.05	30.7808
1063.93	32.8138
1066.8	48.3459
1069.67	38.6556
1072.53	31.8753
1075.4	44.4911
1078.26	54.1585
1081.13	48.2877
1083.99	57.9357
1086.85	74.3591
1089.72	82.1091
1092.58	111.138
1095.44	148.878
1098.29	158.497
1101.15	152.655
1104	127.518
1106.86	84.1732
1109.71	52.2929
1112.56	54.4657
1115.42	51.9708
1118.27	34.9051
1121.11	42.0419
1123.96	41.3566
1126.81	44.5621
1129.65	37.0836
1132.5	54.0142
1135.34	51.4203
1138.18	62.5185
1141.03	81.5334
1143.87	79.8833
1146.7	113.537
1149.54	135.491
1152.38	202.648
1155.21	189.973
1158.05	134.857
1160.88	86.587
1163.71	51.0248
1166.55	27.3425
1169.37	23.327
1172.2	9.5108
1175.03	23.1341
1177.86	24.9791
1180.68	13.1826
1183.51	9.24399
1186.33	10.2757
1189.15	13.2967
1191.98	15.3553
1194.8	7.73843
1197.61	11.8419
1200.43	12.1254
1203.25	13.4616
1206.06	7.93944
1208.88	15.2353
1211.69	4.79243
1214.51	17.0833
1217.32	12.6119
1220.13	3.1752
1222.94	0.668381
1225.74	6.12723
1228.55	8.60159
1231.36	10.055
1234.16	6.45934
1236.97	7.85115
1239.77	14.2389
1242.57	17.5521
1245.37	15.7807
1248.17	16.9901
1250.97	17.1343
1253.77	20.3165
1256.56	37.5571
1259.36	55.7549
1262.15	40.5655
1264.94	28.4381
1267.74	5.24736
1270.53	24.3484
1273.32	48.4077
1276.11	254.274
1278.89	588.109
1281.68	298.686
1284.46	66.0076
1287.25	32.916
1290.03	34.9017
1292.81	27.9207
1295.59	8.0013
1298.38	21.0884
1301.15	12.2044
1303.93	8.38103
1306.71	8.60168
1309.48	5.87247
1312.26	23.2734
1315.03	19.6381
1317.81	5.9413
1320.58	13.3826
1323.35	10.7707
1326.12	6.14836
1328.88	22.8004
1331.65	24.2826
1334.42	-5.82617
1337.18	12.8898
1339.95	5.0938
1342.71	-0.737366
1345.47	13.8658
1348.23	4.91887
1350.99	19.5325
1353.75	16.7058
1356.51	26.1684
1359.26	8.90132
1362.02	25.5076
1364.77	38.9975
1367.53	23.6775
1370.28	33.0117
1373.03	20.7599
1375.78	47.5541
1378.53	192.429
1381.28	793.098
1384.03	701.631
1386.77	159.696
1389.52	45.8536
1392.26	34.6889
1395	23.5531
1397.74	26.9053
1400.49	44.609
1403.23	82.9146
1405.96	60.566
1408.7	24.8032
1411.44	18.8937
1414.17	30.5371
1416.91	12.2544
1419.64	16.686
1422.37	6.64052
1425.11	-0.306442
1427.84	9.33881
1430.56	10.7027
1433.29	-3.56096
1436.02	4.03273
1438.74	5.37941
1441.47	3.57532
1444.19	0.757324
1446.92	2.08443
1449.64	3.3736
1452.36	-3.76662
1455.08	-0.435959
1457.8	-6.58609
1460.52	0.894989
1463.23	-2.14493
1465.95	-3.09825
1468.66	-7.20796
1471.38	3.3824
1474.09	5.58209
1476.8	-0.594742
1479.51	-2.55061
1482.22	5.99063
1484.93	-12.756
1487.64	-2.07632
1490.34	-3.98495
1493.05	-0.617004
1495.75	6.99484
1498.46	-4.35681
1501.16	3.2877
1503.86	-2.78217
1506.56	-3.56232
1509.26	10.5059
1511.96	-1.90233
1514.65	-3.70189
1517.35	9.3952
1520.05	0.168015
1522.74	5.85143
1525.43	-11.9521
1528.13	9.79704
1530.82	2.66867
1533.51	3.06174
1536.2	13.1115
1538.88	20.9795
1541.57	0.78746
1544.25	4.26897
1546.94	2.27701
1549.62	6.72696
1552.31	-0.769272
1554.99	3.57182
1557.67	3.56624
1560.35	-0.721481
1563.03	3.63002
1565.71	11.2067
1568.38	-2.7874
1571.06	-0.607697
1573.73	13.4199
1576.41	13.4611
1579.08	9.25294
1581.75	-5.71748
1584.42	4.08366
1587.09	-3.3304
1589.76	-8.58315
1592.43	-0.892365
1595.09	4.66594
1597.76	10.2539
1600.42	-2.50075
1603.09	7.44377
1605.75	16.338
1608.41	1.46805
1611.07	14.7782
1613.73	-3.33473
1616.39	-1.90462
1619.05	0.636017
1621.7	-6.64981
1624.36	-4.11688
1627.01	11.5816
1629.67	16.3493
1632.32	-1.99469
1634.97	12.6333
1637.62	11.8147
1640.27	-0.178818
1642.92	6.64711
1645.57	-1.99471
1648.22	-4.02809
1650.86	4.99666
1653.51	1.83537
1656.15	-0.245972
1658.79	6.52184
1661.43	1.08504
1664.07	5.62526
1666.71	11.2598
1669.35	1.36671
1671.99	4.77798
1674.63	3.75259
1677.26	7.13895
1679.9	9.43657
1682.53	-1.61565
1685.16	0.618362
1687.79	7.28091
1690.43	12.8456
1693.05	-0.385666
1695.68	5.23599
1698.31	2.04971
1700.94	3.37592
1703.56	-0.581024
1706.19	0.912155
1708.81	1.29306
1711.44	0.0391083
1714.06	4.5744
1716.68	8.12953
1719.3	5.12433
1721.92	6.44649
1724.53	6.60808
1727.15	-2.13441
1729.77	1.44421
1732.38	3.9075
1735	5.24489
1737.61	11.0799
1740.22	-6.73238
1742.83	10.3769
1745.44	7.20181
1748.05	-2.78253
1750.66	-2.62321
1753.27	-3.60571
1755.87	7.84798
1758.48	9.09045
1761.08	2.38837
1763.69	7.0087
1766.29	0.31369
1768.89	12.8805
1771.49	10.7274
1774.09	-12.9628
1776.69	5.30836
1779.29	0.925064
1781.88	7.909
1784.48	-2.13919
1787.07	-0.816162
1789.66	8.51196
1792.26	3.03252
1794.85	12.387
1797.44	12.6271
1800.03	6.02791
1802.62	-5.17924
1805.21	5.39488
1807.79	12.5283
1810.38	10.4472
1812.96	7.20935
1815.55	-0.647552
1818.13	7.6429
1820.71	10.1595
1823.29	3.44418
1825.87	8.29195
1828.45	0.400818
1831.03	-5.17877
1833.61	7.81548
1836.18	3.41086
1838.76	11.7633
1841.33	11.9593
1843.91	5.14568
1846.48	-6.35748
1849.05	1.98257
1851.62	11.5129
1854.19	-9.43047
1856.76	12.9828
1859.33	1.43839
1861.89	-4.23697
1864.46	-7.5827
1867.02	-0.326126
1869.59	-2.50093
1872.15	2.36873
1874.71	3.69089
1877.27	-5.59692
1879.83	12.2334
1882.39	-8.87784
1884.95	16.044
1887.51	0.805984
1890.06	4.4225
1892.62	-4.9763
1895.17	-3.73817
1897.73	9.34274
1900.28	9.4474
1902.83	1.32799
1905.38	3.88213
1907.93	-0.676422
1910.48	5.4922
1913.03	-6.13485
1915.57	4.86311
1918.12	13.4711
1920.66	0.41748
1923.21	-5.38598
1925.75	5.5528
1928.29	-2.6395
1930.83	1.13188
1933.37	1.30859
1935.91	-6.92838
1938.45	2.83116
1940.99	-1.83295
1943.53	6.71786
1946.06	4.43526
1948.6	4.55327
1951.13	1.03517
1953.66	7.14182
1956.19	-1.21516
1958.73	6.08534
1961.26	-4.69568
1963.78	-3.43299
1966.31	-10.6127
1968.84	3.87794
1971.36	3.89374
1973.89	0.291763
1976.41	-10.5284
1978.94	3.93549
1981.46	-2.07018
1983.98	1.55591
1986.5	-5.64088
1989.02	10.0194
1991.54	4.03448
1994.06	-3.14459
1996.58	0.503296
1999.09	-3.05056
2001.61	7.82864
2004.12	15.1152
2006.63	1.97815
2009.15	2.06944
2011.66	-3.83841
2014.17	-8.55434
2016.68	6.00302
2019.19	10.9051
2021.69	3.77258
2024.2	-4.54587
2026.71	4.03082
2029.21	-0.65155
2031.72	-2.90575
2034.22	2.1087
2036.72	2.28441
2039.22	0.0402679
2041.72	9.9285
2044.22	4.05222
2046.72	-9.12491
2049.22	-1.6347
2051.71	8.30325
2054.21	1.12025
2056.71	7.41241
2059.2	12.5042
2061.69	-1.96508
2064.18	11.7007
2066.68	7.0121
2069.17	8.43486
2071.66	7.40373
2074.14	1.45212
2076.63	9.02283
2079.12	20.3009
2081.6	9.38838
2084.09	9.55305
2086.57	-7.59151
2089.06	1.18713
2091.54	1.35287
2094.02	7.72546
2096.5	-0.741432
2098.98	1.94116
2101.46	2.15137
2103.93	1.12646
2106.41	3.84358
2108.89	9.07198
2111.36	6.82629
2113.84	4.58671
2116.31	11.1148
2118.78	12.6411
2121.25	-2.1768
2123.72	-3.19381
2126.19	15.9585
2128.66	2.32429
2131.13	0.024147
2133.59	-2.2919
2136.06	11.8563
2138.53	1.91821
2140.99	8.4678
2143.45	-7.86169
2145.92	10.1325
2148.38	-1.15946
2150.84	6.63686
2153.3	11.8852
2155.76	-17.3405
2158.21	5.76036
2160.67	10.9822
2163.13	14.9156
2165.58	-9.28768
2168.04	8.68127
2170.49	10.0481
2172.94	3.76504
2175.39	1.3138
2177.84	6.53188
2180.29	4.03889
2182.74	5.38329
2185.19	16.9427
2187.64	-4.75526
2190.08	-2.1185
2192.53	-0.745544
2194.98	0.630608
2197.42	8.44135
2199.86	11.1478
2202.3	12.5898
2204.74	3.77358
2207.18	2.66569
2209.62	5.43008
2212.06	-3.38313
2214.5	5.8397
2216.93	-4.26633
2219.37	7.58385
2221.81	9.10999
2224.24	1.56649
2226.67	6.98072
2229.11	13.7083
2231.54	10.0439
2233.97	11.5809
2236.4	10.5118
2238.83	4.21576
2241.25	8.36135
2243.68	-5.80656
2246.1	-8.21128
2248.53	5.12804
2250.96	4.04057
2253.38	12.1563
2255.8	7.11839
2258.22	-3.19684
2260.64	-4.29855
2263.06	1.19723
2265.48	5.36395
2267.9	-1.07496
2270.32	-2.23434
2272.73	9.86543
2275.15	4.70384
2277.56	0.857765
2279.98	-3.00613
2282.39	6.40762
2284.8	3.83861
2287.21	6.5778
2289.62	13.3186
2292.03	0.0940933
2294.44	6.82783
2296.85	2.92883
2299.26	-4.94399
2301.66	9.82671
2304.07	-2.02264
2306.47	14.1468
2308.88	4.98985
2311.28	3.85307
2313.68	10.7462
2316.08	12.3145
2318.48	17.9233
2320.88	14.1386
2323.28	57.4033
2325.68	50.9847
2328.07	8.14185
2330.47	2.9911
2332.86	-7.5679
2335.26	3.5108
2337.65	6.48996
2340.04	8.1196
2342.43	5.68754
2344.82	3.24976
2347.21	7.66
2349.6	-4.3646
2351.99	5.5037
2354.38	-7.95307
2356.76	8.76931
2359.15	-6.12875
2361.53	18.8341
2363.92	9.40368
2366.3	-5.57077
2368.68	-3.9933
2371.06	-1.0344
2373.44	-4.99904
2375.82	-3.42773
2378.2	7.86292
2380.58	10.8038
2382.95	6.79482
2385.33	8.31336
2387.71	-8.25018
2390.08	11.3368
2392.45	7.25432
2394.83	12.9133
2397.2	-0.93866
2399.57	-0.869385
2401.94	0.5961
2404.31	-6.30928
2406.68	-6.24788
2409.04	7.76907
2411.41	7.93845
2413.78	8.15224
2416.14	-5.48679
2418.51	-0.864479
2420.87	7.85557
2423.23	3.83046
2425.59	-0.260048
2427.95	-1.45202
2430.31	4.40617
2432.67	7.467
2435.03	-6.41546
2437.39	3.74174
2439.75	9.66888
2442.1	-4.27287
2444.46	10.1908
2446.81	-16.6112
2449.16	-4.97374
2451.52	0.983353
2453.87	2.65591
2456.22	1.46777
2458.57	6.01948
2460.92	-8.10301
2463.27	-3.55444
2465.61	6.76413
2467.96	4.11662
2470.3	0.0100555
2472.65	11.8012
2474.99	9.13922
2477.34	19.5339
2479.68	0.899261
2482.02	2.5688
2484.36	4.23473
2486.7	17.5462
2489.04	14.8381
2491.38	3.35504
2493.72	13.7792
2496.05	12.5281
2498.39	-0.461273
2500.72	-0.281364
2503.06	10.1684
2505.39	3.00101
2507.72	9.04689
2510.06	6.26551
2512.39	0.526657
2514.72	15.4001
2517.04	3.75462
2519.37	-1.98868
2521.7	8.50916
2524.03	-1.6686
2526.35	-0.0399704
2528.68	6.0359
2531	-5.6541
2533.33	6.36954
2535.65	9.51772
2537.97	-8.11597
2540.29	3.95267
2542.61	-3.30044
2544.93	7.31039
2547.25	10.5005
2549.57	-1.2436
2551.88	7.91685
2554.2	9.61057
2556.51	9.78946
2558.83	-6.52751
2561.14	-3.34305
2563.46	2.85177
2565.77	4.56816
2568.08	1.76693
2570.39	-2.53904
2572.7	6.73218
2575.01	14.5085
2577.31	4.12628
2579.62	11.892
2581.93	1.45529
2584.23	12.2214
2586.54	1.73256
2588.84	0.334953
2591.15	3.45863
2593.45	5.10771
2595.75	6.77026
2598.05	-11.3427
2600.35	14.7042
2602.65	-4.98268
2604.95	1.24739
2607.24	-1.68331
2609.54	-3.08961
2611.84	0.0613174
2614.13	1.69397
2616.42	4.85505
2618.72	1.9097
2621.01	2.01275
2623.3	-5.53467
2625.59	6.84241
2627.88	8.50245
2630.17	8.66199
2632.46	24.2128
2634.75	4.43082
2637.04	18.5181
2639.32	-2.81526
2641.61	3.58794
2643.89	11.5698
2646.18	10.2832
2648.46	8.97095
2650.74	-3.23193
2653.02	7.89854
2655.3	-2.84185
2657.58	8.2339
2659.86	-4.11004
2662.14	5.40298
2664.42	-5.4202
2666.69	4.08075
2668.97	16.7663
2671.24	7.52274
2673.52	3.01314
2675.79	3.24489
2678.06	0.399384
2680.33	0.75058
2682.61	-2.11392
2684.88	4.53273
2687.15	15.9827
2689.41	5.1505
2691.68	0.625069
2693.95	-3.91962
2696.22	2.58101
2698.48	9.16505
2700.74	-1.88886
2703.01	7.90768
2705.27	4.84866
2707.53	11.4407
2709.8	9.97946
2712.06	2.06316
2714.32	8.66743
2716.57	12.0948
2718.83	4.15999
2721.09	-2.15977
2723.35	6.07761
2725.6	-0.289032
2727.86	7.93603
2730.11	-6.57133
2732.37	-3.2504
2734.62	3.33986
2736.87	-1.46038
2739.12	5.11245
2741.37	6.84525
2743.62	2.06945
2745.87	5.44413
2748.12	10.4652
2750.37	8.99131
2752.61	4.3343
2754.86	12.6964
2757.1	4.66302
2759.35	8.07228
2761.59	8.18137
2763.83	3.394
2766.08	8.47212
2768.32	8.62946
2770.56	0.524055
2772.8	-0.976204
2775.04	-0.815903
2777.27	-2.28947
2779.51	9.47603
2781.75	4.74281
2783.98	-0.0205917
2786.22	8.51659
2788.45	5.40967
2790.68	-1.05151
2792.92	-4.19607
2795.15	-4.00813
2797.38	-5.5184
2799.61	-3.67442
2801.84	11.6041
2804.07	11.7646
2806.3	3.49368
2808.52	0.257782
2810.75	7.13464
2812.98	0.507317
2815.2	7.37032
2817.42	0.714943
2819.65	9.28684
2821.87	6.01668
2824.09	6.13786
2826.31	-0.528679
2828.53	2.9768
2830.75	6.48356
2832.97	15.0933
2835.19	-1.82147
2837.41	-0.0214157
2839.62	13.7121
2841.84	1.88185
2844.05	-4.84155
2846.27	-4.72727
2848.48	5.64535
2850.69	-6.20422
2852.9	4.21423
2855.12	6.0901
2857.33	7.97129
2859.54	9.85108
2861.74	6.58572
2863.95	5.04756
2866.16	-17.2161
2868.37	-1.48155
2870.57	2.1666
2872.78	7.5582
2874.98	-2.67659
2877.18	7.95418
2879.39	-7.53558
2881.59	1.38844
2883.79	6.84945
2885.99	1.81453
2888.19	5.53283
2890.39	0.46067
2892.59	-4.6332
2894.78	16.7346
2896.98	2.83376
2899.18	3.05614
2901.37	5.04369
2903.57	15.9006
2905.76	8.97774
2907.95	5.59685
2910.15	-6.73082
2912.34	4.1213
2914.53	-6.48368
2916.72	-2.782
2918.91	0.944084
2921.09	15.4586
2923.28	6.62888
2925.47	4.99529
2927.65	8.77526
2929.84	-0.0774231
2932.02	3.71143
2934.21	12.9174
2936.39	3.99675
2938.57	2.29892
2940.75	16.9394
2942.94	4.33459
2945.12	9.89597
2947.29	9.97649
2949.47	0.951416
2951.65	6.50941
2953.83	13.897
2956	13.9869
2958.18	6.76222
2960.36	14.1653
2962.53	6.93969
2964.7	1.53678
2966.88	7.1366
2969.05	7.24306
2971.22	-1.83298
2973.39	5.62435
2975.56	11.2552
2977.73	0.315819
2979.9	7.79467
2982.06	7.91862
2984.23	4.36225
2986.4	-2.89746
2988.56	10.2126
2990.73	6.66484
2992.89	-8.03189
2995.05	3.2701
2997.21	10.893
2999.38	12.9462
3001.54	13.1426
3003.7	-1.63166
3005.86	11.6817
3008.01	0.61042
3010.17	8.31689
3012.33	10.3691
3014.49	-0.755539
3016.64	6.99873
3018.8	3.42162
3020.95	13.1149
3023.1	7.61571
3025.26	9.6964
3027.41	11.7622
3029.56	8.09772
3031.71	4.4156
3033.86	8.36243
3036.01	-1.10486
3038.16	-4.8556
3040.31	2.94637
3042.45	-2.70776
3044.6	-0.690437
3046.74	1.32684
3048.89	11.0504
3051.03	11.1497
3053.18	17.0368
3055.32	9.42669
3057.46	5.66854
3059.6	5.76722
3061.74	0.0563507
3063.88	2.08799
3066.02	17.7035
3068.16	4.22098
3070.3	15.9775
3072.43	16.085
3074.57	2.57096
3076.7	14.3643
3078.84	10.5781
3080.97	16.5435
3083.1	8.84206
3085.24	22.6683
3087.37	3.23517
3089.5	15.1515
3091.63	3.54561
3093.76	19.453
3095.89	9.81431
3098.02	23.8216
3100.14	16.1296
3102.27	10.4026
3104.4	14.5846
3106.52	22.7649
3108.65	17.0416
3110.77	25.2708
3112.89	23.5422
3115.01	25.7992
3117.14	10.0136
3119.26	18.2915
3121.38	16.5472
3123.5	18.8366
3125.62	27.2157
3127.73	25.5001
3129.85	31.9208
3131.97	22.0834
3134.08	24.4485
3136.2	24.7745
3138.31	25.0922
3140.43	27.4536
3142.54	19.5041
3144.65	28.0368
3146.76	30.3824
3148.87	28.5857
3150.98	22.5976
3153.09	29.0461
3155.2	39.6828
3157.31	23.2062
3159.42	38.0389
3161.52	17.3288
3163.63	36.3947
3165.73	32.4004
3167.84	34.694
3169.94	32.7725
3172.05	33.001
3174.15	43.7394
3176.25	33.335
3178.35	31.3543
3180.45	27.2401
3182.55	35.8163
3184.65	54.9936
3186.75	48.7424
3188.84	42.4437
3190.94	53.1825
3193.04	42.7056
3195.13	38.5974
3197.23	55.8101
3199.32	32.6094
3201.41	62.7969
3203.51	43.847
3205.6	52.7164
3207.69	59.5047
3209.78	53.3967
3211.87	40.8021
3213.96	47.6172
3216.05	56.6457
3218.13	57.0103
3220.22	46.4787
3222.31	31.5525
3224.39	44.9509
3226.48	47.472
3228.56	52.1846
3230.64	52.5097
3232.73	30.8405
3234.81	42.1239
3236.89	37.9908
3238.97	36.0766
3241.05	34.1764
3243.13	43.3774
3245.21	37.0751
3247.29	35.1338
3249.36	28.7271
3251.44	28.943
3253.52	33.6478
3255.59	20.366
3257.66	29.526
3259.74	29.7847
3261.81	41.3097
3263.88	32.5745
3265.95	17.0553
3268.03	22.0364
3270.1	17.6811
3272.17	29.4544
3274.23	15.9812
3276.3	25.2584
3278.37	18.5741
3280.44	25.6014
3282.5	25.771
3284.57	23.6465
3286.63	26.1093
3288.7	10.1837
3290.76	14.9329
3292.82	21.988
3294.88	8.30769
3296.94	29.2072
3299	15.5167
3301.06	4.14053
3303.12	15.8513
3305.18	16.015
3307.24	11.5401
3309.3	14.0138
3311.35	16.4855
3313.41	16.6284
3315.46	14.4673
3317.52	23.9322
3319.57	12.4581
3321.63	12.6312
3323.68	10.4926
3325.73	15.3609
3327.78	22.6054
3329.83	6.40175
3331.88	9.00201
3333.93	18.6842
3335.98	16.5944
3338.02	23.9535
3340.07	17.0765
3342.12	14.9056
3344.16	0.854904
3346.21	20.0062
3348.25	13.0233
3350.3	8.44169
3352.34	15.7352
3354.38	8.74966
3356.42	11.3245
3358.46	11.5148
3360.5	16.4828
3362.54	11.9025
3364.58	21.667
3366.62	21.8599
3368.66	-4.3419
3370.69	5.44152
3372.73	12.8235
3374.76	15.396
3376.8	1.09899
3378.83	10.8816
3380.87	15.8527
3382.9	15.9993
3384.93	1.65294
3386.96	6.61972
3388.99	11.5895
3391.02	4.46093
3393.05	28.7955
3395.08	11.999
3397.11	12.1585
3399.14	19.5974
3401.16	10.0414
3403.19	5.31225
3405.21	10.2963
3407.24	20.1534
3409.26	10.5606
3411.29	3.37759
3413.31	18.1016
3415.33	18.2274
3417.35	6.17902
3419.37	6.30115
3421.39	18.6085
3423.41	11.4144
3425.43	28.6144
3427.45	14.1201
3429.46	14.2695
3431.48	19.3145
3433.5	4.81284
3435.51	0.087677
3437.53	12.5055
3439.54	37.2087
3441.55	3.07641
3443.57	0.815254
3445.58	5.94309
3447.59	8.63766
3449.6	11.3323
3451.61	16.5027
3453.62	1.9345
3455.63	14.5634
3457.64	14.856
3459.64	12.6705
3461.65	15.4565
3463.66	5.79121
3465.66	13.5702
3467.67	21.3766
3469.67	6.6498
3471.67	14.4565
3473.68	17.1941
3475.68	14.9631
3477.68	-2.39852
3479.68	5.42561
3481.68	23.3807
3483.68	3.41501
3485.68	8.73833
3487.68	29.3038
3489.67	6.70973
3491.67	9.50777
3493.67	9.75795
3495.66	12.5463
3497.66	12.7813
3499.65	2.78008
3501.64	5.54916
3503.64	10.8689
3505.63	-1.74612
3507.62	6.12476
3509.61	8.85026
3511.6	11.5657
3513.59	19.4204
3515.58	-6.12157
3517.57	9.43896
3519.56	14.7267
3521.54	2.01605
3523.53	9.87869
3525.52	-2.82882
3527.5	5.05032
3529.49	7.76028
3531.47	0.210144
3533.45	10.7246
3535.43	0.626091
3537.42	13.7767
3539.4	3.69056
3541.38	3.91621
3543.36	11.909
3545.34	9.53008
3547.32	4.54549
3549.29	-13.4465
3551.27	2.31733
3553.25	12.8358
3555.22	10.4029
3557.2	7.98078
3559.17	2.96131
3561.15	-2.05679
3563.12	3.3539
3565.09	13.999
3567.07	3.78748
3569.04	-14.2622
3571.01	-11.4371
3572.98	1.87938
3574.95	-5.7486
3576.92	-8.13361
3578.88	7.89316
3580.85	5.53866
3582.82	-10.0033
3584.79	3.46339
3586.75	-1.54824
3588.72	-1.27879
3590.68	6.94967
3592.64	1.91689
3594.61	2.19056
3596.57	10.4594
3598.53	2.73401
3600.49	-2.3532
3602.45	0.574127
3604.41	-1.85101
3606.37	-1.60995
3608.33	-9.4267
3610.29	-1.14504
3612.25	4.46419
3614.2	4.71009
3616.16	15.7162
3618.12	-2.92345
3620.07	2.68729
3622.02	-7.9273
3623.98	0.348221
3625.93	-2.18755
3627.88	-12.8365
3629.84	3.55281
3631.79	3.70309
3633.74	3.8627
3635.69	-6.7934
3637.64	-6.61324
3639.58	1.71189
3641.53	-3.49034
3643.48	-0.550011
3645.43	-0.319672
3647.37	2.65441
3649.32	16.4058
3651.26	-5.17474
3653.21	3.18803
3655.15	3.36985
3657.09	-1.89954
3659.03	9.19102
3660.98	-9.73056
3662.92	4.08627
3664.86	-3.92577
3666.8	1.72488
3668.74	7.38329
3670.67	-6.10735
3672.61	7.75774
3674.55	2.49128
3676.49	-2.77539
3678.42	-8.04104
3680.36	-5.07072
3682.29	0.665176
3684.23	0.919098
3686.16	1.18496
3688.09	-1.31065
3690.02	-3.81229
3691.96	1.98653
3693.89	-17.162
3695.82	10.8149
3697.75	2.75452
3699.68	0.231033
3701.61	8.8522
3703.53	-4.84647
3705.46	0.996864
3707.39	-4.33617
3709.31	4.32285
3711.24	-1.02605
3713.16	7.65695
3715.09	-3.34378
3717.01	-3.11298
3718.93	2.75015
3720.86	2.97749
3722.78	6.02477
3724.7	6.24403
3726.62	0.798981
3728.54	-1.82133
3730.46	4.05679
3732.38	1.44302
3734.29	-12.5389
3736.21	-3.80666
3738.13	13.4731
3740.04	-3.39362
3741.96	-3.19453
3743.87	8.41408
3745.79	2.90848
3747.7	0.24575
3749.62	-8.14353
3751.53	0.609123
3753.44	-2.08031
3755.35	6.67062
3757.26	6.83104
3759.17	1.25814
3761.08	15.7315
3762.99	-12.7704
3764.9	1.70261
3766.81	1.85057
3768.71	-15.199
3770.62	5.03765
3772.52	10.9441
3774.43	5.3677
3776.33	-0.214233
3778.24	5.70179
3780.14	0.127922
3782.04	8.9429
3783.95	3.37788
3785.85	3.56751
3787.75	23.9436
3789.65	1.0427
3791.55	-4.55669
3793.45	1.40739
3795.34	1.60367
3797.24	13.3908
3799.14	2.00639
3801.04	-6.49649
3802.93	-3.39499
3804.83	-3.1922
3806.72	2.83763
3808.62	-8.6128
3810.51	0.335793
3812.4	-8.23323
3814.29	6.57514
3816.19	-2.00977
3818.08	9.90085
3819.97	-1.63594
3821.86	1.48088
3823.75	7.53584
3825.64	-1.11329
3827.52	7.88664
3829.41	-3.71297
3831.3	11.2071
3833.18	-3.35686
3835.07	-0.229874
3836.95	8.80979
3838.84	0.106667
3840.72	9.16924
3842.61	9.36167
3844.49	0.623344
3846.37	15.603
3848.25	3.85139
3850.13	3.98009
3852.01	4.10622
3853.89	4.21693
3855.77	-4.5808
3857.65	-4.48203
3859.53	10.4719
3861.41	4.6329
3863.28	1.77164
3865.16	7.87601
3867.03	5.08041
3868.91	2.29885
3870.78	11.4225
3872.66	5.54955
3874.53	-3.29945
3876.4	2.78716
3878.27	-0.0918503
3880.14	17.9587
3882.01	6.11115
3883.89	-14.7191
3885.75	12.3346
3887.62	-11.5017
3889.49	3.5966
3891.36	12.7187
3893.23	-2.14019
3895.09	4.02242
3896.96	-10.8684
3898.82	7.30844
3900.69	4.4398
3902.55	10.603
3904.42	7.7196
3906.28	4.83939
3908.14	7.98108
3910	-6.99251
3911.87	5.23643
3913.73	11.4265
3915.59	-3.57175
3917.45	-3.43063
3919.3	5.82489
3921.16	-3.12741
3923.02	6.15754
3924.88	-5.87243
3926.73	0.368919
3928.59	6.61871
3930.45	3.70767
3932.3	6.89868
3934.15	7.01939
3936.01	-5.11513
3937.86	7.25639
3939.71	4.31766
3941.56	-1.69337
3943.42	1.51974
3945.27	4.72607
3947.12	-7.4645
3948.97	8.0688
3950.81	5.10096
3952.66	11.3888
3954.51	2.22826
3956.36	-3.85254
3958.2	8.61309
3960.05	2.50787
3961.9	8.78262
3963.74	5.76827
3965.58	-0.354828
3967.43	-0.290146
3969.27	-3.33331
3971.11	-0.173943
3972.96	6.0882
3974.8	-0.0501175
3976.64	3.11044
3978.48	-3.03722
3980.32	0.111229
3982.16	0.152901
3984	3.29794
3985.83	6.44516
3987.67	0.284142
3989.51	0.331848
3991.34	6.59008
3993.18	3.5519
3995.01	6.72312
3996.85	-11.8244
3998.68	0.673775
