#Acq. time (s)=	30
#Accumulations=	2
#Range (cm-¹)=	1200...2365
#Windows=	3
#Auto scanning=	Off
#Autofocus=	Off
#Macrospot=	Off
#AutoExposure=	Off
#Spike filter=	Multiple accum.
#Delay time (s)=	2
#Binning=	1
#Readout mode=	Signal
#DeNoise=	Off
#ICS correction=	On
#Dark correction=	Off
#Inst. Process=	Off
#Detector Gain=	Best Dynamic
#Detector ADC=	50 kHz HS
#Detector temperature (°C)=	-60.09
#Instrument=	LabRAM HR Evol
#Detector=	SIN-EM FIVIS
#Objective=	x100_VIS_LWD
#Grating=	1800 (450-850nm)
#ND Filter=	100%
#Laser=	532nm_Edge
#Hole=	100.021
#Temperature=	0
#Range=	Visible
#StageXY=	75x50mm Scan+
#StageZ=	Z motor
#X (µm)=	0
#Y (µm)=	0
#Z (µm)=	-43.7
#Full time(mm:ss)=	3:22
#Project=	21_11_26
#Sample=	BU19(2)w
#Site=	
#Title=	BU19(2)w-A-FF2-FI03-V_1800 (450-850nm)_532nm_Edge_100%_x100_VIS_LWD_H100um_30sX2
#Remark=	
#Date=	26.11.2021 15:16
#Acquired=	26.11.2021 15:16:39
#Base:Fit=	16.12.2021 16:00:56
#Base:Fit=	16.12.2021 16:11:20
#Base:Sub=	16.12.2021 16:11:22
1202.72	25.7712
1203	8.17072
1203.28	-2.30167
1203.56	-15.2335
1203.84	16.985
1204.11	0.868469
1204.39	-0.15683
1204.67	17.2364
1204.95	5.62717
1205.23	12.1855
1205.5	-13.5598
1205.78	6.88708
1206.06	4.75119
1206.34	4.75693
1206.61	6.9101
1206.89	2.62646
1207.17	-3.79718
1207.45	3.73389
1207.73	-9.04321
1208	-2.54065
1208.28	10.4059
1208.56	-4.49344
1208.84	-4.43948
1209.11	-11.8656
1209.39	-0.0362854
1209.67	8.62366
1209.95	6.61682
1210.23	-10.3751
1210.5	2.52789
1210.78	2.53018
1211.06	-7.07501
1211.34	6.83743
1211.61	1.51114
1211.89	-4.85452
1212.17	-5.91803
1212.45	-4.84457
1212.72	-10.1317
1213	-12.2268
1213.28	4.84729
1213.56	3.84103
1213.83	4.98749
1214.11	1.8457
1214.39	6.241
1214.67	17.0191
1214.94	1.1716
1215.22	14.0613
1215.5	-4.99985
1215.78	-14.4833
1216.05	16.4735
1216.33	-21.8143
1216.61	-0.536102
1216.89	14.3193
1217.16	-3.77859
1217.44	-15.46
1217.72	10.0519
1218	-9.05737
1218.27	10.0831
1218.55	-7.93646
1218.83	23.9357
1219.1	1.70871
1219.38	-16.2554
1219.66	-0.273285
1219.94	15.6941
1220.21	2.99976
1220.49	-3.28201
1220.77	-14.8565
1221.04	-2.05609
1221.32	9.66608
1221.6	3.33286
1221.88	-1.93921
1222.15	-10.4249
1222.43	3.30994
1222.71	0.0675964
1222.98	6.33881
1223.26	11.5533
1223.54	-5.43643
1223.81	-6.54581
1224.09	-5.5213
1224.37	8.17511
1224.65	6.05911
1224.92	-1.31857
1225.2	-4.45401
1225.48	11.444
1225.76	-6.38913
1226.03	14.8322
1226.31	7.55518
1226.59	-0.84082
1226.86	3.42807
1227.14	12.935
1227.42	8.72287
1227.69	5.45374
1227.97	10.4739
1228.25	-8.62088
1228.52	9.15826
1228.8	-6.86792
1229.08	0.309509
1229.35	-13.3152
1229.63	7.521
1229.91	-7.55383
1230.18	2.75476
1230.46	0.398834
1230.74	1.39465
1231.01	13.0727
1231.29	-1.80679
1231.57	3.92438
1231.84	15.5967
1232.12	9.33829
1232.4	-9.53506
1232.67	0.985779
1232.95	-2.12314
1233.23	14.7179
1233.5	3.17938
1233.78	5.32053
1234.06	-8.27039
1234.33	-2.94196
1234.61	-7.06647
1234.89	-8.0256
1235.16	-8.97983
1235.44	-1.5531
1235.71	-8.83823
1235.99	-6.65417
1236.27	-4.483
1236.54	17.6331
1236.82	11.3246
1237.1	-1.30035
1237.37	-2.38092
1237.65	1.75342
1237.93	-1.4736
1238.2	-5.74811
1238.48	9.91693
1238.76	-2.7529
1239.03	-13.2921
1239.31	3.46735
1239.58	6.60364
1239.86	10.7976
1240.14	5.56894
1240.41	-9.08282
1240.69	-0.665558
1240.97	8.80988
1241.24	-13.1545
1241.52	5.75751
1241.79	8.90393
1242.07	18.3071
1242.35	7.81958
1242.62	2.61551
1242.9	-16.1994
1243.18	-1.45395
1243.45	-8.72131
1243.73	5.97778
1244	-0.282135
1244.28	-10.7177
1244.56	1.88489
1244.83	-1.25485
1245.11	0.835602
1245.39	3.93521
1245.66	-6.59811
1245.94	5.88504
1246.21	1.61288
1246.49	-1.54953
1246.76	16.2425
1247.04	-15.135
1247.32	6.86203
1247.59	-8.84302
1247.87	0.591217
1248.14	0.577728
1248.42	20.3557
1248.7	-2.69952
1248.97	5.67181
1249.25	5.71127
1249.52	-16.2114
1249.8	16.2107
1250.08	5.75937
1250.35	21.4698
1250.63	6.77698
1250.9	-6.88031
1251.18	7.69983
1251.45	14.9673
1251.73	19.1046
1252.01	-10.1862
1252.28	7.52853
1252.56	-4.00244
1252.83	-12.3978
1253.11	21.998
1253.39	-9.36014
1253.66	18.7988
1253.94	6.29214
1254.21	14.7076
1254.49	7.47751
1254.76	9.64993
1255.04	5.51425
1255.31	-8.04694
1255.59	-10.0982
1255.87	10.7995
1256.14	3.48648
1256.42	8.73428
1256.69	3.55048
1256.97	18.2322
1257.24	-4.71997
1257.52	22.4315
1257.79	16.1279
1258.07	19.2417
1258.35	-3.74512
1258.62	24.4294
1258.9	-3.7865
1259.17	2.4118
1259.45	19.113
1259.72	14.9867
1260	-4.79056
1260.27	4.74774
1260.55	8.85034
1260.82	11.9119
1261.1	5.54059
1261.37	19.0326
1261.65	20.0297
1261.92	29.4742
1262.2	29.7917
1262.48	60.5754
1262.75	50.3599
1263.02	43.4978
1263.3	59.762
1263.58	61.682
1263.85	53.7112
1264.13	51.9137
1264.4	26.1306
1264.68	30.4946
1264.95	28.1918
1265.23	21.8426
1265.5	13.4875
1265.78	20.7806
1266.05	18.636
1266.33	14.4611
1266.6	-4.31747
1266.88	11.4068
1267.15	4.15771
1267.43	10.5117
1267.7	14.7885
1267.98	12.7993
1268.25	7.68164
1268.53	22.4886
1268.8	2.71957
1269.08	36.3081
1269.35	12.2746
1269.63	9.17831
1269.9	7.06863
1270.18	15.3822
1270.45	9.00269
1270.73	21.5019
1271	14.0981
1271.28	19.2787
1271.55	3.56418
1271.83	6.66516
1272.1	7.74118
1272.38	15.1482
1272.65	3.73068
1272.93	19.5691
1273.2	11.2809
1273.47	15.5636
1273.75	10.4171
1274.03	5.26608
1274.3	26.3307
1274.57	11.7079
1274.85	27.4625
1275.12	-0.867584
1275.4	12.7743
1275.67	34.845
1275.95	17.0712
1276.22	-0.704742
1276.5	16.1703
1276.77	12.0367
1277.05	13.1553
1277.32	14.2565
1277.6	8.04044
1277.87	10.2257
1278.14	23.9713
1278.42	30.3514
1278.69	23.0616
1278.97	32.6288
1279.24	33.7422
1279.52	32.7528
1279.79	24.3227
1280.07	42.1815
1280.34	42.1436
1280.61	58.9618
1280.89	50.5821
1281.16	84.2827
1281.44	111.744
1281.71	146.615
1281.99	208.789
1282.26	258.255
1282.53	380.428
1282.81	478.426
1283.08	619.353
1283.36	726.216
1283.63	749.488
1283.91	709.171
1284.18	524.211
1284.45	419.527
1284.73	279.883
1285	194.645
1285.28	108.236
1285.55	86.9715
1285.83	62.6227
1286.1	53.1604
1286.37	26.9195
1286.65	32.1878
1286.92	20.5467
1287.2	15.2839
1287.47	27.9031
1287.75	22.5956
1288.02	30.9618
1288.29	38.2972
1288.57	27.7764
1288.84	16.216
1289.12	10.9843
1289.39	27.8819
1289.66	11.1055
1289.94	11.1728
1290.21	12.3015
1290.49	28.1665
1290.76	15.5313
1291.03	9.18219
1291.31	15.4907
1291.58	10.2266
1291.86	13.3901
1292.13	19.7041
1292.4	-8.7215
1292.68	-3.42776
1292.95	9.20026
1293.22	-7.66757
1293.5	10.2602
1293.77	17.7493
1294.05	6.30212
1294.32	28.5902
1294.59	1.22116
1294.87	0.175751
1295.14	15.979
1295.42	9.71948
1295.69	6.70087
1295.96	11.109
1296.24	-1.32471
1296.51	4.09949
1296.79	9.42731
1297.06	0.988861
1297.33	-0.0932617
1297.61	-0.138794
1297.88	8.25818
1298.15	7.13757
1298.43	-5.61032
1298.7	-2.39554
1298.97	1.81339
1299.25	2.82642
1299.52	-7.76453
1299.79	-9.91531
1300.07	8.03598
1300.34	13.382
1300.62	11.3148
1300.89	-0.280334
1301.16	7.10654
1301.44	2.88184
1301.71	6.07623
1301.98	-1.2507
1302.25	-7.52762
1302.53	5.18573
1302.8	16.8259
1303.08	-0.0681152
1303.35	4.14774
1303.62	-1.15668
1303.9	-15.985
1304.17	-7.53674
1304.44	-0.12616
1304.72	-0.113495
1304.99	15.7335
1305.26	-1.18781
1305.54	-5.45358
1305.81	2.93152
1306.08	7.09317
1306.35	-20.4008
1306.63	1.70227
1306.9	-6.75
1307.18	11.1904
1307.45	-0.369354
1307.72	18.6384
1308	8.09985
1308.27	4.94662
1308.54	-6.62494
1308.81	6.02667
1309.09	15.5509
1309.36	-1.26196
1309.63	8.29236
1309.91	-1.14383
1310.18	3.12155
1310.45	7.34866
1310.73	11.5634
1311	2.08093
1311.27	-7.38864
1311.55	-3.13568
1311.82	3.22598
1312.09	10.6556
1312.37	14.95
1312.64	11.8461
1312.91	8.71625
1313.18	0.270599
1313.46	-8.20972
1313.73	9.74179
1314	10.7839
1314.28	1.27612
1314.55	-2.93063
1314.82	5.54889
1315.09	1.37421
1315.37	16.2117
1315.64	15.2121
1315.91	-17.4669
1316.18	8.99463
1316.46	23.7843
1316.73	6.88174
1317	12.1654
1317.28	0.556671
1317.55	10.0782
1317.82	-3.58871
1318.09	0.684448
1318.37	4.94794
1318.64	-4.52945
1318.91	-11.8998
1319.18	-6.59848
1319.46	-16.0973
1319.73	-1.3017
1320	2.93045
1320.28	-11.8197
1320.55	2.99277
1320.82	-0.175537
1321.09	-10.765
1321.37	-6.59018
1321.64	2.84268
1321.91	15.4258
1322.18	-16.2708
1322.46	0.542297
1322.73	18.4497
1323	5.76712
1323.27	-1.64215
1323.55	-8.00888
1323.82	-15.3346
1324.09	12.1138
1324.36	1.59482
1324.64	-3.66711
1324.91	-6.80554
1325.18	12.1853
1325.45	-6.75418
1325.73	-3.6503
1326	5.71384
1326.27	-7.08774
1326.54	7.44809
1326.81	-5.25079
1327.09	-1.04547
1327.36	2.23721
1327.63	7.73257
1327.9	-3.71976
1328.18	10.1105
1328.45	16.583
1328.72	11.4606
1328.99	-12.6783
1329.27	-2.07748
1329.54	19.0044
1329.81	0.0705872
1330.08	23.2893
1330.35	4.29532
1330.63	2.1665
1330.9	-8.41544
1331.17	-11.629
1331.44	-9.58893
1331.71	-1.25528
1331.99	-1.36957
1332.26	6.96765
1332.53	1.63818
1332.8	23.6619
1333.07	-7.98727
1333.35	-1.76416
1333.62	-4.99661
1333.89	8.59351
1334.16	-3.03143
1334.43	13.7096
1334.71	-2.10275
1334.98	-8.45355
1335.25	2.00098
1335.52	-4.33231
1335.79	18.7135
1336.07	13.4344
1336.34	-4.4248
1336.61	0.796082
1336.88	4.97162
1337.15	-5.52444
1337.43	0.760071
1337.7	2.85416
1337.97	14.3723
1338.24	3.83823
1338.51	-1.44815
1338.78	-7.75339
1339.06	0.598358
1339.33	0.589233
1339.6	-1.48932
1339.87	-5.64096
1340.14	1.7316
1340.42	-11.8498
1340.69	-5.52948
1340.96	-0.257477
1341.23	6.04529
1341.5	-16.9822
1341.77	-0.223389
1342.04	1.86154
1342.32	6.02429
1342.59	-3.43814
1342.86	5.92288
1343.13	10.0498
1343.4	2.70935
1343.67	2.71155
1343.95	-10.8688
1344.22	-6.66177
1344.49	-0.354553
1344.76	3.85547
1345.03	-3.46735
1345.3	1.73648
1345.58	-4.57953
1345.85	-7.78534
1346.12	3.65698
1346.39	-1.64566
1346.66	21.1923
1346.93	20.0688
1347.2	-3.99905
1347.47	2.18945
1347.75	-4.12674
1348.02	-5.19861
1348.29	-6.25302
1348.56	2.08551
1348.83	-10.416
1349.1	4.15228
1349.37	21.8321
1349.65	-7.37097
1349.92	13.4292
1350.19	-1.17926
1350.46	23.7789
1350.73	20.6225
1351	1.83786
1351.27	-4.45587
1351.54	17.3658
1351.81	-4.52914
1352.09	4.83411
1352.36	14.2154
1352.63	-7.55728
1352.9	-6.42303
1353.17	-1.09875
1353.44	3.14185
1353.71	-0.728424
1353.98	-5.62244
1354.25	-7.96506
1354.53	5.12772
1354.8	4.83139
1355.07	12.1687
1355.34	-1.28412
1355.61	12.1398
1355.88	12.1096
1356.15	-4.37442
1356.42	-4.32104
1356.69	0.835907
1356.96	-0.20462
1357.24	2.91342
1357.51	14.335
1357.78	6.0148
1358.05	5.99457
1358.32	8.04514
1358.59	1.78952
1358.86	2.80356
1359.13	-0.343445
1359.4	15.1848
1359.67	19.316
1359.94	-2.47351
1360.22	13.027
1360.49	10.8878
1360.76	8.7551
1361.03	1.47311
1361.3	7.6929
1361.57	19.1119
1361.84	3.59201
1362.11	-2.61069
1362.38	18.0948
1362.65	3.59207
1362.92	-3.65674
1363.19	25.3532
1363.46	22.2979
1363.73	2.70847
1364	11.0639
1364.28	17.3495
1364.55	-2.30579
1364.82	20.4915
1365.09	8.05804
1365.36	-1.28845
1365.63	23.5198
1365.9	18.2954
1366.17	12.0422
1366.44	12
1366.71	0.576416
1366.98	9.82303
1367.25	5.60782
1367.52	5.5889
1367.79	16.9561
1368.06	25.298
1368.33	16.0516
1368.6	33.6751
1368.87	27.5241
1369.15	58.59
1369.41	39.0062
1369.68	7.00681
1369.95	19.4057
1370.23	-2.31024
1370.5	11.1224
1370.77	6.93594
1371.04	15.1913
1371.31	18.2612
1371.58	3.74149
1371.85	32.5755
1372.12	12.8621
1372.39	14.8326
1372.66	19.9063
1372.93	33.253
1373.2	10.5468
1373.47	21.8725
1373.74	-4.93353
1374.01	12.5835
1374.28	24.9515
1374.55	2.2916
1374.82	21.8765
1375.09	17.7606
1375.36	20.8401
1375.63	18.8236
1375.9	25.0768
1376.17	18.9183
1376.44	22.0585
1376.71	24.0644
1376.98	20.9243
1377.25	21.8744
1377.52	21.7678
1377.79	23.8984
1378.06	33.2787
1378.33	30.356
1378.6	22.3125
1378.87	16.3406
1379.14	31.8914
1379.41	23.6616
1379.68	12.3091
1379.95	27.7545
1380.22	23.593
1380.49	37.9016
1380.76	27.3602
1381.03	49.8685
1381.3	50.7934
1381.57	27.2267
1381.84	28.1985
1382.11	35.267
1382.38	40.2629
1382.65	52.4698
1382.92	52.3688
1383.19	33.7908
1383.46	46.0351
1383.73	50.064
1384	76.69
1384.27	80.7666
1384.54	82.8608
1384.81	87.0268
1385.08	126.099
1385.34	180.617
1385.61	231.123
1385.88	342.157
1386.15	486.07
1386.42	826.093
1386.69	1166.31
1386.96	1520.85
1387.23	1632.82
1387.5	1322.38
1387.77	861.387
1388.04	512.769
1388.31	318.137
1388.58	201.229
1388.85	146.709
1389.12	109.329
1389.39	79.8466
1389.66	57.3182
1389.93	60.4723
1390.2	64.4846
1390.46	37.5541
1390.73	31.3056
1391	34.3997
1391.27	20.9659
1391.54	36.3401
1391.81	29.1652
1392.08	21.9464
1392.35	28.0363
1392.62	26.9672
1392.89	42.2986
1393.16	20.7816
1393.43	24.868
1393.7	9.5112
1393.97	16.6758
1394.23	14.632
1394.5	18.7322
1394.77	15.6718
1395.04	2.38684
1395.31	17.7991
1395.58	35.2821
1395.85	17.9511
1396.12	3.6651
1396.39	13.9209
1396.66	4.71121
1396.93	4.70355
1397.2	38.4614
1397.46	18.9865
1397.73	3.61169
1398	15.8851
1398.27	1.59122
1398.54	24.1446
1398.81	28.3049
1399.08	-3.35822
1399.35	1.8024
1399.62	9.04703
1399.89	-7.26462
1400.16	15.3105
1400.42	24.548
1400.69	5.1734
1400.96	5.28085
1401.23	15.587
1401.5	26.8676
1401.77	0.308807
1402.04	38.2276
1402.31	8.66315
1402.58	21.1709
1402.84	10.1172
1403.11	20.5472
1403.38	32.9977
1403.65	6.38556
1403.92	3.33704
1404.19	19.7245
1404.46	12.3882
1404.73	24.7757
1404.99	25.8003
1405.26	24.7632
1405.53	25.7585
1405.8	17.521
1406.07	22.6183
1406.34	42.0704
1406.61	13.3613
1406.87	63.5851
1407.14	50.3054
1407.41	56.5093
1407.68	55.5426
1407.95	80.1974
1408.22	86.3994
1408.49	84.399
1408.76	94.7036
1409.02	68.0981
1409.29	89.697
1409.56	58.9868
1409.83	28.2704
1410.1	47.8064
1410.37	20.1375
1410.63	8.81833
1410.9	23.1136
1411.17	23.0387
1411.44	25.0388
1411.71	19.8856
1411.98	14.7469
1412.25	10.6645
1412.51	5.6124
1412.78	12.9029
1413.05	16.2052
1413.32	14.5628
1413.59	13.7573
1413.86	7.37891
1414.12	23.3979
1414.39	1.96115
1414.66	8.35031
1414.93	7.49576
1415.2	14.6878
1415.47	-10.9415
1415.73	21.9395
1416	13.7614
1416.27	6.62625
1416.54	17.9762
1416.81	12.8989
1417.07	0.632355
1417.34	24.3211
1417.61	6.92053
1417.88	5.95215
1418.15	15.2431
1418.42	4.99927
1418.68	15.3136
1418.95	-17.5312
1419.22	7.16208
1419.49	15.4153
1419.76	28.765
1420.02	22.5634
1420.29	21.4956
1420.56	7.08133
1420.83	4.98865
1421.1	-1.21332
1421.36	19.284
1421.63	11.0689
1421.9	11.1115
1422.17	14.3
1422.44	13.4047
1422.7	12.5085
1422.97	18.8713
1423.24	10.9416
1423.51	15.3633
1423.77	4.35889
1424.04	-4.46417
1424.31	18.2011
1424.58	5.6203
1424.85	-2.55002
1425.11	-2.43994
1425.38	0.869507
1425.65	9.13742
1425.92	0.912506
1426.19	3.09274
1426.45	13.3519
1426.72	-7.19443
1426.99	5.05652
1427.26	11.1452
1427.52	1.85263
1427.79	22.239
1428.06	8.84152
1428.33	4.71808
1428.59	-7.56583
1428.86	-6.51547
1429.13	-11.5952
1429.4	-3.35626
1429.67	2.84579
1429.93	11.1101
1430.2	-1.09518
1430.47	5.15683
1430.74	-9.10654
1431	-0.79184
1431.27	2.44046
1431.54	13.8552
1431.81	-0.437408
1432.07	2.66418
1432.34	10.8391
1432.61	12.838
1432.87	6.65649
1433.14	10.6856
1433.41	1.36279
1433.68	-0.794983
1433.95	-28.55
1434.21	4.1734
1434.48	-13.2446
1434.75	11.4978
1435.01	-16.0817
1435.28	3.42044
1435.55	-3.73053
1435.82	4.48041
1436.08	20.8812
1436.35	10.6349
1436.62	-10.8824
1436.89	3.45294
1437.15	-4.75214
1437.42	10.6061
1437.69	2.42303
1437.95	15.7226
1438.22	-8.85287
1438.49	-4.72186
1438.76	4.56207
1439.02	-0.512543
1439.29	9.76099
1439.56	-2.4978
1439.82	11.9137
1440.09	-8.49435
1440.36	-6.34259
1440.63	10.1189
1440.89	8.10599
1441.16	7.10391
1441.43	12.2674
1441.69	17.3889
1441.96	13.253
1442.23	-1.10919
1442.49	-5.13101
1442.76	9.25101
1443.03	-2.97662
1443.3	14.437
1443.56	19.5273
1443.83	9.24667
1444.1	-6.1441
1444.36	6.16324
1444.63	-3.02661
1444.9	5.28027
1445.16	12.5525
1445.43	-0.668365
1445.7	6.50525
1445.97	9.57047
1446.23	13.6638
1446.5	-1.73184
1446.77	5.44138
1447.03	9.5361
1447.3	7.47687
1447.57	-4.84286
1447.83	12.5652
1448.1	7.42358
1448.37	6.41214
1448.63	-6.84769
1448.9	1.43924
1449.17	12.7558
1449.43	11.7414
1449.7	1.47443
1449.97	-1.62601
1450.23	-3.71072
1450.5	3.4313
1450.77	-0.680084
1451.03	-2.73868
1451.3	-12.9968
1451.57	-11.9821
1451.83	1.32452
1452.1	11.5558
1452.37	-10.9941
1452.63	-7.9187
1452.9	17.7129
1453.17	-2.74927
1453.43	-1.67606
1453.7	-1.63358
1453.97	2.48196
1454.23	-1.62463
1454.5	3.49597
1454.77	-7.76239
1455.03	12.746
1455.3	8.65146
1455.56	6.59476
1455.83	-15.9282
1456.1	7.70596
1456.36	-13.7755
1456.63	-13.7633
1456.9	4.67273
1457.16	-7.66315
1457.43	1.52313
1457.7	0.488342
1457.96	-12.8363
1458.23	4.5784
1458.49	5.61673
1458.76	26.1245
1459.03	-8.67703
1459.29	-6.60199
1459.56	22.1078
1459.82	12.9052
1460.09	3.68372
1460.36	-10.6675
1460.62	-15.7992
1460.89	10.8214
1461.16	18.9928
1461.42	-3.56833
1461.69	-1.54791
1461.95	-4.65201
1462.22	-1.62
1462.49	2.42975
1462.75	13.6353
1463.02	8.46213
1463.28	7.37833
1463.55	1.17892
1463.82	3.16989
1464.08	-0.920288
1464.35	11.4558
1464.61	3.42484
1464.88	-2.59775
1465.15	-1.42371
1465.41	0.402374
1465.68	-4.22186
1465.94	1.66809
1466.21	2.66797
1466.48	9.91644
1466.74	1.73041
1467.01	-0.434387
1467.27	-12.7076
1467.54	-8.58997
1467.8	-5.53949
1468.07	-1.47171
1468.34	13.8246
1468.6	-17.7944
1468.87	20.9687
1469.13	-4.54129
1469.4	9.71558
1469.67	0.50769
1469.93	8.61432
1470.2	-18.9731
1470.46	12.5746
1470.73	-5.80313
1470.99	-4.81137
1471.26	-6.86356
1471.53	1.25278
1471.79	0.182251
1472.06	-1.88882
1472.32	0.13324
1472.59	7.25638
1472.85	-18.2011
1473.12	16.416
1473.39	-12.1091
1473.65	-4.00089
1473.92	2.06818
1474.18	-4.06839
1474.45	-2.04822
1474.71	3.0452
1474.98	-8.11661
1475.24	8.19385
1475.51	9.22156
1475.78	-7.0672
1476.04	-4.0351
1476.31	2.03607
1476.57	4.04691
1476.84	-8.18311
1477.1	3.98239
1477.37	8.00586
1477.63	-4.21875
1477.9	8.99619
1478.16	8.99326
1478.43	4.89508
1478.69	26.1895
1478.96	10.8991
1479.22	3.74326
1479.49	9.79294
1479.76	4.65894
1480.02	4.59729
1480.29	11.6461
1480.55	-1.6593
1480.82	-7.83099
1481.08	-0.781799
1481.35	-5.87857
1481.61	10.3062
1481.88	22.5132
1482.14	3.28897
1482.41	-1.72659
1482.67	9.50482
1482.94	6.51105
1483.2	-6.68518
1483.47	-0.553558
1483.73	-0.530487
1484	11.6591
1484.26	4.54318
1484.53	3.40793
1484.79	-1.83102
1485.06	-5.18762
1485.32	11.6209
1485.59	-1.67834
1485.85	-0.895844
1486.12	-9.31735
1486.38	15.0891
1486.65	11.1558
1486.91	-12.4645
1487.18	17.0687
1487.44	14.0789
1487.71	-0.195618
1487.97	-0.263153
1488.24	-19.5453
1488.5	-2.37558
1488.77	6.6716
1489.03	4.57452
1489.3	13.6263
1489.56	5.49832
1489.83	-6.66751
1490.09	3.43011
1490.36	15.569
1490.62	14.5537
1490.89	13.5048
1491.15	-13.8629
1491.42	1.24844
1491.68	-8.89008
1491.95	7.27347
1492.21	-5.86996
1492.48	1.22073
1492.74	4.24417
1493	3.21735
1493.27	14.3276
1493.53	-0.836792
1493.8	-4.90125
1494.06	7.21741
1494.33	-1.87622
1494.59	8.25259
1494.86	9.2894
1495.12	-5.88748
1495.39	2.15121
1495.65	-4.00101
1495.92	-2.0881
1496.18	-5.20425
1496.45	-13.3365
1496.71	9.84293
1496.97	-6.34702
1497.24	11.779
1497.5	17.831
1497.77	6.72522
1498.03	19.8263
1498.3	10.7349
1498.56	-14.4937
1498.82	0.649689
1499.09	8.73267
1499.35	0.670258
1499.62	1.69778
1499.88	-0.29599
1500.15	15.881
1500.41	9.83331
1500.68	14.8771
1500.94	4.76913
1501.2	21.9195
1501.47	-0.324097
1501.73	-2.40271
1502	16.7507
1502.26	-0.416077
1502.52	10.6699
1502.79	0.547974
1503.05	13.5959
1503.32	8.48843
1503.58	4.41586
1503.85	-7.7413
1504.11	1.32962
1504.37	7.40622
1504.64	19.5189
1504.9	13.4678
1505.17	3.36661
1505.43	2.32388
1505.7	16.3889
1505.96	13.273
1506.22	6.10568
1506.49	10.1113
1506.75	20.1728
1507.02	2.04907
1507.28	1.08182
1507.54	10.1592
1507.81	7.14664
1508.07	-9.9903
1508.34	-4.97562
1508.6	11.1259
1508.86	7.0979
1509.13	20.2047
1509.39	15.1676
1509.66	3.06763
1509.92	25.2305
1510.18	14.1772
1510.45	19.2328
1510.71	26.2211
1510.98	-8.09894
1511.24	11.9731
1511.5	14.9024
1511.77	10.7449
1512.03	2.52917
1512.29	27.5035
1512.56	-8.84256
1512.82	3.08499
1513.08	9.02728
1513.35	-0.085144
1513.61	5.87564
1513.88	2.83432
1514.14	21.9778
1514.4	15.0668
1514.67	9.06564
1514.93	9.02539
1515.2	-7.11737
1515.46	9.86603
1515.72	7.77463
1515.99	1.65567
1516.25	17.6096
1516.51	10.5171
1516.78	5.46725
1517.04	7.44287
1517.3	-3.61197
1517.57	4.39563
1517.83	-1.62039
1518.09	-7.62039
1518.36	12.4855
1518.62	-8.56525
1518.88	30.5682
1519.15	0.489624
1519.41	4.52316
1519.67	1.53186
1519.94	4.55099
1520.2	-9.50778
1520.47	21.5589
1520.73	-6.55713
1520.99	13.5177
1521.26	15.5495
1521.52	12.5619
1521.78	7.54996
1522.05	-1.49896
1522.31	9.50415
1522.57	3.44434
1522.84	-15.6565
1523.1	5.3696
1523.36	8.32095
1523.62	-1.80319
1523.89	28.1348
1524.15	-3.01617
1524.41	17.9489
1524.68	2.86465
1524.94	9.81924
1525.2	5.84259
1525.47	1.84467
1525.73	7.85828
1525.99	-1.1181
1526.26	12.9569
1526.52	-0.995697
1526.78	-0.940613
1527.05	17.1197
1527.31	2.06982
1527.57	0.0152283
1527.84	-7.02637
1528.1	18.9961
1528.36	10.9467
1528.63	7.89676
1528.89	-3.16315
1529.15	17.8385
1529.41	0.787109
1529.68	8.7876
1529.94	1.74884
1530.2	17.7156
1530.47	13.6888
1530.73	2.69431
1530.99	0.745789
1531.25	-0.201965
1531.52	14.8672
1531.78	20.8791
1532.04	12.8347
1532.31	12.8355
1532.57	18.7976
1532.83	18.8279
1533.09	5.87619
1533.36	-2.04233
1533.62	10.0788
1533.88	11.1183
1534.15	-14.9464
1534.41	3.10013
1534.67	-5.95261
1534.94	5.0499
1535.2	-15.0488
1535.46	4.9743
1535.72	-1.10764
1535.99	-2.26746
1536.25	7.65222
1536.51	-4.44482
1536.77	5.45761
1537.04	-9.6785
1537.3	2.22467
1537.56	5.17569
1537.82	17.0995
1538.09	-15.9133
1538.35	-1.97934
1538.61	4.91684
1538.87	13.8743
1539.14	4.83945
1539.4	15.9131
1539.66	-15.9261
1539.92	17.3111
1540.19	7.4476
1540.45	3.56195
1540.71	13.7115
1540.97	-2.25421
1541.24	17.8279
1541.5	-2.3616
1541.76	24.68
1542.02	4.54013
1542.29	-11.5746
1542.55	-17.6659
1542.81	-10.7357
1543.07	2.20309
1543.34	-1.8775
1543.6	-6.96344
1543.86	8.93787
1544.12	-2.17636
1544.39	-2.17151
1544.65	14.8403
1544.91	8.89557
1545.17	-7.02939
1545.43	-1.96902
1545.7	12.1597
1545.96	21.2323
1546.22	-1.77155
1546.48	9.27209
1546.74	-18.8018
1547.01	5.24429
1547.27	-4.74789
1547.53	9.30646
1547.79	3.31842
1548.06	1.23911
1548.32	-3.93396
1548.58	0.0618286
1548.84	6.07742
1549.1	11.1676
1549.37	5.86609
1549.63	3.53973
1549.89	7.46124
1550.15	4.625
1550.42	15.9482
1550.68	13.4121
1550.94	1.70538
1551.2	-0.0170898
1551.46	9.81049
1551.73	10.8365
1551.99	-1.28235
1552.25	5.63953
1552.51	-2.26419
1552.77	9.90311
1553.03	3.82767
1553.3	13.7712
1553.56	3.49878
1553.82	9.46005
1554.08	1.40021
1554.34	-3.68478
1554.61	10.2571
1554.87	9.1409
1555.13	15.033
1555.39	6.9693
1555.65	17.9586
1555.91	9.93372
1556.18	13.9516
1556.44	14.9475
1556.7	9.88181
1556.96	9.87656
1557.22	-10.1466
1557.48	12.902
1557.75	8.89136
1558.01	4.85791
1558.27	3.7908
1558.53	-0.320038
1558.79	-5.40973
1559.06	11.4916
1559.32	-3.61914
1559.58	22.2946
1559.84	6.21637
1560.1	6.15277
1560.36	-6.89478
1560.63	17.0522
1560.89	-0.971619
1561.15	10.9929
1561.41	8.98203
1561.67	8.99457
1561.93	11.0416
1562.19	10.1187
1562.46	1.20139
1562.72	0.194824
1562.98	12.1721
1563.24	6.13739
1563.5	10.1433
1563.76	-1.89615
1564.02	-0.923553
1564.29	5.1752
1564.55	4.28473
1564.81	19.3253
1565.07	4.28323
1565.33	31.1054
1565.59	-4.43362
1565.85	-7.15741
1566.11	8.37613
1566.38	2.65717
1566.64	3.01572
1566.9	8.84702
1567.16	16.6231
1567.42	10.8764
1567.68	13.1467
1567.94	22.0674
1568.2	8.8356
1568.47	0.866058
1568.73	22.8973
1568.99	1.91205
1569.25	6.87317
1569.51	0.75296
1569.77	-6.31644
1570.03	-14.3176
1570.29	-3.31052
1570.55	-12.3074
1570.82	27.6644
1571.08	2.66391
1571.34	11.6354
1571.6	-13.3838
1571.86	11.5394
1572.12	7.47873
1572.38	5.46194
1572.64	9.40921
1572.9	2.34933
1573.17	-5.69193
1573.43	4.23996
1573.69	13.1635
1573.95	4.12805
1574.21	2.12973
1574.47	-4.81146
1574.73	19.2105
1574.99	0.304108
1575.25	17.3536
1575.51	-9.55515
1575.78	9.47708
1576.04	8.4837
1576.3	-2.53998
1576.56	0.443512
1576.82	20.3838
1577.08	-0.702881
1577.34	17.1449
1577.6	12.0299
1577.86	1.93387
1578.12	-2.16159
1578.38	8.70895
1578.64	14.6244
1578.9	11.6059
1579.17	27.545
1579.43	12.5799
1579.69	15.5649
1579.95	1.61679
1580.21	7.63522
1580.47	14.6297
1580.73	-4.32001
1580.99	8.62244
1581.25	-0.395538
1581.51	26.4645
1581.77	1.49316
1582.03	0.426636
1582.29	17.2915
1582.55	22.2408
1582.81	3.28131
1583.07	5.24118
1583.33	0.234497
1583.59	-8.74765
1583.85	8.16901
1584.11	7.13351
1584.38	-2.83459
1584.64	-7.79688
1584.9	1.17941
1585.16	17.1216
1585.42	1.17236
1585.68	12.1039
1585.94	5.11545
1586.2	10.0573
1586.46	25.9076
1586.72	1.92709
1586.98	0.868988
1587.24	7.7865
1587.5	18.6907
1587.76	7.71045
1588.02	23.6058
1588.28	-1.27295
1588.54	6.70395
1588.8	13.6972
1589.06	15.7264
1589.32	0.827148
1589.58	6.83118
1589.84	21.7863
1590.1	2.87299
1590.36	7.84253
1590.62	6.86407
1590.88	5.89694
1591.14	-8.02466
1591.4	21.8358
1591.66	-6.05865
1591.92	12.8341
1592.18	1.84106
1592.44	-3.21207
1592.7	5.64194
1592.96	-2.39743
1593.22	4.51236
1593.48	4.39236
1593.74	18.1791
1594	23.0067
1594.26	0.067688
1594.52	12.9315
1594.78	10.9379
1595.04	-10.8859
1595.3	20.9599
1595.56	-6.827
1595.82	18.0083
1596.08	16.8619
1596.34	4.92929
1596.6	7.90146
1596.86	4.91748
1597.12	9.88846
1597.38	13.8768
1597.64	-1.00336
1597.9	13.9184
1598.16	10.9232
1598.42	6.91269
1598.68	9.83002
1598.94	10.7314
1599.2	-9.20587
1599.46	24.4778
1599.72	24.4155
1599.98	15.4238
1600.24	6.43481
1600.5	17.2877
1600.76	28.1273
1601.02	4.2453
1601.28	11.0811
1601.54	3.0441
1601.8	20.7666
1602.06	-0.12149
1602.32	21.5886
1602.58	-1.24628
1602.84	2.64066
1603.1	6.51752
1603.36	4.46426
1603.62	3.41199
1603.88	6.33344
1604.14	9.2677
1604.4	13.2093
1604.66	12.2199
1604.92	8.26819
1605.17	25.0747
1605.43	21.1209
1605.69	14.2054
1605.95	3.34778
1606.21	15.2461
1606.47	20.2281
1606.73	8.39328
1606.99	-2.46265
1607.25	14.4
1607.51	20.3137
1607.77	-3.88272
1608.03	25.9249
1608.29	15.7281
1608.55	18.0329
1608.81	10.9828
1609.07	12.8329
1609.32	17.71
1609.58	8.09805
1609.84	18.6091
1610.1	22.2115
1610.36	19.7367
1610.62	0.725464
1610.88	7.06436
1611.14	21.0459
1611.4	12.7296
1611.66	-1.38315
1611.92	-8.84952
1612.18	19.4496
1612.44	24.8839
1612.69	21.8658
1612.95	10.4026
1613.21	3.40833
1613.47	11.7721
1613.73	14.6959
1613.99	15.8938
1614.25	9.37772
1614.51	0.916046
1614.77	2.13269
1615.03	-2.94547
1615.29	12.7796
1615.54	25.606
1615.8	6.50995
1616.06	0.517578
1616.32	19.5249
1616.58	0.811035
1616.84	11.8207
1617.1	12.6531
1617.36	16.4039
1617.62	6.8743
1617.88	15.0044
1618.13	17.2126
1618.39	18.4503
1618.65	13.2434
1618.91	13.4734
1619.17	1.39606
1619.43	9.91861
1619.69	13.7802
1619.95	20.5014
1620.2	6.3826
1620.46	8.79929
1620.72	4.92795
1620.98	7.59583
1621.24	2.4454
1621.5	7.20764
1621.76	12.6774
1622.02	10.8896
1622.27	4.01395
1622.53	4.76776
1622.79	16.8742
1623.05	7.77402
1623.31	2.55914
1623.57	13.1667
1623.83	8.54169
1624.09	5.8793
1624.34	11.9292
1624.6	14.4866
1624.86	17.8225
1625.12	9.07263
1625.38	14.362
1625.64	15.2871
1625.9	9.94009
1626.15	15.5085
1626.41	20.6404
1626.67	18.7522
1626.93	8.69485
1627.19	1.0946
1627.45	4.42816
1627.7	5.40991
1627.96	5.78204
1628.22	7.58279
1628.48	5.83163
1628.74	2.38251
1629	12.1544
1629.26	13.4937
1629.51	13.6188
1629.77	12.1223
1630.03	10.8031
1630.29	8.54199
1630.55	5.06516
1630.81	7.34955
1631.06	3.72571
1631.32	-0.292297
1631.53	-7.2713
1631.79	5.56915
1632.05	1.67172
1632.31	7.62497
1632.57	21.4054
1632.84	21.4776
1633.1	5.8309
1633.36	7.70844
1633.62	-3.26584
1633.88	18.3802
1634.14	5.60431
1634.4	5.64197
1634.66	3.68124
1634.93	14.5278
1635.19	15.5072
1635.45	-2.24747
1635.71	14.4901
1635.97	4.61096
1636.23	-1.32996
1636.49	14.4021
1636.75	13.3818
1637.02	-1.43179
1637.28	-0.48877
1637.54	8.3262
1637.8	-3.51514
1638.06	7.30469
1638.32	13.1864
1638.58	8.23538
1638.84	3.29227
1639.1	11.1679
1639.37	8.2139
1639.63	19.0373
1639.89	4.26871
1640.15	16.0748
1640.41	20.9851
1640.67	18.0389
1640.93	14.1499
1641.19	0.39859
1641.46	12.2236
1641.72	17.1273
1641.98	0.360016
1642.24	12.1548
1642.5	0.326599
1642.76	8.18976
1643.02	10.1459
1643.28	3.24561
1643.54	5.20734
1643.8	13.0739
1644.06	13.0514
1644.33	5.14914
1644.59	19.8675
1644.85	12.9445
1645.11	18.8381
1645.37	10.0034
1645.63	12.0052
1645.89	6.12012
1646.15	-8.63838
1646.41	8.06509
1646.67	12.9534
1646.93	12.9254
1647.19	6.02182
1647.46	9.92993
1647.72	5.96722
1647.98	2.99353
1648.24	11.8388
1648.5	10.8653
1648.76	13.8615
1649.02	9.97729
1649.28	13.0601
1649.54	2.28201
1649.8	11.1146
1650.06	25.8506
1650.32	18.959
1650.58	11.1617
1650.85	11.225
1651.11	11.2737
1651.37	24.1324
1651.63	16.2853
1651.89	6.44653
1652.15	19.2594
1652.41	3.49341
1652.67	11.3886
1652.93	10.3781
1653.19	14.2887
1653.45	21.1719
1653.71	3.43964
1653.97	-4.43002
1654.23	10.3765
1654.49	5.46713
1654.75	7.44983
1655.01	16.339
1655.27	1.58832
1655.53	13.4709
1655.8	16.5074
1656.06	-2.14111
1656.32	-0.10672
1656.57	33.4913
1656.84	4.8931
1657.1	-2.00342
1657.36	19.7078
1657.62	12.777
1657.88	12.7503
1658.14	10.7613
1658.4	8.77026
1658.66	6.77103
1658.92	-3.12842
1659.18	15.5795
1659.44	8.63846
1659.7	7.61664
1659.96	-0.307129
1660.22	-2.33008
1660.48	6.56497
1660.74	0.684265
1661	9.60049
1661.26	1.75854
1661.52	9.70016
1661.78	4.82242
1662.04	5.83331
1662.3	5.85556
1662.56	-9.16292
1662.82	9.07303
1663.08	14.2885
1663.34	8.21649
1663.6	12.1433
1663.86	18.9962
1664.12	-10.1435
1664.38	7.87698
1664.64	-6.86583
1664.9	5.00687
1665.16	18.9666
1665.42	5.19095
1665.68	13.8039
1665.94	-1.22787
1666.2	10.2854
1666.46	10.3446
1666.72	11.3097
1666.98	5.02658
1667.24	-21.3456
1667.5	12.8899
1667.76	-8.87674
1668.02	-14.8336
1668.28	-7.94696
1668.54	4.84189
1668.8	9.7847
1669.06	11.8792
1669.32	-2.78348
1669.58	19.9649
1669.84	7.13428
1670.1	-3.71774
1670.36	13.0518
1670.62	18.9823
1670.88	1.33719
1671.14	-7.47218
1671.4	9.31158
1671.66	3.36548
1671.92	-2.57114
1672.18	8.31638
1672.44	-0.553101
1672.69	10.3334
1672.95	5.39435
1673.21	4.40927
1673.47	-1.51013
1673.73	10.3685
1673.99	6.43634
1674.25	-4.40849
1674.51	2.55194
1674.77	-11.2587
1675.03	1.63617
1675.29	2.67798
1675.55	2.72159
1675.81	5.71771
1676.07	7.70575
1676.33	8.69653
1676.59	-5.14433
1676.85	3.7811
1677.11	12.7013
1677.37	2.80533
1677.63	-0.172394
1677.89	-6.12698
1678.14	5.71774
1678.4	9.63126
1678.66	14.5262
1678.92	5.5845
1679.18	-3.34357
1679.44	5.52988
1679.7	2.54874
1679.96	-7.35547
1680.22	-7.37428
1680.48	-2.44534
1680.74	0.499817
1681	15.3016
1681.26	0.464661
1681.52	2.43451
1681.78	-9.41901
1682.03	16.2706
1682.29	4.42145
1682.55	11.3453
1682.81	1.47766
1683.07	-4.4539
1683.33	4.43631
1683.59	8.39102
1683.85	-7.40897
1684.11	8.39633
1684.37	-9.39371
1684.63	-2.51019
1684.89	13.2765
1685.14	-3.51796
1685.4	0.430389
1685.66	12.2817
1685.92	-6.47447
1686.18	9.3335
1686.44	-2.50377
1686.7	4.43613
1686.96	-6.37122
1687.22	0.575653
1687.48	3.55188
1687.73	-4.36295
1687.99	5.49301
1688.25	5.4711
1688.51	10.392
1688.77	-0.490448
1689.03	13.3024
1689.29	0.422333
1689.55	-9.4812
1689.81	1.3381
1690.06	5.24289
1690.32	4.20734
1690.58	14.0609
1690.84	-13.4925
1691.1	-0.628906
1691.36	-5.53284
1691.62	25.0766
1691.88	-7.45309
1692.13	3.43222
1692.39	-8.40303
1692.65	-4.461
1692.91	-1.52853
1693.17	-2.55424
1693.43	-5.56079
1693.69	-5.61809
1693.95	11.0759
1694.2	-1.78073
1694.46	4.09157
1694.72	-2.84912
1694.98	-5.83202
1695.24	-11.7377
1695.5	-5.80527
1695.76	-7.75398
1696.01	-12.6579
1696.27	13.9689
1696.53	-0.768021
1696.79	11.0895
1697.05	-6.6433
1697.31	9.10909
1697.57	12.0256
1697.82	1.13298
1698.08	-11.7253
1698.34	-1.9213
1698.6	4.93517
1698.86	15.7282
1699.12	-1.02754
1699.38	-5.9566
1699.63	-1.03439
1699.89	-4.94809
1700.15	2.93471
1700.41	-4.92464
1700.67	-8.89563
1700.92	-0.043045
1701.18	-6.93156
1701.44	1.91705
1701.7	17.6419
1701.96	-0.0944672
1702.22	7.73154
1702.47	0.813477
1702.73	-1.19231
1702.99	-15.9688
1703.25	9.57599
1703.51	2.69971
1703.77	0.727509
1704.02	-1.25211
1704.28	14.4612
1704.54	-0.243408
1704.8	1.76399
1705.06	10.6253
1705.32	-3.13449
1705.57	-4.12312
1705.83	3.7468
1706.09	-9.01711
1706.35	10.6037
1706.61	17.4339
1706.86	11.4897
1707.12	4.56253
1707.38	-3.34181
1707.64	-5.34703
1707.9	-2.4588
1708.16	9.2421
1708.41	5.24942
1708.67	5.17943
1708.93	-1.76035
1709.19	-1.82971
1709.44	3.99937
1709.7	8.86716
1709.96	-1.90948
1710.22	-1.90353
1710.48	-12.6574
1710.73	4.00266
1710.99	-5.75731
1711.25	4.0806
1711.51	15.8661
1711.77	-5.64745
1712.02	3.19608
1712.28	13.9844
1712.54	-14.4364
1712.8	9.98691
1713.06	0.105042
1713.31	1.96614
1713.57	2.85541
1713.83	-5.0444
1714.09	6.60132
1714.34	-4.18161
1714.6	11.4279
1714.86	6.53053
1715.12	2.61958
1715.38	3.6024
1715.63	-13.9282
1715.89	2.74374
1716.15	4.70668
1716.41	-2.14249
1716.66	-3.144
1716.92	-1.2317
1717.18	-2.26645
1717.44	3.51492
1717.69	1.46921
1717.95	-16.1949
1718.21	3.20976
1718.47	-4.6693
1718.72	-5.71193
1718.98	6.90503
1719.24	-4.79948
1719.5	14.6792
1719.75	7.87183
1720.01	16.6304
1720.27	5.95013
1720.53	7.91902
1720.78	-0.857285
1721.04	-1.86392
1721.3	6.83922
1721.56	14.5804
1721.81	7.73
1722.07	-7.87709
1722.33	4.71472
1722.59	7.57747
1722.84	-1.22162
1723.1	-4.18309
1723.36	-5.19479
1723.62	-11.0519
1723.87	1.55582
1724.13	4.47757
1724.39	-9.12587
1724.64	8.34969
1724.9	4.43689
1725.16	12.1466
1725.42	-2.49503
1725.67	-1.60014
1725.93	16.7379
1726.19	6.02411
1726.45	10.8506
1726.7	-0.748566
1726.96	-4.63193
1727.22	-1.74945
1727.47	0.112671
1727.73	-2.7876
1727.99	-14.3433
1728.24	-2.72198
1728.5	-12.4366
1728.76	-0.894623
1729.02	6.51457
1729.27	5.17371
1729.53	13.727
1729.79	-2.5239
1730.05	2.44344
1730.3	9.31528
1730.56	0.481293
1730.82	15.872
1731.07	-6.34271
1731.33	-7.99434
1731.59	-1.20122
1731.84	18.1444
1732.1	-7.94363
1732.36	-9.87863
1732.61	-7.95702
1732.87	17.1502
1733.13	0.699585
1733.39	-0.306427
1733.64	-0.368927
1733.9	-10.1053
1734.16	-1.50854
1734.41	-10.2507
1734.67	-6.45535
1734.93	-2.66481
1735.18	-0.804443
1735.44	2.01974
1735.7	2.92516
1735.95	-0.965317
1736.21	-0.990723
1736.47	11.5115
1736.72	0.910675
1736.98	4.73941
1737.24	21.0744
1737.49	2.76947
1737.75	-10.7181
1738.01	-3.0415
1738.26	-15.5722
1738.52	2.65779
1738.78	-11.7998
1739.03	1.61731
1739.29	14.0605
1739.55	4.39331
1739.8	3.35197
1740.06	21.4866
1740.32	1.24094
1740.57	-4.59308
1740.83	9.72276
1741.09	20.2148
1741.34	1.963
1741.6	9.58418
1741.86	11.4602
1742.11	2.81207
1742.37	3.7558
1742.63	-1.99077
1742.88	-0.0831604
1743.14	-3.92513
1743.4	17.1304
1743.65	-11.5793
1743.91	13.2939
1744.16	4.64168
1744.42	0.784241
1744.68	-3.06618
1744.93	15.1026
1745.19	8.41891
1745.45	-8.78145
1745.7	12.2743
1745.96	3.66537
1746.22	15.1228
1746.47	-3.08362
1746.73	-4.08958
1746.98	-7.97166
1747.24	3.45088
1747.5	-4.24829
1747.75	1.43864
1748.01	17.6232
1748.27	0.423492
1748.52	-0.524277
1748.78	4.26442
1749.03	7.15083
1749.29	-12.8675
1749.55	-5.19003
1749.8	18.7353
1750.06	12.1137
1750.32	-0.234802
1750.57	10.3463
1750.83	-2.96791
1751.08	5.66742
1751.34	-7.67508
1751.6	21.0251
1751.85	10.4888
1752.11	-3.90562
1752.36	-3.01083
1752.62	1.722
1752.88	-2.13756
1753.13	-11.7266
1753.39	11.1417
1753.64	6.33447
1753.9	14.8918
1754.15	1.50684
1754.41	9.09544
1754.67	3.33066
1754.92	7.11882
1755.18	4.23656
1755.43	12.7993
1755.69	-4.37547
1755.95	2.26717
1756.2	-0.630783
1756.46	17.4189
1756.71	-1.68251
1756.97	5.86708
1757.23	14.364
1757.48	7.64262
1757.74	3.81995
1757.99	-1.90433
1758.25	22.8533
1758.5	-1.79193
1758.76	13.4678
1759.02	-9.35037
1759.27	-10.2865
1759.53	-3.60957
1759.78	7.83519
1760.04	14.5051
1760.3	-1.67778
1760.55	-5.49176
1760.81	8.76884
1761.06	-5.51668
1761.32	8.72443
1761.57	-2.72481
1761.83	6.7527
1762.08	4.8331
1762.34	-15.1352
1762.6	2.92859
1762.85	14.3917
1763.11	10.6299
1763.36	-1.71266
1763.62	14.4531
1763.87	14.4743
1764.13	4.9966
1764.38	3.13342
1764.64	22.2215
1764.89	4.2538
1765.15	1.45039
1765.4	5.30301
1765.66	2.48352
1765.92	12.9852
1766.17	8.24687
1766.43	11.1166
1766.68	0.648453
1766.94	0.641663
1767.19	11.1083
1767.45	-3.16145
1767.7	19.6748
1767.96	4.42429
1768.21	6.30231
1768.47	8.18872
1768.73	-3.23651
1768.98	8.17384
1769.24	9.98456
1769.49	4.15453
1769.75	6.88905
1770	0.16861
1770.26	13.4822
1770.51	1.2081
1770.77	17.4327
1771.02	1.29878
1771.28	9.88022
1771.53	6.15939
1771.79	-4.19647
1772.04	-3.20251
1772.3	4.43063
1772.55	-1.22224
1772.81	-9.72211
1773.06	12.2098
1773.32	9.39888
1773.57	9.4411
1773.83	8.52826
1774.08	7.61266
1774.34	0.981262
1774.59	-1.84813
1774.85	2.93613
1775.1	11.5531
1775.36	3.96729
1775.61	5.92888
1775.87	2.24289
1776.12	25.1952
1776.38	9.03625
1776.63	-16.682
1776.89	0.478973
1777.14	6.1795
1777.4	5.19556
1777.65	9.94548
1777.91	1.33775
1778.16	-11.0774
1778.42	13.6543
1778.67	-1.61555
1778.93	21.194
1779.18	-2.65834
1779.44	0.141159
1779.69	0.11319
1779.95	3.92662
1780.2	11.6229
1780.46	11.6532
1780.71	12.6356
1780.97	-12.0785
1781.22	12.7079
1781.47	7.0134
1781.73	12.7486
1781.98	-12.9239
1782.24	6.1651
1782.49	10.9794
1782.75	1.52467
1783	7.29102
1783.26	3.52078
1783.51	1.65376
1783.77	1.69739
1784.02	7.46104
1784.28	-1.07164
1784.53	10.4276
1784.79	8.59648
1785.04	15.3257
1785.29	-0.860916
1785.55	10.6001
1785.8	6.78215
1786.06	1.04393
1786.31	13.4301
1786.57	9.63037
1786.82	9.66359
1787.08	-1.7337
1787.33	3.10123
1787.58	1.27139
1787.84	8.0601
1788.09	-1.33301
1788.35	0.746155
1788.6	2.82628
1788.86	8.68565
1789.11	19.2721
1789.37	-1.72292
1789.62	1.25322
1789.87	-2.50664
1790.13	3.28621
1790.38	-4.33852
1790.64	9.12556
1790.89	1.46994
1791.15	-10.9925
1791.4	0.467468
1791.65	1.2877
1791.91	-4.46886
1792.16	-4.48123
1792.42	3.19424
1792.67	-3.48842
1792.93	8.02916
1793.18	-2.46443
1793.43	15.7689
1793.69	10.9965
1793.94	3.3457
1794.2	4.34734
1794.45	4.36798
1794.7	-7.12424
1794.96	9.13762
1795.21	13.0532
1795.47	8.46732
1795.72	4.76939
1795.97	2.92516
1796.23	14.4955
1796.48	2.07056
1796.74	-3.63437
1796.99	1.22658
1797.25	-5.43892
1797.5	4.2261
1797.75	-2.45149
1798.01	9.12631
1798.26	-3.33302
1798.51	12.0837
1798.77	8.26323
1799.02	4.4294
1799.28	3.46443
1799.53	0.563721
1799.78	-0.425354
1800.04	12.9925
1800.29	-1.45743
1800.55	4.28262
1800.8	10.0275
1801.05	5.21201
1801.31	6.16754
1801.56	-5.35648
1801.81	-2.46509
1802.07	5.23769
1802.32	8.14622
1802.58	-3.34813
1802.83	-4.26765
1803.08	12.1192
1803.34	-2.23845
1803.59	1.66879
1803.84	-13.6642
1804.1	-9.78679
1804.35	-3.03229
1804.61	-8.7632
1804.86	-1.01323
1805.11	5.77687
1805.37	7.76677
1805.62	3.98796
1805.87	-1.72008
1806.13	-4.54834
1806.38	23.4407
1806.64	-2.52258
1806.89	5.22859
1807.14	18.7521
1807.4	-2.43283
1807.65	-0.493668
1807.9	12.0458
1808.16	9.16652
1808.41	14.963
1808.66	0.520325
1808.92	1.50073
1809.17	2.48264
1809.42	-9.06667
1809.68	-0.37352
1809.93	-1.31827
1810.18	-2.26344
1810.44	15.1083
1810.69	-9.94862
1810.94	7.40289
1811.2	2.57867
1811.45	6.43996
1811.7	16.0836
1811.96	1.62805
1812.21	1.63904
1812.46	12.2646
1812.72	-6.9837
1812.97	6.55881
1813.22	-3.03391
1813.48	-9.74382
1813.73	4.74966
1813.98	12.512
1814.24	7.75139
1814.49	2.99966
1814.74	11.7671
1815	10.893
1815.25	9.01778
1815.5	3.26727
1815.76	6.19525
1816.01	4.28339
1816.26	3.33629
1816.52	8.19
1816.77	-0.485062
1817.02	-5.29376
1817.27	6.30022
1817.53	7.23865
1817.78	-9.29329
1818.03	-5.50058
1818.29	11.903
1818.54	-10.2618
1818.79	4.30197
1819.05	1.44899
1819.3	-10.1525
1819.55	7.26778
1819.8	13.1044
1820.06	-0.391693
1820.31	-1.32925
1820.56	-9.02931
1820.82	1.64676
1821.07	-2.18799
1821.32	9.44856
1821.58	12.3921
1821.83	4.69937
1822.08	6.677
1822.33	14.4554
1822.59	8.67856
1822.84	-4.84908
1823.09	15.4997
1823.34	8.74236
1823.6	-1.90446
1823.85	-15.4701
1824.1	3.87148
1824.36	-6.77505
1824.61	21.3208
1824.86	11.6702
1825.11	5.88977
1825.37	0.111343
1825.62	10.7955
1825.87	12.7572
1826.12	3.08391
1826.38	19.5525
1826.63	6.97368
1826.88	5.04974
1827.14	5.06152
1827.39	-7.5085
1827.64	0.269226
1827.89	-13.2612
1828.15	2.26965
1828.4	7.12137
1828.65	-3.54056
1828.9	3.2234
1829.16	11.9122
1829.41	14.7996
1829.66	17.7011
1829.91	9.94862
1830.17	8.00276
1830.42	20.567
1830.67	6.01961
1830.92	1.15826
1831.18	9.87753
1831.43	7.00592
1831.68	8.01305
1831.93	8.05272
1832.19	0.340317
1832.44	-6.40538
1832.69	-6.36729
1832.94	-4.37679
1833.2	-9.18433
1833.45	13.1184
1833.7	12.1598
1833.95	1.52481
1834.2	10.2659
1834.46	3.50101
1834.71	-6.24988
1834.96	13.0066
1835.21	25.4734
1835.47	5.03087
1835.72	-5.68037
1835.97	-3.80566
1836.22	11.6718
1836.48	10.6509
1836.73	0.991882
1836.98	7.76161
1837.23	-5.1722
1837.48	-3.34155
1837.74	17.7995
1837.99	13.7714
1838.24	-3.88538
1838.49	-4.9926
1838.74	15.2702
1839	1.18657
1839.25	-0.571396
1839.5	0.490372
1839.75	11.1871
1840	6.37933
1840.26	2.56696
1840.51	18.8115
1840.76	-2.6572
1841.01	-4.72934
1841.27	2.88885
1841.52	17.2713
1841.77	3.63812
1842.02	14.1628
1842.27	3.45695
1842.53	1.44792
1842.78	0.406509
1843.03	1.41608
1843.28	3.32414
1843.53	-7.25645
1843.78	13.9646
1844.04	2.39198
1844.29	-6.3119
1844.54	10.0862
1844.79	9.15547
1845.04	10.1277
1845.3	12.0178
1845.55	1.42017
1845.8	-14.0085
1846.05	-0.403107
1846.3	2.60042
1846.55	12.3562
1846.81	10.6035
1847.06	-3.05699
1847.31	0.463562
1847.56	16.4299
1847.81	9.6091
1848.07	20.205
1848.32	-17.2228
1848.57	3.11751
1848.82	2.99454
1849.07	-0.919739
1849.32	-2.83636
1849.57	6.74532
1849.83	6.67615
1850.08	3.71411
1850.33	0.758469
1850.58	11.2453
1850.83	2.52234
1851.09	-7.14853
1851.34	0.487991
1851.59	8.12794
1851.84	6.17198
1852.09	0.386383
1852.34	7.0976
1852.59	-4.42638
1852.84	2.29674
1853.1	0.376526
1853.35	8.05223
1853.6	4.19656
1853.85	-5.4299
1854.1	-7.39484
1854.35	-5.5397
1854.6	11.6517
1854.86	-1.84532
1855.11	3.87105
1855.36	-5.75261
1855.61	-1.98669
1855.86	0.809998
1856.11	-26.0573
1856.36	-6.91905
1856.61	0.731323
1856.87	-5.97307
1857.12	-5.01672
1857.37	-4.06924
1857.62	4.52904
1857.87	4.50021
1858.12	18.8321
1858.37	6.34645
1858.63	3.42535
1858.88	4.32652
1859.13	-6.25412
1859.38	-4.39845
1859.63	1.27802
1859.88	-0.676849
1860.13	12.701
1860.38	-8.33067
1860.63	5.06825
1860.89	1.28891
1861.14	-2.49548
1861.39	-6.28734
1861.64	10.0209
1861.89	4.31859
1862.14	16.7715
1862.39	-12.9074
1862.64	4.27966
1862.9	-1.51315
1863.15	-3.48357
1863.4	4.10822
1863.65	-11.2438
1863.9	5.90836
1864.15	11.5925
1864.4	11.545
1864.65	0.0372925
1864.9	9.54306
1865.15	1.85133
1865.4	2.74254
1865.66	-1.14882
1865.91	-1.23019
1866.16	-0.369583
1866.41	-9.05035
1866.66	-12.0096
1866.91	2.17926
1867.16	-7.44403
1867.41	5.78142
1867.66	-8.58226
1867.91	0.857178
1868.16	-14.3997
1868.41	-0.16687
1868.67	-0.185547
1868.92	-12.5424
1869.17	8.38287
1869.42	3.62502
1869.67	-11.6007
1869.92	-3.06207
1870.17	-2.12781
1870.42	3.56035
1870.67	-5.95889
1870.92	-11.6736
1871.17	22.5325
1871.42	9.22029
1871.67	5.39813
1871.92	-6.98515
1872.17	5.32262
1872.42	10.0397
1872.68	-7.0853
1872.93	9.01312
1873.18	-5.28288
1873.43	-1.52075
1873.68	-4.38275
1873.93	-10.1002
1874.18	10.7443
1874.43	2.15327
1874.68	-2.64752
1874.93	9.62004
1875.18	14.2937
1875.43	15.1684
1875.68	6.56374
1875.93	13.1035
1876.18	-8.8177
1876.43	8.1302
1876.68	18.459
1876.93	-0.527115
1877.18	-1.51106
1877.43	11.601
1877.68	6.72078
1877.93	8.32259
1878.18	2.85367
1878.44	0.888306
1878.69	2.44153
1878.93	0.436127
1879.19	9.86195
1879.44	-0.322128
1879.69	5.46861
1879.94	-9.7646
1880.19	-2.26456
1880.44	-9.85544
1880.69	-7.98196
1880.94	7.21693
1881.19	-9.88478
1881.44	-1.38075
1881.69	7.03227
1881.94	5.95918
1882.19	2.99475
1882.44	-0.919769
1882.69	7.43564
1882.94	0.652359
1883.19	5.29561
1883.44	5.11176
1883.69	-0.859879
1883.94	-5.67944
1884.19	7.83955
1884.44	-2.5135
1884.69	-9.92191
1884.94	1.26021
1885.19	-9.96893
1885.44	12.7853
1885.69	3.38074
1885.94	8.12451
1886.19	-4.0323
1886.44	0.739166
1886.69	12.1049
1886.94	5.46292
1887.19	9.13002
1887.44	19.4498
1887.69	-3.26215
1887.94	0.446976
1888.19	0.37915
1888.44	2.19061
1888.69	5.85898
1888.94	-2.71222
1889.19	3.79874
1889.44	11.2493
1889.69	21.5556
1889.94	20.5986
1890.19	9.2841
1890.44	20.5977
1890.69	9.35156
1890.94	0.926331
1891.19	20.7164
1891.43	8.45572
1891.68	-0.991608
1891.94	1.82263
1892.18	-4.79216
1892.43	8.37167
1892.68	-3.88553
1892.93	2.66383
1893.18	12.0197
1893.43	2.51253
1893.68	1.42964
1893.93	14.4641
1894.18	-7.19121
1894.43	-4.34048
1894.68	4.02353
1894.93	10.549
1895.18	2.06721
1895.43	0.18779
1895.68	-6.37852
1895.93	3.03461
1896.18	12.4538
1896.43	1.20055
1896.68	0.292374
1896.93	4.09258
1897.18	-3.3963
1897.42	-0.551407
1897.68	1.34499
1897.92	13.577
1898.17	3.22072
1898.42	2.25732
1898.67	6.9234
1898.92	9.6933
1899.17	3.98747
1899.42	1.09711
1899.67	17.0181
1899.92	6.64688
1900.17	6.60686
1900.42	-0.00849915
1900.67	5.61096
1900.92	4.67111
1901.16	3.74821
1901.41	-3.7366
1901.66	3.82314
1901.91	12.3229
1902.16	-4.55815
1902.41	2.0723
1902.66	-3.52792
1902.91	-3.53368
1903.16	12.4274
1903.41	0.165955
1903.66	12.3533
1903.91	-6.48404
1904.16	1.95396
1904.41	0.9935
1904.65	-0.903336
1904.9	10.361
1905.15	18.7993
1905.4	4.6786
1905.65	5.6059
1905.9	0.882629
1906.15	7.38358
1906.4	-4.92361
1906.65	10.0632
1906.9	-4.06377
1907.14	-1.28001
1907.39	-2.24585
1907.64	-1.31381
1907.89	12.7773
1908.14	2.46935
1908.39	10.0209
1908.64	21.3063
1908.89	-5.93527
1909.14	13.8124
1909.39	-6.83272
1909.63	0.724869
1909.88	4.53706
1910.13	12.125
1910.38	13.1396
1910.63	10.395
1910.88	14.2286
1911.13	-2.6741
1911.38	12.4228
1911.62	8.67014
1911.87	3.96017
1912.12	6.77402
1912.37	2.97908
1912.62	-2.69922
1912.87	7.64543
1913.12	-0.842133
1913.37	16.1015
1913.61	-3.67937
1913.86	6.70865
1914.11	7.7117
1914.36	1.1815
1914.61	0.284454
1914.86	9.75432
1915.11	3.19548
1915.36	-2.42776
1915.6	-4.29149
1915.85	-3.34462
1916.1	9.84958
1916.35	-6.22238
1916.6	16.3979
1916.85	5.97324
1917.1	-2.57877
1917.34	2.08316
1917.59	6.75092
1917.84	-6.485
1918.09	4.80206
1918.34	1.02631
1918.59	-11.2086
1918.83	0.148178
1919.08	6.80521
1919.33	21.0231
1919.58	6.9368
1919.83	12.6948
1920.08	15.6075
1920.33	0.526855
1920.57	3.36113
1920.82	2.37634
1921.07	-1.39844
1921.32	-3.239
1921.57	1.53905
1921.81	-8.83656
1922.06	-6.92458
1922.31	12.9456
1922.56	1.58485
1922.81	16.685
1923.06	2.45016
1923.31	-3.2695
1923.55	12.7662
1923.8	5.17151
1924.05	0.410339
1924.3	2.25412
1924.55	10.7021
1924.79	7.82463
1925.04	12.5262
1925.29	3.07637
1925.54	0.261185
1925.79	-0.645279
1926.04	6.03375
1926.28	8.92702
1926.53	-1.42609
1926.78	-7.99582
1927.03	-3.20247
1927.28	5.35466
1927.52	-7.87607
1927.77	4.45468
1928.02	6.36731
1928.27	6.38326
1928.52	-0.234024
1928.76	1.66504
1929.01	-4.94862
1929.26	-0.192566
1929.51	9.31125
1929.76	-2.97049
1930	-2.90939
1930.25	-2.86143
1930.5	7.63564
1930.75	11.4794
1931	9.6356
1931.24	9.64162
1931.49	15.3321
1931.74	3.90645
1931.99	1.01343
1932.24	13.3064
1932.48	-8.57019
1932.73	-0.0758362
1932.98	-8.66574
1933.23	15.9767
1933.47	7.3914
1933.72	13.0853
1933.97	-2.9865
1934.22	-14.2768
1934.46	11.5085
1934.71	-1.59297
1934.96	-4.25667
1935.21	8.28714
1935.46	-8.72737
1935.7	7.58218
1935.95	7.6521
1936.2	0.801086
1936.45	2.66895
1936.69	12.1693
1936.94	1.64136
1937.19	13.9622
1937.44	13.8857
1937.68	2.3912
1937.93	5.18202
1938.18	-7.25209
1938.43	22.1888
1938.68	-3.52376
1938.92	-5.35962
1939.17	5.12816
1939.42	3.2471
1939.67	-9.10843
1939.91	-1.47194
1940.16	16.6559
1940.41	5.21858
1940.66	14.7947
1940.9	4.35677
1941.15	6.41278
1941.4	1.72221
1941.64	8.38745
1941.89	6.4321
1942.14	-6.07097
1942.39	13.7915
1942.63	-0.43454
1942.88	6.48035
1943.13	9.38869
1943.38	-6.84879
1943.62	20.7214
1943.87	-16.6203
1944.12	-7.17572
1944.37	-10.8592
1944.61	7.31248
1944.86	9.25923
1945.11	-2.15796
1945.35	7.43874
1945.6	-3.98032
1945.85	2.75308
1946.1	-4.85547
1946.34	2.82286
1946.59	4.7574
1946.84	10.5079
1947.09	9.55157
1947.33	4.74893
1947.58	-4.85123
1947.83	6.58382
1948.07	-15.4307
1948.32	4.63239
1948.57	-3.03493
1948.82	-4.02582
1949.06	-4.98602
1949.31	1.73589
1949.56	21.8578
1949.8	-2.97794
1950.05	9.50839
1950.3	-8.62923
1950.54	-15.2504
1950.79	-1.74796
1951.04	4.07281
1951.29	-9.27092
1951.53	9.03532
1951.78	-3.35948
1952.03	-2.34279
1952.27	10.1707
1952.52	-3.25079
1952.77	-0.346664
1953.01	3.46971
1953.26	8.30144
1953.51	-7.024
1953.76	-8.06601
1954	-7.21086
1954.25	7.97507
1954.49	0.146194
1954.74	-13.4181
1954.99	0.832672
1955.24	0.781448
1955.48	16.0839
1955.73	8.43398
1955.98	-9.72253
1956.22	-3.88548
1956.47	-4.69257
1956.72	-2.72203
1956.96	16.54
1957.21	6.96692
1957.46	7.96991
1957.7	-8.32457
1957.95	12.8418
1958.2	1.33052
1958.44	4.2224
1958.69	12.8739
1958.94	-12.1204
1959.18	10.9113
1959.43	-1.64684
1959.68	10.8035
1959.92	-3.63513
1960.17	-8.49196
1960.42	1.0592
1960.66	2.92628
1960.91	-7.69472
1961.16	4.72461
1961.4	8.5034
1961.65	-8.82744
1961.9	3.60722
1962.14	-8.87738
1962.39	14.1529
1962.63	2.62857
1962.88	1.66269
1963.13	5.49559
1963.37	1.64894
1963.62	12.2001
1963.87	-4.12738
1964.11	-0.292526
1964.36	14.123
1964.61	-7.95216
1964.85	1.62924
1965.1	-1.28777
1965.35	-1.29999
1965.59	3.47458
1965.84	0.582031
1966.08	17.8747
1966.33	1.5797
1966.58	-0.304016
1966.82	-3.14967
1967.07	1.67593
1967.32	-5.99965
1967.56	10.3159
1967.81	3.5723
1968.05	-10.8427
1968.3	5.49178
1968.55	0.678574
1968.79	-10.8801
1969.04	25.6095
1969.29	4.40012
1969.53	-5.28758
1969.78	5.18576
1970.02	-10.2756
1970.27	10.7672
1970.52	9.73676
1970.76	-8.55124
1971.01	-9.56961
1971.25	0.930542
1971.5	1.84404
1971.75	12.3535
1971.99	-4.94855
1972.24	5.60225
1972.48	11.3645
1972.73	-5.90831
1972.98	9.42078
1973.22	14.1772
1973.47	0.68869
1973.71	-1.30119
1973.96	-12.8687
1974.21	5.2961
1974.45	5.25673
1974.7	7.1461
1974.94	-2.45575
1975.19	12.8716
1975.44	10.9578
1975.68	-9.16109
1975.93	5.24049
1976.17	-7.21169
1976.42	-0.491348
1976.66	9.09865
1976.91	2.37512
1977.16	13.8694
1977.4	12.8843
1977.65	6.13467
1977.89	-1.58421
1978.14	8.90782
1978.39	12.6833
1978.63	6.87817
1978.88	6.83255
1979.12	19.2586
1979.37	-12.3899
1979.61	12.5203
1979.86	17.2962
1980.1	22.0813
1980.35	2.89578
1980.6	22.9819
1980.84	8.54095
1981.09	16.1453
1981.33	3.64917
1981.58	17.9647
1981.82	0.676132
1982.07	4.472
1982.31	2.52896
1982.56	0.585419
1982.81	-5.21727
1983.05	-7.19093
1983.3	-6.30795
1983.54	4.12941
1983.79	18.407
1984.03	-5.55272
1984.28	-0.806
1984.52	8.7162
1984.77	25.886
1985.02	0.0243073
1985.26	16.2187
1985.51	11.3527
1985.75	15.125
1986	0.770782
1986.24	17.0166
1986.49	3.65039
1986.73	2.71716
1986.98	16.1065
1987.22	9.38458
1987.47	3.64699
1987.71	11.2345
1987.96	28.3458
1988.21	15.8142
1988.45	-4.36099
1988.7	16.5184
1988.94	1.09824
1989.19	9.53441
1989.43	13.944
1989.68	8.48145
1989.92	6.28168
1990.17	17.9474
1990.41	10.3121
1990.66	12.5474
1990.9	29.9934
1991.15	8.2224
1991.39	15.7188
1991.64	5.88835
1991.88	14.0468
1992.13	2.27145
1992.37	11.9955
1992.62	19.2458
1992.86	-1.62366
1993.11	8.00491
1993.35	5.24597
1993.6	17.2665
1993.84	15.8116
1994.09	18.3054
1994.33	16.1563
1994.58	16.0326
1994.82	0.899323
1995.07	16.4132
1995.31	16.0561
1995.56	22.1341
1995.8	12.4468
1996.05	19.0829
1996.29	8.61717
1996.54	7.82539
1996.78	1.78491
1997.03	15.5755
1997.27	8.80109
1997.52	15.0344
1997.76	13.8837
1998.01	14.2234
1998.25	18.7878
1998.5	8.17499
1998.74	0.665024
1998.99	14.3688
1999.23	20.6536
1999.48	24.2764
1999.72	11.147
1999.97	19.9304
2000.21	20.4424
2000.46	21.1567
2000.7	12.3054
2000.95	10.1621
2001.19	17.7945
2001.43	15.804
2001.68	17.3459
2001.92	5.4021
2002.17	16.2652
2002.41	20.5316
2002.66	15.7609
2002.9	18.1914
2003.15	14.9888
2003.39	17.5888
2003.64	24.1701
2003.88	15.526
2004.13	15.2742
2004.37	1.02917
2004.61	9.71759
2004.86	18.8397
2005.1	14.5827
2005.35	6.94104
2005.59	19.6726
2005.84	12.8198
2006.08	19.1055
2006.33	15.0504
2006.57	12.3978
2006.81	19.858
2007.06	17.6465
2007.3	17.5801
2007.55	15.4667
2007.79	22.0492
2008.04	26.6091
2008.28	21.471
2008.53	15.1196
2008.77	14.6849
2009.01	4.16022
2009.26	17.0983
2009.5	27.6157
2009.75	18.9111
2009.99	21.4678
2010.24	30.1826
2010.48	28.8
2010.73	14.6721
2010.97	8.07721
2011.21	17.6391
2011.46	22.6234
2011.7	9.90984
2011.95	19.2535
2012.19	17.2961
2012.43	12.6729
2012.68	22.073
2012.92	19.2332
2013.17	25.7776
2013.42	13.4645
2013.67	15.2367
2013.91	17.995
2014.16	11.3342
2014.41	10.2997
2014.66	22.3931
2014.9	4.45428
2015.15	22.2592
2015.4	19.4563
2015.64	28.8759
2015.89	0.755829
2016.14	10.1723
2016.39	8.27321
2016.63	11.1479
2016.88	17.8911
2017.13	16.9866
2017.37	17.9151
2017.62	1.90788
2017.87	15.9529
2018.11	24.3386
2018.36	17.679
2018.61	8.20299
2018.86	18.4444
2019.1	26.8029
2019.35	15.4626
2019.6	28.5012
2019.84	8.78418
2020.09	8.75554
2020.34	19.9805
2020.58	10.6117
2020.83	14.3497
2021.08	25.5815
2021.33	12.4849
2021.57	9.69121
2021.82	12.5046
2022.07	10.6232
2022.31	12.4782
2022.56	19.0038
2022.81	19.8989
2023.05	15.1653
2023.3	9.4899
2023.55	17.8651
2023.8	17.8172
2024.04	14.9645
2024.29	14.9178
2024.54	13.0071
2024.78	14.8054
2025.03	18.4666
2025.27	27.7306
2025.52	12.7225
2025.77	9.85942
2026.02	12.6009
2026.26	8.7948
2026.51	11.6167
2026.76	6.10307
2027	9.04309
2027.25	12.0152
2027.5	15.9487
2027.74	24.4927
2027.99	11.3657
2028.23	11.2281
2028.48	6.35645
2028.73	16.9497
2028.98	6.34634
2029.22	13.7019
2029.47	6.70857
2029.72	16.2776
2029.96	-0.00646973
2030.21	12.8412
2030.45	4.19604
2030.7	-1.40933
2030.95	8.67439
2031.19	11.6333
2031.44	12.7002
2031.69	12.669
2031.93	9.87386
2032.18	10.8159
2032.43	9.94916
2032.67	15.6259
2032.92	10.107
2033.17	10.1822
2033.41	13.0452
2033.66	20.572
2033.91	16.9024
2034.15	20.6782
2034.4	0.9319
2034.64	12.0015
2034.89	12.7113
2035.14	13.5891
2035.38	10.8867
2035.63	8.16408
2035.87	7.35606
2036.12	0.972427
2036.37	12.3067
2036.61	-0.794266
2036.86	11.2523
2037.11	14.0659
2037.35	1.96675
2037.6	4.77255
2037.84	15.9847
2038.09	17.8352
2038.34	2.8528
2038.58	8.43324
2038.83	16.8124
2039.08	8.36946
2039.32	9.27148
2039.57	-3.8405
2039.81	16.6729
2040.06	-10.4518
2040.31	-1.1713
2040.55	18.3706
2040.8	-0.344269
2041.04	-2.25732
2041.29	5.16234
2041.54	6.99228
2041.78	3.24841
2042.03	3.23792
2042.27	22.7853
2042.52	14.3725
2042.77	-1.51187
2043.01	4.99632
2043.26	2.20296
2043.5	9.67877
2043.75	7.87677
2044	9.83148
2044.24	8.05984
2044.49	5.29718
2044.73	4.3567
2044.98	12.7027
2045.23	17.2665
2045.47	-5.28687
2045.72	-0.371246
2045.96	-3.10246
2046.21	2.79929
2046.45	2.21227
2046.7	4.83981
2046.95	-5.63863
2047.19	-7.65234
2047.44	2.6265
2047.68	21.2294
2047.93	-0.39682
2048.17	13.5445
2048.42	16.3537
2048.67	-4.14223
2048.91	11.7242
2049.16	16.4124
2049.4	7.14728
2049.65	9.99522
2049.89	-0.203491
2050.14	6.41072
2050.39	7.4063
2050.63	-0.93541
2050.88	-0.899185
2051.12	-4.62234
2051.37	3.7757
2051.61	19.6137
2051.86	13.0136
2052.11	9.27977
2052.35	-0.983627
2052.6	-0.0144958
2052.84	12.1392
2053.09	-7.44621
2053.33	0.99762
2053.58	-8.30122
2053.82	-1.70361
2054.07	0.268509
2054.31	-10.9122
2054.56	4.08443
2054.8	14.3851
2055.05	-1.51903
2055.3	1.27969
2055.54	2.20355
2055.79	4.02672
2056.03	13.3559
2056.28	-2.54565
2056.52	6.78679
2056.77	1.15819
2057.01	-2.59084
2057.26	18.9095
2057.5	2.09846
2057.75	-0.685944
2058	-1.59137
2058.24	3.1194
2058.49	0.34964
2058.73	5.08255
2058.98	-0.479355
2059.22	5.18343
2059.47	4.28438
2059.71	-3.18767
2059.96	-4.10873
2060.2	-5.03687
2060.45	4.30202
2060.69	-3.21416
2060.94	-1.36101
2061.18	0.539566
2061.43	7.12653
2061.67	8.08858
2061.92	-2.19679
2062.16	7.17421
2062.41	-0.304672
2062.65	10.0144
2062.9	-8.68826
2063.14	10.0768
2063.39	9.1835
2063.63	-6.70448
2063.88	4.57185
2064.12	-1.96095
2064.37	4.62169
2064.61	13.0795
2064.86	10.297
2065.1	12.2086
2065.35	1.94792
2065.59	2.95425
2065.84	1.1404
2066.08	-7.25238
2066.33	-4.39189
2066.57	7.84752
2066.82	-0.590424
2067.06	13.5232
2067.31	6.03871
2067.55	-5.21053
2067.8	4.21542
2068.04	-7.96046
2068.29	-0.410156
2068.53	1.49602
2068.78	2.4528
2069.02	2.48886
2069.27	-6.90535
2069.51	-1.29059
2069.76	6.17165
2070	-8.00722
2070.25	1.35413
2070.49	4.19583
2070.73	11.8063
2070.98	-1.23918
2071.22	-6.77089
2071.47	0.742981
2071.71	-4.95679
2071.96	11.2845
2072.2	7.61165
2072.45	3.83372
2072.69	-0.885818
2072.94	-4.65443
2073.18	4.74741
2073.43	0.0436554
2073.67	-6.55365
2073.92	-9.36487
2074.16	-16.8863
2074.4	11.3778
2074.65	1.04796
2074.89	14.2787
2075.14	9.63179
2075.38	7.82709
2075.63	-8.10175
2075.87	-11.7648
2076.12	-7.91402
2076.36	10.0633
2076.6	-5.03082
2076.85	-1.24104
2077.09	6.29248
2077.34	0.590149
2077.58	-5.11436
2077.83	7.99953
2078.07	4.20738
2078.31	-3.30725
2078.56	-2.31487
2078.8	-4.17871
2079.05	-4.15579
2079.29	4.37115
2079.54	3.48268
2079.78	0.754257
2080.03	2.69025
2080.27	9.34471
2080.51	9.38454
2080.76	5.63794
2081	7.53569
2081.25	7.51823
2081.49	3.72832
2081.74	-11.3904
2081.98	2.78433
2082.22	1.83638
2082.47	-4.75642
2082.71	12.2728
2082.96	-1.88466
2083.2	-0.930588
2083.45	3.79573
2083.69	-4.71301
2083.93	-2.82651
2084.18	-10.3808
2084.42	-6.59351
2084.67	-2.81119
2084.91	0.0318451
2085.15	8.54842
2085.4	-12.235
2085.64	-1.83566
2085.89	-6.55492
2086.13	7.64059
2086.37	5.81061
2086.62	-1.68086
2086.86	1.20981
2087.11	15.4255
2087.35	2.21265
2087.59	10.7691
2087.84	6.06378
2088.08	1.33871
2088.32	5.13284
2088.57	-5.26697
2088.81	-4.30621
2089.06	0.442383
2089.3	-1.43556
2089.54	0.495453
2089.79	10.005
2090.03	6.27989
2090.28	6.30533
2090.52	-10.7298
2090.76	10.1319
2091.01	-6.89693
2091.25	-6.8694
2091.5	0.739822
2091.74	-6.81505
2091.98	-4.86163
2092.23	7.53152
2092.47	14.2467
2092.72	-2.75713
2092.96	2.06627
2093.2	13.5232
2093.45	8.83519
2093.69	3.19603
2093.93	5.15382
2094.18	-1.44998
2094.42	0.495728
2094.66	-8.04327
2094.91	1.46927
2095.15	-10.8946
2095.39	1.4548
2095.64	-0.476013
2095.88	5.19289
2096.13	-7.18436
2096.37	-1.50171
2096.61	-8.16167
2096.86	0.386017
2097.1	7.0325
2097.34	-6.28845
2097.59	6.97145
2097.83	7.88327
2098.07	7.8707
2098.32	4.06735
2098.56	-11.1258
2098.8	-0.708389
2099.05	17.3308
2099.29	0.24675
2099.53	9.73042
2099.78	-8.30502
2100.02	-7.3541
2100.27	6.88841
2100.51	-2.58963
2100.75	2.17273
2101	2.19943
2101.24	4.15567
2101.48	-4.34383
2101.73	7.08443
2101.97	10.903
2102.21	4.25998
2102.45	3.31064
2102.7	7.11684
2102.94	6.16003
2103.18	2.33267
2103.43	3.24451
2103.67	3.22658
2103.92	12.7192
2104.16	2.27083
2104.4	-6.26271
2104.64	-3.39182
2104.89	8.03944
2105.13	4.2791
2105.37	4.31474
2105.62	-1.34171
2105.86	5.36191
2106.1	-1.2438
2106.35	10.1906
2106.59	1.66347
2106.83	5.4828
2107.08	-11.614
2107.32	9.32678
2107.56	8.38918
2107.8	3.61771
2108.05	-4.0211
2108.29	-0.266708
2108.53	-0.31813
2108.78	-9.86588
2109.02	3.39172
2109.26	-9.91226
2109.51	2.44572
2109.75	3.45538
2109.99	2.55453
2110.23	-7.88692
2110.48	13.0193
2110.72	14.9248
2110.96	3.53055
2111.21	12.0869
2111.45	5.4409
2111.69	0.682739
2111.93	10.158
2112.18	-12.651
2112.42	13.9332
2112.66	5.3914
2112.91	12.0667
2113.15	4.49689
2113.39	-1.17151
2113.63	0.785919
2113.88	16.9916
2114.12	-0.0892487
2114.36	-0.0953979
2114.61	-12.4624
2114.85	-0.105911
2115.09	4.66174
2115.33	13.2267
2115.58	-2.93529
2115.82	5.60574
2116.06	6.54546
2116.31	-0.117325
2116.55	7.44646
2116.79	-3.03604
2117.03	2.64919
2117.28	-2.10361
2117.52	6.44034
2117.76	-0.192062
2118	2.64163
2118.25	2.61481
2118.49	13.0276
2118.73	2.53682
2118.97	-6.05727
2119.22	-0.406097
2119.46	9.9874
2119.7	-2.37724
2119.94	-5.25685
2120.19	4.18933
2120.43	1.32217
2120.67	-5.31529
2120.91	-7.19821
2121.16	-4.3156
2121.4	3.29228
2121.64	12.8262
2121.88	-1.33727
2122.13	-6.02757
2122.37	4.45628
2122.61	-9.7309
2122.85	-2.10205
2123.1	3.62695
2123.34	7.45494
2123.58	7.47922
2123.82	-0.100937
2124.07	3.68634
2124.31	13.1613
2124.55	-7.74905
2124.79	-3.9991
2125.03	-0.279602
2125.28	6.26361
2125.52	-3.30002
2125.76	-12.8358
2126	-4.36662
2126.25	-0.632874
2126.49	3.10526
2126.73	-15.8569
2126.97	-0.754761
2127.21	14.3398
2127.46	7.68074
2127.7	0.103989
2127.94	-0.845688
2128.18	-10.3059
2128.43	-0.867264
2128.67	-5.60022
2128.91	-1.8119
2129.15	-7.47598
2129.39	1.97482
2129.64	1.96448
2129.88	2.90182
2130.12	1.95384
2130.36	-10.335
2130.6	0.999146
2130.85	10.4386
2131.09	-1.85849
2131.33	1.90161
2131.57	-0.0117035
2131.81	1.85109
2132.06	5.60513
2132.3	-3.8508
2132.54	9.34944
2132.78	11.2013
2133.02	-7.7066
2133.27	12.0966
2133.51	2.66417
2133.75	-3.92603
2133.99	12.1311
2134.23	5.53413
2134.48	-6.71835
2134.72	4.61981
2134.96	-2.92909
2135.2	-4.8159
2135.44	5.56557
2135.68	-9.53697
2135.93	4.6033
2136.17	-1.08696
2136.41	-1.14311
2136.65	0.687378
2136.89	-10.6488
2137.14	0.679123
2137.38	-4.01936
2137.62	1.64809
2137.86	-7.75148
2138.1	5.50179
2138.34	4.54915
2138.59	12.9804
2138.83	1.62964
2139.07	18.644
2139.31	-2.02351
2139.55	-10.4585
2139.79	3.5925
2140.03	1.63438
2140.28	-0.279709
2140.52	9.11694
2140.76	3.44405
2141	13.7891
2141.24	10.9529
2141.49	10.0005
2141.73	-0.349274
2141.97	7.14835
2142.21	-1.36539
2142.45	1.44734
2142.69	-5.1349
2142.93	-0.381332
2143.18	9.07413
2143.42	-8.64841
2143.66	13.8889
2143.9	3.94627
2144.14	5.83128
2144.38	-2.58063
2144.62	-14.7245
2144.87	-1.4847
2145.11	1.38525
2145.35	0.332169
2145.59	2.23682
2145.83	-8.08997
2146.07	3.18848
2146.31	-8.1041
2146.55	1.28635
2146.8	2.21623
2147.04	1.2663
2147.28	0.3125
2147.52	9.6871
2147.76	-10.0662
2148	2.12909
2148.24	17.1438
2148.48	0.218109
2148.73	-8.25162
2148.97	-8.27071
2149.21	-1.72234
2149.45	9.50658
2149.69	1.0159
2149.93	7.50237
2150.17	-12.2348
2150.42	3.65779
2150.66	8.30898
2150.9	-7.64024
2151.14	-3.88818
2151.38	-1.98947
2151.62	-13.1985
2151.86	-1.92047
2152.1	7.49617
2152.34	0.0149994
2152.58	-0.886627
2152.83	3.77866
2153.07	-0.932648
2153.31	0.911438
2153.55	5.57057
2153.79	6.49677
2154.03	-5.6998
2154.27	8.32909
2154.51	-8.57965
2154.75	0.72464
2154.99	3.45166
2155.24	9.92488
2155.48	12.6401
2155.72	-1.44792
2155.96	-13.6537
2156.2	2.19
2156.44	-3.44875
2156.68	0.273605
2156.92	13.3495
2157.16	3.07532
2157.4	-11.8631
2157.64	-5.30249
2157.89	1.27284
2158.13	6.9252
2158.37	6.03189
2158.61	3.24377
2158.85	8.85756
2159.09	-6.10002
2159.33	2.30074
2159.57	-1.45662
2159.81	-7.08913
2160.05	-6.18829
2160.29	-2.49512
2160.53	3.06262
2160.77	10.4909
2161.01	-1.67734
2161.25	2.0396
2161.5	-5.42978
2161.74	-0.776535
2161.98	3.87544
2162.22	5.74049
2162.46	5.74666
2162.7	8.55316
2162.94	10.4222
2163.18	5.74593
2163.42	-11.064
2163.66	3.84297
2163.9	-1.76671
2164.14	6.60947
2164.38	0.997299
2164.62	5.61998
2164.86	8.3667
2165.11	9.27046
2165.35	-0.963135
2165.59	6.51886
2165.83	8.39226
2166.07	5.60681
2166.31	-3.70279
2166.55	2.80278
2166.79	-3.73466
2167.03	1.83107
2167.27	-0.0663452
2167.51	2.70358
2167.75	10.1098
2167.99	4.46785
2168.23	9.95366
2168.47	-5.01277
2168.71	-2.24841
2168.95	-10.6132
2169.19	0.561478
2169.43	1.52585
2169.67	2.50517
2169.91	-2.0807
2170.15	-9.44838
2170.39	-9.36523
2170.63	0.929245
2170.87	4.67963
2171.11	8.39693
2171.35	4.63748
2171.59	-10.2702
2171.83	8.26982
2172.07	6.26651
2172.31	-4.03062
2172.56	5.23192
2172.79	-16.1705
2173.04	-2.25261
2173.28	0.535797
2173.51	-10.6096
2173.76	-3.17284
2174	-2.22224
2174.24	-1.25981
2174.48	-4.02187
2174.72	-0.288177
2174.96	-7.71382
2175.2	0.656174
2175.44	9.0239
2175.68	12.7341
2175.92	-8.64642
2176.16	5.29228
2176.4	-2.14548
2176.64	8.9939
2176.88	-3.10957
2177.12	-0.328873
2177.36	10.8256
2177.6	0.619827
2177.84	-3.08553
2178.08	7.13559
2178.32	4.36353
2178.55	1.56363
2178.8	12.6585
2179.03	7.97928
2179.28	9.83745
2179.52	2.42601
2179.75	1.50761
2180	8.94485
2180.23	8.9509
2180.47	5.24219
2180.71	-5.89877
2180.95	1.52266
2181.19	3.37292
2181.43	8.94403
2181.67	1.51123
2181.91	6.13422
2182.15	-1.30751
2182.39	9.82465
2182.63	7.94772
2182.87	-7.83864
2183.11	-5.06709
2183.35	6.03128
2183.59	1.35364
2183.83	-7.97046
2184.07	-4.29802
2184.31	5.87083
2184.55	4.92033
2184.79	-8.98071
2185.03	-5.26105
2185.27	11.4455
2185.51	4.0549
2185.75	-0.556076
2185.99	5.96478
2186.23	-13.4619
2186.47	6.97963
2186.7	6.09659
2186.95	-5.89632
2187.18	2.52248
2187.42	-7.62015
2187.66	0.801102
2187.9	-1.00479
2188.14	1.79984
2188.38	12.9292
2188.62	2.68439
2188.86	11.0062
2189.1	-3.88435
2189.34	-2.07005
2189.58	-5.82965
2189.82	1.53067
2190.06	-5.00963
2190.3	-0.394211
2190.54	3.31206
2190.78	2.3965
2191.01	9.83783
2191.25	-5.89912
2191.49	8.94241
2191.73	-0.310364
2191.97	5.27744
2192.21	6.23079
2192.45	-5.80074
2192.69	-0.21228
2192.93	-0.186722
2193.17	2.63782
2193.41	-5.67079
2193.65	10.147
2193.89	2.77562
2194.13	-2.70091
2194.36	-10.959
2194.6	1.19475
2194.84	-1.55067
2195.08	-8.06236
2195.32	5.8642
2195.56	-0.656342
2195.8	3.03572
2196.04	4.85591
2196.28	9.4474
2196.52	-4.54796
2196.76	9.31761
2197	3.7037
2197.23	2.74278
2197.47	5.49765
2197.71	1.76317
2197.95	-0.0838928
2198.19	-5.63638
2198.43	4.59608
2198.67	0.941574
2198.91	-0.855698
2199.15	-3.57315
2199.38	-20.2139
2199.62	-0.644104
2199.86	10.5823
2200.1	-2.35443
2200.34	-1.31995
2200.58	-0.273575
2200.82	5.41498
2201.06	6.43906
2201.3	2.7818
2201.54	13.0914
2201.77	-4.69168
2202.01	-13.2648
2202.25	3.9803
2202.49	-2.80267
2202.73	2.89993
2202.97	4.19632
2203.21	-8.65639
2203.45	-7.77498
2203.68	-3.16031
2203.92	10.981
2204.16	-3.25563
2204.4	-13.7536
2204.64	8.61623
2204.88	13.3221
2205.12	-4.52686
2205.36	7.40599
2205.59	-4.8499
2205.83	9.923
2206.07	16.4053
2206.31	-0.31813
2206.55	5.31526
2206.79	1.60921
2207.03	11.7655
2207.26	10.8559
2207.5	-8.63188
2207.74	7.22169
2207.98	-2.95998
2208.22	17.5596
2208.46	3.6546
2208.7	7.42714
2208.93	13.0583
2209.17	12.1655
2209.41	5.67628
2209.65	-2.68556
2209.89	-11.9906
2210.13	1.04854
2210.36	6.65076
2210.6	6.68468
2210.84	-4.45737
2211.08	5.83102
2211.32	4.94006
2211.56	-11.7982
2211.8	3.15645
2212.03	5.0731
2212.27	3.25969
2212.51	-5.09726
2212.75	6.11874
2212.99	14.5065
2213.23	5.164
2213.46	5.1507
2213.7	-6.06563
2213.94	-0.500015
2214.18	6.97704
2214.42	3.29539
2214.66	5.25365
2214.89	3.47496
2215.13	-6.76355
2215.37	-0.205093
2215.61	-8.58722
2215.85	-0.1689
2216.08	-2.95792
2216.32	7.3201
2216.56	7.32394
2216.8	4.52403
2217.04	-2.94756
2217.28	9.1875
2217.51	-5.74329
2217.75	-4.79546
2217.99	4.55707
2218.23	3.62946
2218.47	8.30196
2218.7	-2.88649
2218.94	10.2134
2219.18	3.71268
2219.42	-3.71655
2219.66	-3.67252
2219.9	16.9133
2220.13	1.99544
2220.37	12.3036
2220.61	-6.3869
2220.85	-0.781647
2221.09	3.89046
2221.32	-5.46857
2221.56	5.7016
2221.8	4.718
2222.04	0.00973511
2222.27	-0.956085
2222.51	-2.84213
2222.75	11.1607
2222.99	8.38234
2223.23	0.950211
2223.46	6.5901
2223.7	0.0946198
2223.94	0.149887
2224.18	-8.19417
2224.42	-7.19238
2224.65	-9.93459
2224.89	-9.87991
2225.13	-6.08868
2225.37	2.38226
2225.6	-2.2399
2225.84	-8.72926
2226.08	-3.06036
2226.32	-0.201599
2226.56	4.53365
2226.79	-1.98665
2227.03	9.31
2227.27	-6.57826
2227.51	12.2115
2227.74	1.92946
2227.98	0.0744171
2228.22	2.88919
2228.46	4.75537
2228.69	8.49721
2228.93	0.0510864
2229.17	8.4845
2229.41	8.4796
2229.64	11.2982
2229.88	-0.84845
2230.12	11.4039
2230.36	-0.732956
2230.6	1.18663
2230.83	5.92499
2231.07	-0.596481
2231.31	8.84219
2231.55	-1.43205
2231.78	7.07799
2232.02	2.42755
2232.26	-5.04263
2232.5	-17.2162
2232.73	0.689407
2232.97	-2.0876
2233.21	-9.5668
2233.45	4.58476
2233.68	2.74763
2233.92	3.73409
2234.16	-11.2889
2234.39	1.91716
2234.63	12.266
2234.87	0.0197754
2235.11	-2.8215
2235.34	4.67612
2235.58	16.836
2235.82	2.68111
2236.06	-2.95016
2236.29	-1.99498
2236.53	-1.03703
2236.77	2.74284
2237	8.40094
2237.24	7.47813
2237.48	-3.75577
2237.72	4.76239
2237.95	-12.0972
2238.19	-6.36
2238.43	-4.394
2238.67	0.379791
2238.9	1.38246
2239.14	-9.86539
2239.38	5.30524
2239.61	-0.334732
2239.85	7.20087
2240.09	0.575851
2240.33	7.1261
2240.56	2.36751
2240.8	-1.42093
2241.04	6.21587
2241.27	7.24521
2241.51	-5.94388
2241.75	6.34166
2241.99	-7.79039
2242.22	0.721558
2242.46	-4.91714
2242.7	-2.05743
2242.93	4.58226
2243.17	4.59274
2243.41	-6.73758
2243.64	10.2329
2243.88	-2.0621
2244.12	7.36563
2244.36	-2.07117
2244.59	-2.05838
2244.83	-1.07785
2245.07	9.37363
2245.3	9.46655
2245.54	7.66068
2245.78	4.88077
2246.01	4.92792
2246.25	6.86931
2246.49	-4.43076
2246.72	2.23061
2246.96	-2.47284
2247.2	-1.4902
2247.43	8.00951
2247.67	8.98389
2247.91	17.5177
2248.14	1.43111
2248.38	-8.03767
2248.62	-2.36546
2248.85	-8.04997
2249.09	-6.16216
2249.33	-2.38246
2249.56	-2.38475
2249.8	9.01233
2250.04	3.36559
2250.27	5.26222
2250.51	-2.32887
2250.75	0.47673
2250.98	-10.9112
2251.22	0.39798
2251.46	-6.25259
2251.69	1.28876
2251.93	3.17419
2252.17	3.18796
2252.4	-5.29381
2252.64	6.0916
2252.88	8.03168
2253.11	-0.41124
2253.35	12.9589
2253.59	-3.05392
2253.82	2.696
2254.06	9.38423
2254.3	-1.94479
2254.53	3.78825
2254.77	-0.918701
2255.01	-8.49467
2255.24	6.66182
2255.48	7.62601
2255.72	6.68501
2255.95	1.9576
2256.19	-6.56223
2256.42	2.9613
2256.66	-2.68561
2256.9	-12.1331
2257.13	-0.709045
2257.37	-9.21129
2257.61	9.81145
2257.84	-5.34055
2258.08	4.18221
2258.32	0.401367
2258.55	-3.38275
2258.79	-8.11247
2259.02	3.30957
2259.26	-1.40517
2259.5	5.28165
2259.73	-7.04539
2259.97	-6.07315
2260.2	0.608093
2260.44	-3.16685
2260.68	-0.289795
2260.91	-7.87079
2261.15	-7.83507
2261.39	-1.10922
2261.62	16.0644
2261.86	9.4201
2262.1	-6.73711
2262.33	-9.5701
2262.57	-6.69298
2262.8	5.714
2263.04	3.85962
2263.28	6.76814
2263.51	-0.791031
2263.75	7.85205
2263.98	7.93134
2264.22	-3.42245
2264.46	2.38216
2264.69	-2.31252
2264.93	-6.06709
2265.16	-0.285461
2265.4	4.53676
2265.64	-3.06229
2265.87	10.3227
2266.11	-5.90251
2266.34	14.1463
2266.58	5.50903
2266.81	12.1487
2267.05	0.646286
2267.29	4.424
2267.52	0.578232
2267.76	-1.35486
2267.99	0.52623
2268.23	-1.42107
2268.47	-4.31071
2268.7	3.3101
2268.94	0.461517
2269.17	6.21655
2269.41	-1.36459
2269.65	-1.30615
2269.88	-3.1524
2270.12	3.59531
2270.35	1.76216
2270.59	1.8318
2270.82	-4.81255
2271.06	12.4197
2271.3	2.9129
2271.53	8.69116
2271.77	2.98601
2272	6.84561
2272.24	5.9337
2272.47	4.04707
2272.71	-4.55354
2272.95	-3.58263
2273.18	-14.0917
2273.42	5.06111
2273.65	-2.57817
2273.89	1.26535
2274.12	-4.46069
2274.36	-3.48868
2274.6	2.26814
2274.83	7.06963
2275.07	2.29993
2275.3	-5.33936
2275.54	1.37811
2275.77	2.35361
2276.01	18.628
2276.24	7.17484
2276.48	-2.34851
2276.72	0.580215
2276.95	1.58801
2277.18	3.55087
2277.42	-16.531
2277.66	0.797348
2277.89	-1.99976
2278.13	4.80199
2278.36	2.97482
2278.6	4.93126
2278.83	1.10951
2279.07	-0.80452
2279.3	3.99452
2279.54	-8.49931
2279.78	-4.68918
2280.01	-5.73369
2280.24	3.80812
2280.48	3.75661
2280.72	8.50792
2280.95	0.800293
2281.19	6.52728
2281.42	-0.199478
2281.66	2.65436
2281.89	1.68062
2282.13	3.62444
2282.36	3.6436
2282.6	18.0588
2282.83	3.72244
2283.07	-1.02086
2283.3	10.5426
2283.54	-5.70735
2283.77	0.135315
2284.01	13.6817
2284.24	8.01129
2284.48	-3.42249
2284.71	2.40512
2284.95	-9.10876
2285.19	-3.2876
2285.42	4.45921
2285.65	10.2531
2285.89	8.33853
2286.12	-4.2114
2286.36	-8.13014
2286.59	-2.36186
2286.83	3.42815
2287.06	10.2
2287.3	9.34081
2287.54	-6.94159
2287.77	-4.9826
2288	4.67429
2288.24	2.80786
2288.47	11.4669
2288.71	0.842575
2288.94	1.77861
2289.18	8.48561
2289.41	-1.20172
2289.65	3.53761
2289.88	2.50813
2290.12	-2.38148
2290.35	-10.0982
2290.59	5.26688
2290.82	5.27089
2291.06	6.23988
2291.29	-9.11047
2291.53	-1.36197
2291.76	2.55687
2292	-1.24272
2292.23	-1.20459
2292.47	8.46028
2292.7	7.54112
2292.94	10.4834
2293.17	4.75377
2293.41	4.79324
2293.64	-1.91843
2293.88	11.5998
2294.11	3.90446
2294.34	-3.81862
2294.58	5.79715
2294.81	-6.7583
2295.05	4.76727
2295.28	-2.00218
2295.52	-3.9536
2295.75	-3.01657
2295.99	-11.7074
2296.22	-0.175171
2296.46	5.55482
2296.69	-1.26276
2296.93	3.53851
2297.16	-9.91211
2297.39	6.47647
2297.63	-8.88222
2297.86	-1.13445
2298.1	3.73949
2298.33	7.66544
2298.57	-10.5935
2298.8	-4.782
2299.04	-7.63234
2299.27	3.02556
2299.51	5.96518
2299.74	-3.6413
2299.97	12.7792
2300.21	-0.727173
2300.44	6.02821
2300.68	6.9894
2300.91	2.19188
2301.15	8.0183
2301.38	5.15189
2301.61	1.31635
2301.85	10.0192
2302.08	2.30322
2302.32	-3.49335
2302.55	1.31586
2302.79	7.09393
2303.02	6.13518
2303.25	10.9572
2303.49	10.9465
2303.72	-4.49687
2303.96	4.19373
2304.19	-10.2628
2304.43	3.28622
2304.66	-14.0596
2304.89	3.34402
2305.13	9.1694
2305.36	0.516739
2305.6	5.37112
2305.83	2.48381
2306.07	9.26505
2306.3	4.46098
2306.53	0.621109
2306.77	-3.23564
2307	19.9666
2307.24	7.39867
2307.47	1.59296
2307.7	-9.05664
2307.94	10.246
2308.17	0.567429
2308.41	-0.41748
2308.64	3.42996
2308.87	-5.2655
2309.11	22.7623
2309.34	-0.395416
2309.58	-12.9256
2309.81	-0.31076
2310.04	2.65401
2310.28	-2.13847
2310.51	9.48914
2310.75	-4.04901
2310.98	0.78157
2311.21	-5.04434
2311.45	-10.8935
2311.68	11.2259
2311.92	-0.503525
2312.15	4.25185
2312.38	3.23323
2312.62	9.95819
2312.85	7.02446
2313.08	-2.65305
2313.32	7.95644
2313.55	-9.3902
2313.79	-5.47151
2314.02	-1.53345
2314.25	12.0483
2314.49	4.38002
2314.72	-4.25732
2314.95	-3.21756
2315.19	2.6519
2315.42	-15.6964
2315.66	-16.7151
2315.89	3.54274
2316.12	-0.368134
2316.36	5.37431
2316.59	-5.36751
2316.82	12.9225
2317.06	-1.5943
2317.29	2.261
2317.52	-3.52446
2317.76	6.14111
2317.99	-8.29506
2318.23	5.26282
2318.46	9.05246
2318.69	7.08299
2318.93	4.1555
2319.16	7.98116
2319.39	-4.6053
2319.63	5.01282
2319.86	11.7415
2320.09	6.89777
2320.33	-4.68404
2320.56	0.142593
2320.79	12.6818
2321.03	-0.811859
2321.26	3.07541
2321.5	8.89809
2321.73	12.796
2321.96	5.1127
2322.2	2.26952
2322.43	2.32935
2322.66	2.37859
2322.9	10.1288
2323.13	9.14775
2323.36	-0.514587
2323.6	7.23032
2323.83	7.2379
2324.06	1.44579
2324.3	4.34813
2324.53	-3.40161
2324.76	6.25299
2325	12.9632
2325.23	6.12604
2325.46	13.774
2325.7	5.99097
2325.93	27.1879
2326.16	5.89671
2326.4	12.6043
2326.63	29.9227
2326.86	29.8658
2327.09	40.4198
2327.33	37.4669
2327.56	47.0482
2327.79	50.8606
2328.03	57.5584
2328.26	52.703
2328.49	38.2509
2328.73	31.4986
2328.96	34.3889
2329.19	22.7696
2329.43	17.9006
2329.66	8.20134
2329.89	5.28407
2330.13	13.9351
2330.36	13.9558
2330.59	10.0796
2330.82	6.20123
2331.06	1.35825
2331.29	15.7876
2331.52	0.384964
2331.76	-1.52013
2331.99	10.0653
2332.22	8.18082
2332.46	-0.556656
2332.69	7.09932
2332.92	-4.49709
2333.16	-0.682358
2333.39	-2.64453
2333.62	-5.56755
2333.85	-10.4122
2334.09	3.03435
2334.32	4.92024
2334.55	1.02617
2334.79	6.73412
2335.02	-2.92589
2335.25	9.54475
2335.48	8.56494
2335.72	-1.07413
2335.95	-1.07735
2336.18	3.73438
2336.41	-8.78577
2336.65	4.64459
2336.88	-8.84209
2337.11	-3.09344
2337.34	-7.92041
2337.58	12.2478
2337.81	-14.6925
2338.04	6.42802
2338.28	-6.09543
2338.51	-9.00063
2338.74	8.27805
2338.97	6.3365
2339.21	-2.31937
2339.44	-9.05617
2339.67	-0.419434
2339.91	6.28896
2340.14	-6.2363
2340.37	-0.508636
2340.6	5.2081
2340.84	6.11873
2341.07	-2.58659
2341.3	10.7853
2341.53	-1.7767
2341.77	-9.54462
2342	-1.94182
2342.23	2.80164
2342.46	-15.4676
2342.7	-7.84177
2342.93	10.3351
2343.16	2.63754
2343.39	-5.05139
2343.63	1.6447
2343.86	4.49438
2344.09	10.2206
2344.32	4.45551
2344.56	7.3288
2344.79	4.44319
2345.02	-9.95958
2345.25	-4.23828
2345.49	1.47374
2345.72	2.38097
2345.95	11.8897
2346.18	2.25261
2346.41	-1.63539
2346.65	-2.62648
2346.88	0.216278
2347.11	-0.770538
2347.34	-4.63753
2347.58	4.90144
2347.81	2.00536
2348.04	-3.7542
2348.27	1.98323
2348.5	-15.2491
2348.74	5.81488
2348.97	5.79338
2349.2	2.88011
2349.43	8.56934
2349.67	-2.06979
2349.9	0.692001
2350.13	-0.388672
2350.36	-12.9546
2350.59	1.20679
2350.83	0.91748
2351.06	2.36301
2351.29	6.48036
2351.52	-0.470428
2351.75	10.2493
2351.99	-0.72348
2352.22	1.88864
2352.45	-5.7524
2352.68	8.5672
2352.91	-5.89742
2353.15	-1.33748
2353.38	-10.078
2353.61	5.19011
2353.84	-4.37994
2354.07	2.22336
2354.31	1.24803
2354.54	-1.64307
2354.77	4.0972
2355	1.26186
2355.23	-0.676895
2355.47	4.04701
2355.7	-0.762344
2355.93	6.812
2356.16	3.90178
2356.39	-0.924225
2356.63	1.83821
2356.86	-2.09489
2357.09	2.55566
2357.32	7.23944
2357.55	-5.18813
2357.79	-2.39832
2358.02	0.393799
2358.25	-5.36827
2358.48	7.88553
2358.71	2.13637
2358.94	-6.49039
2359.18	-7.49181
2359.41	-3.73746
2359.64	11.4176
2359.87	3.76089
2360.1	5.59177
2360.33	6.46321
2360.57	11.127
2360.8	-2.24213
2361.03	10.9602
2361.26	-2.40427
2361.49	-1.53981
2361.72	1.21954
2361.96	-8.3459
2362.19	4.83424
2362.42	6.63431
2362.65	4.64833
2362.88	1.724
2363.11	-9.71451
2363.34	1.57207
2363.58	-1.33606
2363.81	4.28009
2364.04	-3.35005
2364.27	-6.24995
2364.5	-16.7221
2364.73	-2.60239
2364.97	0.165253
