#Acq. time (s)=	30
#Accumulations=	2
#Range (cm-¹)=	1200...2365
#Windows=	3
#Auto scanning=	Off
#Autofocus=	Off
#Macrospot=	Off
#AutoExposure=	Off
#Spike filter=	Multiple accum.
#Delay time (s)=	2
#Binning=	1
#Readout mode=	Signal
#DeNoise=	Off
#ICS correction=	On
#Dark correction=	Off
#Inst. Process=	Off
#Detector Gain=	Best Dynamic
#Detector ADC=	50 kHz HS
#Detector temperature (°C)=	-60.09
#Instrument=	LabRAM HR Evol
#Detector=	SIN-EM FIVIS
#Objective=	x100_VIS
#Grating=	1800 (450-850nm)
#ND Filter=	100%
#Laser=	532nm_Edge
#Hole=	49.98
#Temperature=	0
#Range=	Visible
#StageXY=	75x50mm Scan+
#StageZ=	Z motor
#X (µm)=	0
#Y (µm)=	0
#Z (µm)=	-244.7
#Full time(mm:ss)=	3:22
#Project=	21_11_04
#Sample=	BU19w
#Site=	
#Title=	BU19w-E-FF11b-FI04-V_1800 (450-850nm)_532nm_Edge_100%_x100_VIS_H50um_30sX2
#Remark=	
#Date=	04.11.2021 18:47
#Acquired=	04.11.2021 18:47:44
#Base:Fit=	16.12.2021 17:39:50
#Base:Fit=	16.12.2021 17:45:36
#Base:Sub=	16.12.2021 17:45:37
1202.73	0.738043
1203.01	3.88733
1203.29	1.6434
1203.57	5.87251
1203.85	0.420357
1204.12	2.51335
1204.4	0.294662
1204.68	1.29688
1204.96	-2.00216
1205.24	-1.00208
1205.51	-1.07746
1205.79	-0.0790844
1206.07	-0.153461
1206.35	0.844349
1206.63	0.770826
1206.9	2.84334
1207.18	-1.50664
1207.46	1.6395
1207.74	-3.77633
1208.01	-3.84133
1208.29	1.44177
1208.57	-0.763006
1208.85	-1.89496
1209.13	-5.16149
1209.4	3.33284
1209.68	1.13386
1209.96	1.06893
1210.23	-6.47518
1210.51	-0.131001
1210.79	-0.194942
1211.07	-3.45966
1211.35	-0.321795
1211.62	1.74678
1211.9	-1.51305
1212.18	-0.507198
1212.46	-1.63247
1212.73	-1.69041
1213.01	3.57847
1213.29	-1.80128
1213.57	-1.85367
1213.84	-0.838198
1214.12	0.177315
1214.4	1.19267
1214.68	0.0783272
1214.95	3.22231
1215.23	-1.08562
1215.51	-0.0739193
1215.78	1.99823
1216.06	-0.187746
1216.34	1.88058
1216.62	3.95006
1216.9	1.77002
1217.17	7.02665
1217.45	-4.70737
1217.73	-2.63377
1218	0.500484
1218.28	-0.60881
1218.56	0.406946
1218.84	-1.76068
1219.11	5.62105
1219.39	0.268337
1219.67	-1.89709
1219.94	-1.938
1220.22	1.20148
1220.5	-2.0224
1220.77	-1.00723
1221.05	3.1897
1221.33	4.20253
1221.61	-2.20567
1221.88	-6.49223
1222.16	2.98603
1222.44	2.93182
1222.72	0.765312
1222.99	2.8277
1223.27	-1.44616
1223.55	-2.54976
1223.82	3.74244
1224.1	0.53299
1224.38	3.65877
1224.65	4.67699
1224.93	1.47635
1225.21	1.44662
1225.49	1.41564
1225.76	-1.78501
1226.04	2.40271
1226.32	1.30959
1226.59	3.38213
1226.87	3.33804
1227.15	5.38955
1227.42	5.33113
1227.7	0.0153008
1227.98	-1.09082
1228.25	2.00812
1228.53	3.01699
1228.81	-2.22942
1229.08	6.24029
1229.36	4.11102
1229.64	-0.166107
1229.91	6.10798
1230.19	1.86428
1230.47	2.88147
1230.74	3.85446
1231.02	3.8069
1231.3	1.6796
1231.57	2.70267
1231.85	3.72339
1232.13	5.79642
1232.4	1.56641
1232.68	6.79025
1232.96	2.56075
1233.23	7.78864
1233.51	4.61497
1233.79	2.4921
1234.06	1.42093
1234.34	4.55531
1234.62	-0.720413
1234.89	-2.8439
1235.17	1.34128
1235.45	-0.781076
1235.72	1.30025
1236	-0.827688
1236.27	2.29957
1236.55	4.37441
1236.83	0.139616
1237.1	3.2587
1237.38	-3.07371
1237.66	2.14399
1237.93	2.11162
1238.21	1.03201
1238.49	-0.0425167
1238.76	2.03036
1239.04	-1.13761
1239.31	-0.110767
1239.59	3.01378
1239.87	1.94647
1240.14	-3.31224
1240.42	-2.2808
1240.7	-1.2485
1240.97	-1.26612
1241.25	0.807287
1241.52	-1.31023
1241.8	2.86323
1242.08	-2.39012
1242.35	-2.40481
1242.63	-1.36647
1242.91	0.715311
1243.18	-2.44613
1243.46	1.73368
1243.74	-3.52154
1244.01	0.655203
1244.29	-1.45789
1244.56	-1.47646
1244.84	-0.450304
1245.11	0.575237
1245.39	-2.59132
1245.67	1.57631
1245.94	-2.62588
1246.22	0.500071
1246.49	2.58168
1246.77	0.473961
1247.05	-0.586727
1247.32	0.446808
1247.6	-3.75745
1247.87	-0.640007
1248.15	1.43814
1248.43	5.61105
1248.7	4.55737
1248.98	3.50113
1249.25	-1.74084
1249.53	4.52436
1249.8	-5.94657
1250.08	-0.734964
1250.36	-0.751535
1250.63	-4.94703
1250.91	2.35341
1251.18	1.29433
1251.46	3.36913
1251.74	0.221659
1252.01	1.25194
1252.29	1.23777
1252.56	-0.863697
1252.84	1.21179
1253.11	0.159777
1253.39	-1.93158
1253.66	2.24185
1253.94	-1.93408
1254.22	1.19596
1254.49	0.14662
1254.77	3.27473
1255.04	-1.95136
1255.32	2.21897
1255.59	-0.918989
1255.87	4.29914
1256.14	0.120689
1256.42	4.29671
1256.7	3.24714
1256.97	4.2831
1257.25	12.6293
1257.52	9.48909
1257.8	9.48186
1258.07	8.43064
1258.35	6.33073
1258.62	8.41058
1258.9	2.14808
1259.18	5.27848
1259.45	1.11532
1259.73	7.37502
1260	7.36436
1260.28	8.39212
1260.55	7.33534
1260.83	12.5417
1261.1	8.36262
1261.38	18.8243
1261.65	14.6966
1261.93	21.0511
1262.2	19.9289
1262.48	35.5208
1262.75	32.3109
1263.03	29.2359
1263.31	24.0634
1263.58	31.4174
1263.85	34.6362
1264.13	25.1789
1264.41	17.8409
1264.68	10.5229
1264.96	14.7064
1265.23	9.4698
1265.51	13.6483
1265.78	7.38182
1266.06	6.3421
1266.33	5.30439
1266.61	5.3134
1266.88	5.32419
1267.16	12.658
1267.43	5.34888
1267.71	2.22436
1267.98	5.38412
1268.26	5.39425
1268.53	4.35519
1268.81	6.45844
1269.08	7.51097
1269.36	6.45877
1269.63	5.40444
1269.91	9.58595
1270.18	6.44022
1270.46	6.43559
1270.73	9.57448
1271.01	7.48169
1271.28	7.48409
1271.56	8.54132
1271.83	6.46219
1272.1	8.57331
1272.38	7.54279
1272.65	7.55693
1272.93	8.61981
1273.2	5.48986
1273.48	7.60149
1273.75	9.7122
1274.03	8.67219
1274.3	9.72614
1274.58	7.63297
1274.85	7.64091
1275.13	4.50459
1275.4	11.8614
1275.68	5.57914
1275.95	10.8414
1276.22	6.65541
1276.5	8.76781
1276.78	7.73185
1277.05	9.84877
1277.32	9.86513
1277.6	7.77826
1277.87	3.5871
1278.15	13.0667
1278.42	9.92727
1278.7	15.2015
1278.97	17.3136
1279.24	18.3696
1279.52	16.2679
1279.79	16.2718
1280.07	32.0577
1280.34	31.018
1280.62	46.8181
1280.89	52.1123
1281.17	72.1375
1281.44	103.724
1281.71	139.529
1281.99	210.102
1282.26	281.684
1282.54	353.167
1282.81	487.436
1283.09	592.22
1283.36	638.473
1283.63	540.579
1283.91	373.466
1284.18	248.294
1284.46	145.08
1284.73	101.826
1285.01	60.7099
1285.28	55.4435
1285.55	30.2002
1285.83	29.1662
1286.1	26.0015
1286.38	20.7458
1286.65	14.4372
1286.93	15.4949
1287.2	8.12868
1287.47	11.29
1287.75	8.14175
1288.02	9.2055
1288.3	9.21725
1288.57	11.3378
1288.84	9.25056
1289.12	8.21527
1289.39	6.12743
1289.67	8.25273
1289.94	5.10724
1290.21	3.0071
1290.49	5.12204
1290.76	5.13236
1291.04	4.09018
1291.31	3.04759
1291.58	0.951384
1291.86	5.17764
1292.13	-0.0759258
1292.4	5.19748
1292.68	-0.0565872
1292.95	6.28024
1293.23	4.20094
1293.5	2.11778
1293.77	4.2498
1294.05	-1.01239
1294.32	3.21795
1294.59	-0.988434
1294.87	4.3091
1295.14	2.22742
1295.42	4.37261
1295.69	4.40633
1295.96	1.2549
1296.24	0.211468
1296.51	-0.83386
1296.79	2.34448
1297.06	2.35113
1297.33	2.35694
1297.61	0.249655
1297.88	-0.796103
1298.15	3.44365
1298.43	1.3395
1298.7	2.40365
1298.97	0.30092
1299.25	5.58918
1299.52	4.55029
1299.79	2.4573
1300.07	2.47242
1300.34	3.5413
1300.61	-0.670027
1300.89	1.45553
1301.16	-1.6951
1301.44	5.71629
1301.71	1.50902
1301.98	0.468035
1302.26	2.59468
1302.53	-1.61803
1302.8	4.7305
1303.08	0.515154
1303.35	-0.529766
1303.62	2.65212
1303.9	3.7225
1304.17	-3.6551
1304.44	1.63638
1304.72	0.590113
1304.99	1.65372
1305.26	-2.55997
1305.54	0.613047
1305.81	0.620834
1306.08	-1.47802
1306.36	-1.46463
1306.63	-0.393805
1306.9	-0.377623
1307.18	2.80117
1307.45	0.70578
1307.72	-0.332788
1307.99	0.735617
1308.27	1.80534
1308.54	-1.34056
1308.81	1.84335
1309.09	-3.41305
1309.36	1.88171
1309.63	0.841768
1309.91	-1.2557
1310.18	0.86912
1310.45	-0.170288
1310.73	0.901739
1311	1.97362
1311.27	-1.17614
1311.54	2.01025
1311.82	0.974922
1312.09	3.10498
1312.36	-0.046524
1312.64	-1.09159
1312.91	-0.0230923
1313.18	-4.23179
1313.45	1.05906
1313.73	0.0179996
1314	-1.02114
1314.27	-5.22598
1314.55	-4.15192
1314.82	-2.0216
1315.09	1.16535
1315.36	1.18484
1315.64	-1.96703
1315.91	0.159163
1316.18	-2.99507
1316.46	2.30014
1316.73	0.203266
1317	-0.834906
1317.28	-1.87198
1317.55	-1.85422
1317.82	2.38851
1318.09	-2.87695
1318.37	1.36499
1318.64	0.323856
1318.91	3.50788
1319.18	0.35342
1319.46	-0.68639
1319.73	3.55626
1320	2.51499
1320.27	1.47123
1320.55	-1.68692
1320.82	0.433775
1321.09	0.44079
1321.36	1.50559
1321.64	3.624
1321.91	2.57912
1322.18	-0.573128
1322.45	-1.61548
1322.73	1.55797
1323	2.62905
1323.27	-1.57045
1323.54	0.555393
1323.82	0.570782
1324.09	-0.467125
1324.36	0.602327
1324.63	-3.59724
1324.91	-0.421373
1325.18	-1.46989
1325.45	-0.413609
1325.72	-0.418304
1325.99	0.638205
1326.27	1.70082
1326.54	-0.3832
1326.81	0.704235
1327.08	-1.37402
1327.36	-0.294983
1327.63	-2.37632
1327.9	5.03163
1328.17	-2.32444
1328.45	-2.30161
1328.72	-3.34537
1328.99	-3.32598
1329.26	-0.144947
1329.53	5.14441
1329.81	-1.17209
1330.08	-4.32419
1330.35	3.06833
1330.62	2.02193
1330.9	-1.13333
1331.17	0.97731
1331.44	0.98217
1331.71	2.04319
1331.98	-0.0538368
1332.26	-0.0466366
1332.53	2.06262
1332.8	-1.0849
1333.07	-1.07708
1333.34	5.23551
1333.62	2.09126
1333.89	1.04951
1334.16	1.05838
1334.43	-1.031
1334.7	-1.01979
1334.98	0.0404434
1335.25	0.0517082
1335.52	-0.985571
1335.79	-0.973589
1336.06	-2.00953
1336.34	1.14865
1336.61	2.21027
1336.88	0.127504
1337.15	-0.906855
1337.42	-1.94294
1337.69	-0.886803
1337.96	0.172659
1338.24	2.27952
1338.51	-1.8976
1338.78	-0.835608
1339.05	3.36909
1339.32	5.48151
1339.6	2.35735
1339.87	-2.86209
1340.14	2.39168
1340.41	-2.82843
1340.68	-2.81333
1340.95	4.53166
1341.23	3.4977
1341.5	0.368713
1341.77	0.379505
1342.04	-1.70415
1342.31	2.48983
1342.58	0.407942
1342.86	2.51336
1343.13	1.482
1343.4	-0.594103
1343.67	-0.577911
1343.94	2.57603
1344.21	-0.546812
1344.48	4.69386
1344.76	-0.523811
1345.03	0.530045
1345.3	1.58279
1345.57	-0.4986
1345.84	-2.58236
1346.11	-2.57663
1346.39	3.69246
1346.66	0.569714
1346.93	2.66304
1347.2	-1.49792
1347.47	0.598928
1347.74	1.65419
1348.01	-0.416609
1348.28	-0.403946
1348.55	0.649084
1348.83	4.82639
1349.1	2.75315
1349.37	-0.360426
1349.64	1.73285
1349.91	0.702536
1350.18	2.79366
1350.45	-2.40037
1350.73	3.85197
1351	4.90093
1351.27	5.9517
1351.54	1.80657
1351.81	2.86382
1352.08	0.804369
1352.35	3.9487
1352.62	-0.192427
1352.89	2.96196
1353.17	5.09153
1353.44	0.931795
1353.71	2.99203
1353.98	2.96974
1354.25	-1.17891
1354.52	0.918056
1354.79	5.08393
1355.06	-0.105839
1355.33	-0.085783
1355.6	5.13677
1355.88	6.18119
1356.15	6.19306
1356.42	2.05086
1356.69	2.06364
1356.96	3.11398
1357.23	0.0100021
1357.5	-1.0173
1357.77	0.0312481
1358.04	4.19263
1358.31	0.0522442
1358.58	1.09885
1358.86	2.14678
1359.13	2.15817
1359.4	2.16833
1359.67	3.21071
1359.94	6.32639
1360.21	3.22528
1360.48	8.41625
1360.75	4.28652
1361.02	4.30103
1361.29	4.31414
1361.56	10.5406
1361.83	5.37282
1362.1	6.42018
1362.37	6.43256
1362.65	8.51889
1362.92	6.46688
1363.19	7.52285
1363.46	6.50532
1363.73	7.55821
1364	11.714
1364.27	13.7969
1364.54	6.55651
1364.81	10.7058
1365.08	12.7821
1365.35	9.68292
1365.62	8.65479
1365.89	4.5235
1366.16	4.52994
1366.43	6.60222
1366.7	12.8098
1366.97	8.68623
1367.24	7.66774
1367.52	11.8208
1367.79	8.73626
1368.06	13.9214
1368.33	25.31
1368.6	34.6329
1368.87	33.6177
1369.14	19.1548
1369.41	8.82513
1369.68	10.9028
1369.95	11.9432
1370.22	8.85008
1370.49	9.89196
1370.76	6.79879
1371.03	14.0306
1371.3	10.9333
1371.57	12.9966
1371.84	16.0908
1372.11	10.9367
1372.38	8.88109
1372.65	7.85906
1372.92	14.0523
1373.19	12.0005
1373.46	10.9804
1373.73	19.234
1374	16.1539
1374.27	11.0135
1374.54	19.2638
1374.81	20.3062
1375.08	17.2337
1375.35	13.1277
1375.62	16.2334
1375.89	21.3915
1376.16	16.2443
1376.43	15.216
1376.7	22.4161
1376.97	22.4261
1377.24	26.566
1377.51	23.5082
1377.78	26.6336
1378.05	20.4925
1378.32	23.6127
1378.59	22.5968
1378.86	29.8215
1379.13	26.7349
1379.4	33.9533
1379.67	34.9792
1379.94	32.8879
1380.21	34.9273
1380.48	33.8812
1380.75	39.0423
1381.02	40.0765
1381.29	35.9512
1381.56	44.1536
1381.83	40.0269
1382.1	49.2561
1382.37	48.2124
1382.64	41.0223
1382.91	45.1161
1383.18	54.3444
1383.45	47.1645
1383.72	51.2778
1383.99	63.5974
1384.26	74.904
1384.53	88.2696
1384.8	106.8
1385.07	130.454
1385.34	189.031
1385.61	276.338
1385.87	431.497
1386.14	676.027
1386.41	1110.57
1386.68	1430.91
1386.95	1275.43
1387.22	805.429
1387.49	426.17
1387.76	248.609
1388.03	147.686
1388.3	103.816
1388.57	78.3062
1388.84	62.909
1389.11	49.5977
1389.38	40.3562
1389.65	33.1464
1389.92	33.1022
1390.19	25.958
1390.46	26.965
1390.73	20.8195
1390.99	23.9053
1391.26	21.8581
1391.53	15.7113
1391.8	18.7853
1392.07	10.5973
1392.34	12.6514
1392.61	20.8478
1392.88	11.6424
1393.15	15.7444
1393.42	14.7291
1393.69	12.6909
1393.96	18.8395
1394.23	12.7093
1394.5	13.7445
1394.76	9.6694
1395.03	10.7089
1395.3	12.7705
1395.57	13.8052
1395.84	14.8374
1396.11	11.774
1396.38	11.7804
1396.65	11.7861
1396.92	12.8129
1397.19	9.7504
1397.46	5.66866
1397.73	8.74929
1397.99	12.8552
1398.26	9.80052
1398.53	6.74408
1398.8	8.80497
1399.07	8.82046
1399.34	7.81109
1399.61	12.9405
1399.88	6.81243
1400.14	9.90092
1400.41	8.89367
1400.68	7.88117
1400.95	9.94155
1401.22	13.0262
1401.49	6.89802
1401.76	11.0224
1402.03	11.0539
1402.3	6.9786
1402.57	11.1057
1402.83	10.0974
1403.1	12.1634
1403.37	12.1697
1403.64	6.0074
1403.91	7.0401
1404.18	10.1283
1404.45	12.1866
1404.72	12.1912
1404.99	16.2969
1405.25	15.2744
1405.52	13.2275
1405.79	18.3581
1406.06	19.389
1406.33	18.3742
1406.6	27.6119
1406.87	32.7518
1407.13	32.7656
1407.4	44.0568
1407.67	61.5011
1407.94	62.5412
1408.21	69.7352
1408.48	62.5744
1408.75	62.5917
1409.01	43.1199
1409.28	32.8761
1409.55	27.7593
1409.82	25.7107
1410.09	16.479
1410.36	12.3754
1410.62	15.4501
1410.89	12.3779
1411.16	12.3819
1411.43	7.26568
1411.7	8.30201
1411.97	11.3927
1412.23	5.26492
1412.5	14.544
1412.77	0.208538
1413.04	4.32169
1413.31	10.4392
1413.58	9.41603
1413.84	4.3145
1414.11	6.39631
1414.38	5.37837
1414.65	10.5216
1414.92	6.42418
1415.19	4.38008
1415.45	9.52481
1415.72	4.40242
1415.99	4.41407
1416.26	7.50683
1416.53	-0.698153
1416.8	8.55914
1417.06	-1.70256
1417.33	9.61071
1417.6	5.51006
1417.87	3.46398
1418.14	3.475
1418.4	6.56604
1418.67	5.54909
1418.94	8.63879
1419.21	1.44938
1419.48	6.58903
1419.74	0.429304
1420.01	3.51393
1420.28	3.51633
1420.55	5.57216
1420.82	3.52339
1421.08	5.58447
1421.35	6.62358
1421.62	2.53672
1421.89	7.68697
1422.16	4.62731
1422.42	9.79506
1422.69	2.63373
1422.96	3.67454
1423.23	4.57405
1423.5	5.64248
1423.76	4.59862
1424.03	3.56023
1424.3	6.66548
1424.57	3.59499
1424.83	4.66463
1425.1	3.61949
1425.37	3.6467
1425.64	3.65248
1425.91	9.81217
1426.17	5.70924
1426.44	4.68427
1426.71	-0.440926
1426.98	4.68234
1427.24	3.65348
1427.51	5.70372
1427.78	0.588913
1428.05	2.64391
1428.32	2.65268
1428.58	2.66211
1428.85	3.69635
1429.12	1.65899
1429.38	2.69549
1429.65	1.6847
1429.92	0.673426
1430.19	-0.339046
1430.46	-0.322676
1430.72	0.720388
1430.99	0.733326
1431.26	5.87425
1431.53	1.77325
1431.79	5.87864
1432.06	4.85415
1432.33	-0.272484
1432.6	4.85232
1432.86	3.82348
1433.13	1.77016
1433.4	3.81757
1433.67	3.82044
1433.93	4.8562
1434.2	-1.27209
1434.47	3.85945
1434.73	-0.232016
1435	1.82397
1435.27	3.87927
1435.54	1.83524
1435.8	3.88948
1436.07	2.86957
1436.34	-1.2239
1436.6	4.92668
1436.87	3.90755
1437.14	-0.184364
1437.41	6.98899
1437.67	1.87522
1437.94	-1.18813
1438.21	2.91858
1438.48	2.92657
1438.74	0.885147
1439.01	2.94354
1439.28	6.0297
1439.54	0.918074
1439.81	4.0049
1440.08	5.03903
1440.35	1.96999
1440.61	4.02825
1440.88	0.957552
1441.15	0.960655
1441.41	4.03962
1441.68	7.12438
1441.95	2.0062
1442.21	2.0158
1442.48	2.02192
1442.75	2.02417
1443.02	2.02639
1443.28	4.0798
1443.55	-0.0162811
1443.82	3.06544
1444.08	2.05143
1444.35	1.03811
1444.62	0.0256805
1444.88	2.08492
1445.15	-0.989233
1445.42	2.09216
1445.69	3.12163
1445.95	1.07405
1446.22	2.10357
1446.49	1.0819
1446.75	3.13633
1447.02	0.0629425
1447.28	4.16683
1447.55	3.14589
1447.82	3.15435
1448.09	3.16584
1448.35	-2.97937
1448.62	1.12921
1448.89	1.13334
1449.15	0.110653
1449.42	3.18873
1449.69	1.13931
1449.95	0.117064
1450.22	1.14564
1450.49	1.14914
1450.75	1.15256
1451.02	0.130856
1451.29	1.15852
1451.55	-1.91198
1451.82	0.141048
1452.09	-0.878279
1452.35	2.20119
1452.62	1.18419
1452.88	1.19209
1453.15	2.22321
1453.42	3.25187
1453.68	2.23044
1453.95	0.185766
1454.22	0.190964
1454.48	-0.828932
1454.75	2.24863
1455.02	2.2525
1455.28	2.26147
1455.55	2.26976
1455.81	0.22559
1456.08	2.27934
1456.35	0.231035
1456.61	4.3299
1456.88	0.234331
1457.15	4.33535
1457.41	2.28977
1457.68	-0.778574
1457.95	2.29956
1458.21	-0.767715
1458.48	1.28728
1458.74	3.34181
1459.01	1.29849
1459.28	2.32725
1459.54	-1.76767
1459.81	-2.78893
1460.08	-1.76146
1460.34	-2.78313
1460.61	-1.75698
1460.87	-0.731047
1461.14	1.31843
1461.41	0.295294
1461.67	2.34298
1461.94	0.295797
1462.2	4.38818
1462.47	-1.75116
1462.74	1.31647
1463	0.29262
1463.27	-1.75131
1463.54	-0.721222
1463.8	-1.72837
1464.07	-0.693089
1464.33	-0.680988
1464.6	3.43094
1464.86	-0.714098
1465.13	1.30954
1465.4	-0.738573
1465.66	-2.76691
1465.93	2.34435
1466.19	-1.74348
1466.46	-0.728003
1466.73	4.38201
1466.99	1.32407
1467.26	0.306229
1467.52	2.34904
1467.79	-1.72766
1468.05	3.37627
1468.32	0.319323
1468.59	-2.73845
1468.85	2.36232
1469.12	3.38238
1469.38	2.36062
1469.65	-1.71766
1469.92	-0.697849
1470.18	1.34134
1470.45	0.323929
1470.71	-0.692532
1470.98	1.34393
1471.24	3.38056
1471.51	2.36363
1471.77	-1.70675
1472.04	0.332876
1472.31	1.35424
1472.57	-1.69764
1472.84	-1.69634
1473.1	0.339724
1473.37	1.35826
1473.64	0.341946
1473.9	-1.69037
1474.17	0.349634
1474.43	1.37349
1474.7	-0.657999
1474.96	0.36322
1475.23	-3.70573
1475.49	-3.70442
1475.76	2.40183
1476.02	-0.648865
1476.29	1.38668
1476.55	-0.648369
1476.82	-0.647539
1477.09	0.371937
1477.35	-1.65911
1477.62	1.39371
1477.88	-0.640383
1478.15	1.39235
1478.41	0.375927
1478.68	-0.640564
1478.94	0.37495
1479.21	0.373674
1479.47	-0.64345
1479.74	-3.69257
1480	2.39495
1480.27	-1.66667
1480.53	2.39251
1480.8	-1.66568
1481.07	-1.66275
1481.33	1.38722
1481.6	2.4094
1481.86	-2.65771
1482.12	0.394596
1482.39	-1.63134
1482.65	-1.62669
1482.92	-1.62167
1483.19	-0.602448
1483.45	-1.61513
1483.72	0.413116
1483.98	-1.62426
1484.25	-2.65283
1484.51	0.36342
1484.78	0.348253
1485.04	1.34587
1485.31	1.37717
1485.57	0.391411
1485.84	-0.610392
1486.1	-1.63294
1486.37	1.40804
1486.63	-1.62194
1486.9	2.43119
1487.16	2.4278
1487.43	2.42655
1487.69	0.400507
1487.96	-0.613457
1488.22	-0.615623
1488.49	3.43077
1488.75	1.40642
1489.02	-0.616451
1489.28	0.396433
1489.54	-1.62467
1489.81	-0.610239
1490.07	-0.609097
1490.34	-2.6328
1490.6	-2.63398
1490.87	2.42165
1491.13	1.41188
1491.4	-0.607822
1491.66	-2.62631
1491.93	0.409412
1492.19	-0.599873
1492.46	-3.63089
1492.72	0.415554
1492.99	-0.593765
1493.25	-1.60301
1493.52	-0.589611
1493.78	-1.59679
1494.04	-1.59219
1494.31	0.432671
1494.57	2.45465
1494.84	-0.580549
1495.1	0.424875
1495.37	-0.589689
1495.63	2.43752
1495.9	1.42682
1496.16	-2.61127
1496.43	2.43494
1496.69	0.417915
1496.96	3.4484
1497.22	-0.587212
1497.48	0.423763
1497.75	-1.59208
1498.01	-0.579945
1498.28	1.44176
1498.54	-0.573364
1498.81	1.44906
1499.07	0.44408
1499.33	2.46782
1499.6	3.48129
1499.86	-1.5639
1500.13	-0.55249
1500.39	-3.57911
1500.66	-1.5587
1500.92	2.47659
1501.18	0.458334
1501.45	0.460026
1501.71	1.47087
1501.98	-0.546051
1502.24	-0.547476
1502.51	1.46707
1502.77	3.48448
1503.03	-0.551891
1503.3	-0.551029
1503.56	-2.56332
1503.83	1.47401
1504.09	1.477
1504.35	1.47891
1504.62	-2.55408
1504.88	4.50336
1505.15	1.47664
1505.41	-0.546787
1505.68	2.47539
1505.94	-0.545328
1506.2	0.463619
1506.47	1.47776
1506.73	1.48107
1507	-4.5614
1507.26	0.479858
1507.52	-0.526695
1507.79	1.48895
1508.05	-1.53144
1508.32	0.486973
1508.58	1.49752
1508.84	-3.5385
1509.11	0.493721
1509.37	1.50455
1509.63	0.504177
1509.9	-1.51327
1510.16	0.500505
1510.43	-0.509562
1510.69	1.50159
1510.95	0.489346
1511.22	1.48642
1511.48	-1.54128
1511.75	1.46692
1512.01	0.452333
1512.27	-0.556002
1512.54	-0.558882
1512.8	0.442757
1513.07	1.44528
1513.33	-0.559221
1513.59	1.46226
1513.86	-2.54858
1514.12	1.47001
1514.38	-0.540327
1514.65	-0.544682
1514.91	1.46044
1515.17	0.452112
1515.44	3.45709
1515.7	-1.56248
1515.96	1.44587
1516.23	0.443457
1516.49	0.44388
1516.76	2.45028
1517.02	1.44987
1517.28	1.45308
1517.55	-0.546879
1517.81	0.460569
1518.07	0.46409
1518.34	0.46771
1518.6	1.47471
1518.86	-0.527643
1519.13	2.48568
1519.39	-2.52846
1519.65	-2.52756
1519.92	1.48565
1520.18	1.48794
1520.44	0.488777
1520.71	-0.5103
1520.97	1.49985
1521.23	0.498369
1521.5	-0.504389
1521.76	0.498764
1522.02	0.498291
1522.29	1.50094
1522.55	-1.5088
1522.81	3.50138
1523.08	2.49219
1523.34	-1.52123
1523.6	-0.522131
1523.87	2.48056
1524.13	0.475924
1524.39	-0.523205
1524.66	2.48485
1524.92	-2.51952
1525.18	1.49096
1525.45	0.495293
1525.71	2.50665
1525.97	1.51214
1526.24	1.5173
1526.5	-0.48494
1526.76	0.517349
1527.02	0.517361
1527.29	1.51987
1527.55	-1.48608
1527.81	-1.48613
1528.08	0.517347
1528.34	1.519
1528.6	-1.48546
1528.87	-0.482306
1529.13	2.52363
1529.39	-0.481834
1529.65	1.52107
1529.92	-1.4802
1530.18	-0.473215
1530.44	-1.4685
1530.71	-0.460861
1530.97	-3.46332
1531.23	-2.45995
1531.5	1.55024
1531.76	2.55221
1532.02	0.550968
1532.28	-0.44445
1532.55	2.57215
1532.81	-0.425972
1533.07	-0.419584
1533.34	2.59421
1533.6	-4.42522
1533.86	3.60119
1534.12	-0.410666
1534.39	0.592293
1534.65	2.59813
1534.91	0.591505
1535.17	1.58681
1535.44	2.5821
1535.7	-0.426821
1535.96	0.57021
1536.22	3.56741
1536.49	0.558241
1536.75	3.55774
1537.01	3.5541
1537.28	-1.44626
1537.54	1.55374
1537.8	-1.45064
1538.06	2.54686
1538.33	2.54579
1538.59	-0.447958
1538.85	-3.43647
1539.11	0.581974
1539.38	3.60131
1539.64	-1.39472
1539.9	0.621218
1540.16	2.63594
1540.43	1.64087
1540.69	1.63577
1540.95	0.632504
1541.21	2.63439
1541.48	-0.375635
1541.74	2.62633
1542	-1.38358
1542.26	-0.385057
1542.52	-2.38976
1542.79	3.61264
1543.05	-0.394537
1543.31	2.59954
1543.57	0.600174
1543.84	3.60345
1544.1	0.608641
1544.36	1.61803
1544.62	1.62499
1544.89	2.63704
1545.15	1.64464
1545.41	-1.35443
1545.67	-0.347494
1545.93	-0.346039
1546.2	2.66137
1546.46	0.662382
1546.72	-0.334894
1546.98	0.67259
1547.25	-3.3344
1547.51	-0.338133
1547.77	0.663162
1548.03	-0.337603
1548.29	-1.32692
1548.56	-0.335451
1548.82	-1.3575
1549.08	0.632238
1549.34	0.641588
1549.61	-0.339226
1549.87	1.70006
1550.13	2.7304
1550.39	1.76381
1550.65	-1.25878
1550.91	-1.25688
1551.18	0.752375
1551.44	-0.259542
1551.7	-0.251881
1551.96	-2.24633
1552.22	2.77692
1552.49	4.78573
1552.75	1.75652
1553.01	0.748653
1553.27	-0.253817
1553.53	2.75395
1553.79	2.74976
1554.06	4.74959
1554.32	6.74492
1554.58	1.73298
1554.84	1.73317
1555.1	1.73466
1555.37	3.74136
1555.63	-0.261335
1555.89	0.738869
1556.15	1.74208
1556.41	2.74741
1556.68	0.747791
1556.94	-1.25257
1557.2	2.75631
1557.46	-1.25052
1557.72	2.75029
1557.98	-0.256149
1558.25	-0.260984
1558.51	4.73688
1558.77	-0.269238
1559.03	2.72793
1559.29	-0.27367
1559.55	4.72342
1559.82	3.72315
1560.08	4.72278
1560.34	0.725744
1560.6	2.72606
1560.86	3.72828
1561.12	-2.26241
1561.38	-0.256357
1561.65	4.75403
1561.91	0.758043
1562.17	1.75997
1562.43	2.76052
1562.69	4.76346
1562.95	4.76456
1563.21	4.7643
1563.48	1.77189
1563.74	3.78453
1564	1.79108
1564.26	2.79477
1564.52	1.78922
1564.78	2.76025
1565.04	1.71121
1565.3	3.65499
1565.57	1.72792
1565.83	-2.21558
1566.09	1.78711
1566.35	1.77244
1566.61	3.78116
1566.87	1.80727
1567.13	4.81516
1567.39	1.80174
1567.66	2.8006
1567.92	3.80628
1568.18	1.81151
1568.44	3.81349
1568.7	4.8082
1568.96	2.80454
1569.22	2.80539
1569.48	3.80879
1569.75	6.81052
1570.01	2.81596
1570.27	2.81833
1570.53	2.82006
1570.79	0.822287
1571.05	3.81941
1571.31	-0.178722
1571.57	0.821299
1571.83	4.81721
1572.1	3.81644
1572.36	4.81342
1572.62	4.81231
1572.88	3.81253
1573.14	3.81101
1573.4	2.8145
1573.66	6.81269
1573.92	3.82634
1574.18	0.839174
1574.44	4.84269
1574.7	1.85462
1574.97	2.86147
1575.23	4.86536
1575.49	3.8675
1575.75	1.87085
1576.01	-0.126467
1576.27	3.8669
1576.53	3.86035
1576.79	2.85545
1577.05	5.84329
1577.31	1.84669
1577.57	-0.152515
1577.83	1.83935
1578.1	1.83966
1578.36	7.8234
1578.62	1.84427
1578.88	2.84391
1579.14	3.84433
1579.4	3.85028
1579.66	2.85834
1579.92	5.85372
1580.18	2.86444
1580.44	3.86217
1580.7	0.870214
1580.96	4.85743
1581.22	0.868904
1581.48	-0.129856
1581.74	4.85212
1582	1.86431
1582.26	5.84999
1582.53	7.8432
1582.79	1.86838
1583.05	6.85114
1583.31	4.85943
1583.57	1.87337
1583.83	3.86969
1584.09	5.86653
1584.35	1.88636
1584.61	3.88173
1584.87	1.89118
1585.13	2.88947
1585.39	5.87893
1585.65	2.88916
1585.91	-0.10075
1586.17	3.87923
1586.43	5.86878
1586.69	3.87833
1586.95	6.8638
1587.21	4.875
1587.47	3.88251
1587.73	2.89191
1587.99	4.88736
1588.25	5.88922
1588.51	4.90028
1588.77	5.90209
1589.03	4.91244
1589.29	7.90383
1589.55	4.91975
1589.81	4.92409
1590.07	1.94251
1590.33	2.94424
1590.59	3.94299
1590.85	5.93771
1591.12	2.95183
1591.38	5.94025
1591.64	4.94294
1591.9	5.93334
1592.16	4.93376
1592.42	6.92305
1592.68	7.91194
1592.94	5.91552
1593.2	4.91299
1593.46	4.90786
1593.72	1.92621
1593.98	5.90103
1594.24	3.91938
1594.5	7.90136
1594.76	9.89598
1595.02	4.93471
1595.28	4.92652
1595.54	4.92628
1595.8	2.94276
1596.06	5.92558
1596.32	0.963156
1596.58	1.96091
1596.84	5.93939
1597.09	4.95193
1597.35	4.9554
1597.61	5.95021
1597.87	6.94287
1598.13	5.94589
1598.39	4.94922
1598.65	4.9471
1598.91	8.9154
1599.17	2.96006
1599.43	6.92739
1599.69	3.95033
1599.95	7.916
1600.21	2.9552
1600.47	4.93388
1600.73	4.92863
1600.99	2.94198
1601.25	6.89931
1601.51	7.8863
1601.77	3.92437
1602.03	5.90188
1602.29	-2.01687
1602.55	8.86334
1602.81	2.92641
1603.07	4.90393
1603.33	4.90451
1603.59	6.88409
1603.85	5.89877
1604.11	4.91418
1604.37	3.92906
1604.63	6.89917
1604.89	4.9257
1605.14	6.90811
1605.4	9.88168
1605.66	4.94343
1605.92	9.89636
1606.18	4.9565
1606.44	4.96236
1606.7	5.95651
1606.96	1.01255
1607.22	7.93149
1607.48	8.89595
1607.74	4.94036
1608	7.96743
1608.26	10.5085
1608.52	6.95256
1608.78	5.83755
1609.04	8.77369
1609.29	8.83515
1609.55	7.93056
1609.81	4.74561
1610.07	7.6709
1610.33	2.997
1610.59	5.51834
1610.85	7.84653
1611.11	5.89877
1611.37	4.79655
1611.63	11.4621
1611.89	6.55745
1612.15	8.28501
1612.4	10.5972
1612.66	9.39001
1612.92	0.795862
1613.18	5.36134
1613.44	5.47888
1613.7	6.49641
1613.96	7.60689
1614.22	11.4794
1614.48	4.78884
1614.74	4.09434
1615	6.52353
1615.25	4.34184
1615.51	7.89347
1615.77	8.00623
1616.03	6.49662
1616.29	3.76761
1616.55	7.10603
1616.81	5.50154
1617.07	7.33535
1617.33	8.00057
1617.59	8.42974
1617.84	7.94708
1618.1	7.28097
1618.36	5.87606
1618.62	7.06561
1618.88	6.77587
1619.14	6.30578
1619.4	8.68612
1619.66	5.19647
1619.91	4.61986
1620.17	4.984
1620.43	5.15939
1620.69	6.62285
1620.95	4.93704
1621.21	8.17978
1621.47	6.82675
1621.73	6.50746
1621.98	7.9874
1622.24	5.7122
1622.5	7.05924
1622.76	7.89122
1623.02	5.7336
1623.28	5.68933
1623.54	7.48441
1623.79	4.95221
1624.05	7.24578
1624.31	5.63245
1624.57	6.39305
1624.83	6.96965
1625.09	5.66909
1625.35	4.07274
1625.6	6.90382
1625.86	7.77103
1626.12	6.24246
1626.38	6.98764
1626.64	5.7561
1626.9	5.28144
1627.16	7.99618
1627.41	6.85171
1627.67	8.0851
1627.93	7.19252
1628.19	5.71773
1628.45	8.79996
1628.71	6.99973
1628.96	5.10342
1629.22	7.32253
1629.48	7.56844
1629.74	6.27662
1630	7.09407
1630.26	7.21893
1630.51	8.17636
1630.77	8.14499
1631.03	6.3037
1631.29	7.13967
1631.3	7.17726
1631.56	8.17187
1631.82	4.23389
1632.08	13.1145
1632.34	6.23162
1632.6	9.18895
1632.86	5.23569
1633.13	9.17592
1633.39	7.21223
1633.65	5.24981
1633.91	7.22719
1634.17	5.26084
1634.43	7.23622
1634.69	9.21072
1634.96	5.27078
1635.22	9.21502
1635.48	7.24535
1635.74	12.1727
1636	7.2468
1636.26	6.26214
1636.52	6.26209
1636.79	5.2764
1637.05	10.2009
1637.31	10.2041
1637.57	6.26759
1637.83	12.1755
1638.09	8.2393
1638.35	3.32212
1638.61	6.27957
1638.87	11.2053
1639.13	8.25631
1639.4	4.3229
1639.66	7.27908
1639.92	2.36156
1640.18	5.32401
1640.44	6.31694
1640.7	7.30763
1640.96	9.27966
1641.22	9.2804
1641.48	3.37554
1641.75	6.33175
1642.01	7.31931
1642.27	9.29097
1642.53	8.30995
1642.79	7.32908
1643.05	8.31734
1643.31	2.41412
1643.57	7.33651
1643.83	8.32077
1644.09	7.3365
1644.35	5.3723
1644.62	9.31291
1644.88	6.3702
1645.14	5.39232
1645.4	6.38205
1645.66	10.32
1645.92	5.40104
1646.18	12.2891
1646.44	4.42113
1646.7	8.35802
1646.96	4.42463
1647.22	7.37715
1647.48	7.38019
1647.74	8.36912
1648.01	7.39439
1648.27	7.40413
1648.53	5.4517
1648.79	9.40408
1649.05	7.43558
1649.31	9.40599
1649.57	9.40895
1649.83	9.42055
1650.09	7.46428
1650.35	12.3986
1650.61	7.48374
1650.87	4.53618
1651.13	9.46955
1651.39	9.47442
1651.65	6.52251
1651.92	6.52783
1652.18	7.51608
1652.44	4.56087
1652.7	6.5341
1652.96	4.56792
1653.22	7.52923
1653.48	2.60943
1653.74	7.54299
1654	7.54869
1654.26	6.56942
1654.52	3.62003
1654.78	0.671453
1655.04	6.59877
1655.3	7.59944
1655.56	6.62481
1655.82	8.60792
1656.08	8.61542
1656.34	6.64731
1656.6	5.66434
1656.86	2.70568
1657.12	3.69462
1657.38	6.6579
1657.64	4.68685
1657.9	9.62227
1658.16	3.70326
1658.42	4.69065
1658.69	4.69139
1658.95	2.71988
1659.21	5.67888
1659.47	6.66365
1659.73	7.65487
1659.99	5.69102
1660.25	8.65786
1660.51	8.6676
1660.77	4.73172
1661.03	5.72845
1661.29	3.7618
1661.55	6.73241
1661.81	2.76208
1662.07	6.75784
1662.33	6.79918
1662.59	6.7896
1662.85	8.76545
1663.11	6.79922
1663.37	4.75838
1663.63	6.7672
1663.89	8.75482
1664.15	1.84841
1664.41	11.7421
1664.67	8.7956
1664.93	4.82727
1665.19	5.76701
1665.45	5.85427
1665.71	4.87949
1665.97	6.85433
1666.23	5.8657
1666.49	8.68802
1666.75	4.85456
1667.01	6.82768
1667.27	5.84004
1667.53	5.84265
1667.79	4.85574
1668.05	6.83249
1668.31	-0.061491
1668.56	5.88251
1668.83	7.86629
1669.09	4.90822
1669.35	3.92599
1669.6	6.89277
1669.86	3.93117
1670.12	4.93529
1670.38	6.92916
1670.64	4.95418
1670.9	2.97969
1671.16	2.98333
1671.42	5.95329
1671.68	4.97223
1671.94	2.01224
1672.2	4.98257
1672.46	7.95237
1672.72	5.98067
1672.98	6.97497
1673.24	5.99272
1673.5	6.98874
1673.76	3.04148
1674.02	4.03821
1674.28	5.03504
1674.54	4.05488
1674.8	5.05325
1675.06	5.06036
1675.32	5.06579
1675.58	5.07003
1675.83	4.08556
1676.1	6.07099
1676.35	4.09705
1676.61	-0.847166
1676.87	4.10497
1677.13	3.11791
1677.39	5.09842
1677.65	4.10904
1677.91	3.11933
1678.17	2.13059
1678.43	6.08697
1678.69	1.14515
1678.95	-1.81784
1679.21	5.10418
1679.47	3.12947
1679.73	2.14393
1679.98	5.11095
1680.25	6.10107
1680.5	3.13932
1680.76	3.14264
1681.02	3.14674
1681.28	5.12697
1681.54	5.13155
1681.8	1.18469
1682.06	3.16563
1682.32	3.16958
1682.58	4.16136
1682.84	1.20201
1683.1	7.13381
1683.35	2.19857
1683.61	2.20193
1683.87	2.20344
1684.13	4.18105
1684.39	5.17179
1684.65	1.2256
1684.91	8.14197
1685.17	5.18404
1685.43	4.20136
1685.69	3.21894
1685.95	5.20014
1686.2	6.19776
1686.46	4.22982
1686.72	6.2113
1686.98	2.2628
1687.24	0.289379
1687.5	-0.696062
1687.76	3.25691
1688.02	3.25908
1688.28	5.2353
1688.54	4.24716
1688.79	1.28691
1689.05	-0.685711
1689.31	3.26153
1689.57	1.28806
1689.83	5.23411
1690.09	4.25892
1690.35	1.30716
1690.6	3.28716
1690.86	1.31968
1691.12	0.339283
1691.38	1.33311
1691.64	1.33801
1691.9	3.31547
1692.16	1.34354
1692.42	0.357454
1692.68	2.3304
1692.93	4.30135
1693.19	1.34126
1693.45	3.31213
1693.71	4.29788
1693.97	2.32689
1694.23	3.31293
1694.49	6.27163
1694.74	6.27757
1695	4.31349
1695.26	1.36389
1695.52	3.34046
1695.78	5.3187
1696.04	3.3551
1696.3	2.37444
1696.55	0.406389
1696.81	5.33384
1697.07	0.407085
1697.33	3.36052
1697.59	3.3599
1697.85	3.36031
1698.11	2.37682
1698.36	0.410093
1698.62	2.38089
1698.88	1.40078
1699.14	0.422216
1699.4	2.39524
1699.66	-0.55196
1699.92	4.36922
1700.17	3.38811
1700.43	1.42417
1700.69	1.42756
1700.95	2.41398
1701.21	4.38218
1701.46	1.43212
1701.72	4.38212
1701.98	3.39901
1702.24	4.38195
1702.5	5.36721
1702.76	2.42302
1703.01	-0.521475
1703.27	1.44627
1703.53	1.44933
1703.79	1.45524
1704.05	-2.4679
1704.3	2.45086
1704.56	-0.493345
1704.82	2.45763
1705.08	1.4794
1705.34	0.501621
1705.6	2.46827
1705.85	2.46817
1706.11	0.503479
1706.37	4.42998
1706.63	-0.47929
1706.89	1.48379
1707.14	-0.479332
1707.4	4.42283
1707.66	-2.44348
1707.92	-2.44433
1708.18	1.47285
1708.43	3.42892
1708.69	1.46938
1708.95	-0.4877
1709.21	1.47313
1709.47	3.43497
1709.72	0.502974
1709.98	-0.470993
1710.24	4.42985
1710.5	2.47988
1710.76	-0.451473
1711.01	2.49288
1711.27	0.540201
1711.53	0.54537
1711.79	0.548115
1712.04	1.52678
1712.3	1.52248
1712.56	0.539608
1712.82	0.535297
1713.08	0.533092
1713.33	-0.448277
1713.59	1.50635
1713.85	2.48487
1714.11	3.46382
1714.36	4.44352
1714.62	-0.436258
1714.88	1.52391
1715.14	1.5342
1715.4	-0.415411
1715.65	3.49565
1715.91	0.566299
1716.17	1.5433
1716.43	2.51839
1716.68	3.49133
1716.94	-1.39226
1717.2	-0.421488
1717.46	2.49819
1717.71	-3.35212
1717.97	-0.431383
1718.23	1.51607
1718.49	0.54372
1718.74	-0.426338
1719	-0.42201
1719.26	2.5021
1719.52	-4.30821
1719.78	-1.38162
1720.03	-0.405165
1720.29	-0.404068
1720.55	1.54178
1720.81	-0.404875
1721.06	2.51415
1721.32	0.568316
1721.58	1.54002
1721.83	3.48305
1722.09	-1.37769
1722.35	-0.406193
1722.61	1.53667
1722.86	-0.405256
1723.12	1.53876
1723.38	1.54233
1723.64	1.54533
1723.89	-1.36459
1724.15	2.52044
1724.41	1.54866
1724.66	0.57494
1724.92	1.5416
1725.18	2.50753
1725.44	0.567268
1725.69	1.53774
1725.95	-1.36457
1726.21	3.4843
1726.46	0.578501
1726.72	-3.29812
1726.98	-0.389877
1727.24	-1.35068
1727.49	0.591011
1727.75	-0.376476
1728.01	-0.378742
1728.27	-2.33158
1728.52	-0.422306
1728.78	2.46236
1729.04	-0.42095
1729.29	1.52501
1729.55	4.4363
1729.81	-1.36435
1730.06	2.49541
1730.32	-1.36465
1730.58	3.48769
1730.83	1.56429
1731.09	0.602657
1731.35	1.57291
1731.61	1.57596
1731.86	0.611731
1732.12	-1.31862
1732.38	0.615063
1732.63	-2.28243
1732.89	0.613554
1733.15	2.54049
1733.4	-0.35957
1733.66	-1.32579
1733.92	-0.363089
1734.17	0.598757
1734.43	0.596315
1734.69	0.594015
1734.95	4.44404
1735.2	2.51743
1735.46	-0.37006
1735.72	1.55725
1735.97	-1.328
1736.23	-1.32637
1736.49	-1.32475
1736.74	-1.32334
1737	-0.359983
1737.26	0.603542
1737.51	-0.357361
1737.77	1.56548
1738.03	-0.357405
1738.28	0.603672
1738.54	-1.31855
1738.8	1.56201
1739.05	0.598396
1739.31	0.593468
1739.57	-0.370605
1739.82	1.54397
1740.08	2.49971
1740.34	-2.29386
1740.59	-1.33552
1740.85	-3.25156
1741.1	-0.37764
1741.36	-1.33464
1741.62	-1.3328
1741.88	1.54223
1742.13	1.54473
1742.39	1.54639
1742.64	0.59156
1742.9	1.55202
1743.16	-2.27405
1743.41	-1.3165
1743.67	3.46756
1743.93	-1.31478
1744.18	-1.3127
1744.44	-0.352425
1744.69	0.608147
1744.95	2.52518
1745.21	-1.29783
1745.46	3.48588
1745.72	-1.29555
1745.98	2.5276
1746.23	1.56934
1746.49	-2.25384
1746.74	-1.29929
1747	0.609812
1747.26	0.609203
1747.51	-1.29914
1747.77	1.56772
1748.03	0.617086
1748.28	-0.333054
1748.54	1.58122
1748.8	1.58716
1749.05	0.639214
1749.31	-0.308386
1749.56	-0.300447
1749.82	-1.24789
1750.08	-0.284527
1750.33	-0.278749
1750.59	-1.22913
1750.84	2.59956
1751.1	-2.17857
1751.36	1.64344
1751.61	-1.2254
1751.87	0.684187
1752.12	-1.22629
1752.38	-2.18138
1752.64	-2.18152
1752.89	0.681789
1753.15	-2.1805
1753.4	0.682404
1753.66	-0.271927
1753.92	-0.272509
1754.17	0.681395
1754.43	3.54212
1754.68	0.683434
1754.94	-1.22158
1755.2	-1.22087
1755.45	-0.268238
1755.71	1.63582
1755.96	-4.07957
1756.22	3.53486
1756.47	-3.13032
1756.73	-1.22878
1756.99	-1.22792
1757.24	-1.22664
1757.5	-2.17377
1757.75	-1.21433
1758.01	-0.257109
1758.27	1.65013
1758.52	0.702335
1758.78	-2.14866
1759.03	1.66218
1759.29	-1.18931
1759.54	1.66762
1759.8	-0.233627
1760.05	3.57366
1760.31	-0.230524
1760.57	1.67235
1760.82	0.720654
1761.08	-0.230371
1761.33	-0.229471
1761.59	-1.17805
1761.84	-3.07721
1762.1	-2.1203
1762.36	0.737665
1762.61	0.741793
1762.87	0.74403
1763.12	2.64955
1763.38	1.70347
1763.63	-3.04605
1763.89	-0.186869
1764.14	-0.175604
1764.4	0.782452
1764.66	-0.163256
1764.91	-0.158113
1765.17	-0.153427
1765.42	-1.10137
1765.68	-0.14587
1765.93	0.809008
1766.19	0.810869
1766.44	2.71617
1766.7	-1.08821
1766.95	-1.08629
1767.21	-0.133543
1767.46	1.76962
1767.72	1.77077
1767.98	-0.131283
1768.23	1.77437
1768.48	1.7702
1768.74	-1.08989
1769	-0.145536
1769.25	0.798897
1769.51	-2.04634
1769.76	0.80896
1770.02	-3.93169
1770.27	1.77205
1770.53	-1.07394
1770.78	-0.116703
1771.04	-0.106239
1771.29	2.75292
1771.55	2.75686
1771.8	4.66529
1772.06	-1.03444
1772.31	-1.02836
1772.57	-1.02299
1772.82	0.885509
1773.08	1.84249
1773.33	-2.91181
1773.59	-0.0515366
1773.84	-0.999352
1774.1	2.81286
1774.35	0.914145
1774.61	0.919119
1774.86	2.83007
1775.12	0.936159
1775.37	-0.960968
1775.63	1.90454
1775.88	2.86197
1776.14	0.00432968
1776.39	0.958393
1776.65	-0.948011
1776.9	2.86453
1777.16	-0.94718
1777.41	2.86299
1777.67	0.00463295
1777.92	0.956423
1778.18	-0.94887
1778.43	0.953152
1778.69	-0.952541
1778.94	-0.952955
1779.2	-0.9508
1779.45	0.00782204
1779.71	1.9162
1779.96	0.0170231
1780.21	-1.88222
1780.47	-0.925724
1780.73	1.93371
1780.98	0.0332909
1781.23	-1.86657
1781.49	0.0429268
1781.74	-4.71328
1782	0.0557938
1782.25	-1.84388
1782.51	0.0668068
1782.76	0.0716686
1783.02	0.0768452
1783.27	0.0821037
1783.53	-0.865875
1783.78	-2.76729
1784.04	-1.80663
1784.29	0.107025
1784.54	1.0657
1784.8	0.114548
1785.05	0.116444
1785.31	-1.7907
1785.56	1.07157
1785.82	0.120403
1786.07	-0.829531
1786.33	1.08408
1786.58	-0.817802
1786.84	2.0533
1787.09	1.10801
1787.34	-3.65505
1787.6	3.0498
1787.85	1.15351
1788.11	-0.748762
1788.36	-1.70048
1788.62	-1.69448
1788.87	-1.68518
1789.12	1.19689
1789.38	1.20211
1789.63	3.12409
1789.89	1.21273
1790.14	-0.701574
1790.4	6.96913
1790.65	-1.65767
1790.91	2.16373
1791.16	-0.708652
1791.41	-2.62363
1791.67	1.20958
1791.92	-2.61783
1792.18	-0.699366
1792.43	4.09512
1792.68	0.26762
1792.94	-0.686945
1793.19	1.23086
1793.45	-0.679796
1793.7	3.15598
1793.96	0.284361
1794.21	-0.674667
1794.46	4.12108
1794.72	1.26514
1794.97	-0.64031
1795.23	1.28703
1795.48	-1.58749
1795.73	2.25868
1795.99	3.22535
1796.24	-0.610241
1796.49	-0.604223
1796.75	-1.55938
1797	2.29028
1797.26	1.33423
1797.51	0.37746
1797.76	-1.54133
1798.02	-0.576349
1798.27	1.34945
1798.53	2.31235
1798.78	-2.49469
1799.04	-0.572224
1799.29	-0.573435
1799.54	0.386295
1799.8	2.30733
1800.05	-0.575068
1800.3	0.38604
1800.56	-1.53407
1800.81	2.30951
1801.07	-1.53043
1801.32	1.35385
1801.57	-2.48512
1801.83	-1.52079
1802.08	1.36595
1802.33	-1.51161
1802.59	1.37735
1802.84	-0.539005
1803.1	2.35122
1803.35	-0.529463
1803.6	0.435377
1803.86	-0.522316
1804.11	0.445127
1804.36	0.450792
1804.62	1.41934
1804.87	0.463707
1805.13	1.43338
1805.38	-0.48642
1805.63	0.482275
1805.89	-0.476128
1806.14	1.4557
1806.39	2.42338
1806.65	2.4263
1806.9	1.46478
1807.15	-1.42456
1807.41	-1.42242
1807.66	2.43519
1807.91	-1.41781
1808.17	-0.451452
1808.42	1.47901
1808.67	-1.4102
1808.93	2.44841
1809.18	-0.440992
1809.43	-2.36653
1809.69	-0.435766
1809.94	1.49474
1810.2	2.46
1810.45	0.532606
1810.7	-0.430002
1810.95	-2.35663
1811.21	0.53705
1811.46	-2.35314
1811.71	-2.35072
1811.97	0.545374
1812.22	0.54973
1812.47	0.554922
1812.73	0.559931
1812.98	0.562618
1813.23	2.49656
1813.49	0.572628
1813.74	2.51025
1813.99	-2.31052
1814.25	1.56085
1814.5	-2.29805
1814.75	1.57173
1815.01	2.54169
1815.26	0.611658
1815.51	0.61418
1815.77	-0.349566
1816.02	1.5862
1816.27	-0.343309
1816.53	0.623682
1816.78	1.59063
1817.03	-1.31531
1817.29	-3.2524
1817.54	-1.31882
1817.79	-0.348475
1818.04	2.55644
1818.3	-0.336403
1818.55	0.630133
1818.8	0.632975
1819.06	-2.26291
1819.31	2.57413
1819.56	-0.322746
1819.81	1.61461
1820.07	1.6189
1820.32	-0.311413
1820.57	-0.308292
1820.83	1.6303
1821.08	1.63505
1821.33	-1.26344
1821.58	-1.25985
1821.84	1.64695
1822.09	-2.22193
1822.34	2.62053
1822.6	3.59122
1822.85	-5.12002
1823.1	-0.279675
1823.35	0.687937
1823.61	-1.2474
1823.86	0.691172
1824.11	1.66238
1824.37	-0.270714
1824.62	-1.23577
1824.87	-3.16917
1825.12	0.70714
1825.38	-1.22785
1825.63	-0.258083
1825.88	2.64885
1826.14	-2.19156
1826.39	-0.252819
1826.64	-1.21909
1826.89	0.721189
1827.15	-1.21297
1827.4	2.66569
1827.65	-2.17697
1827.9	1.69914
1828.16	-2.17638
1828.41	2.66596
1828.66	-4.11498
1828.91	-0.24025
1829.17	0.728886
1829.42	-0.239357
1829.67	2.66506
1829.92	0.72727
1830.18	-3.14598
1830.43	0.727278
1830.68	5.5715
1830.93	-1.2025
1831.19	0.738026
1831.44	-4.10139
1831.69	0.745312
1831.94	-0.219759
1832.2	0.753887
1832.45	2.69664
1832.7	0.760096
1832.95	-2.14638
1833.2	-0.205191
1833.46	-2.1418
1833.71	1.73823
1833.96	0.766451
1834.21	2.69582
1834.47	2.68611
1834.72	2.67756
1834.97	-0.23107
1835.22	-0.234823
1835.47	-1.20232
1835.73	0.730139
1835.98	1.76034
1836.23	-1.13102
1836.48	0.785196
1836.74	1.74323
1836.99	4.63746
1837.24	-2.15202
1837.49	-1.19887
1837.75	-1.21014
1838	-0.246424
1838.25	1.71332
1838.5	1.73424
1838.75	-2.13218
1839.01	2.71654
1839.26	-0.187023
1839.51	0.787342
1839.76	2.71249
1840.01	2.697
1840.26	0.750782
1840.52	-0.224998
1840.77	-1.19905
1841.02	1.69192
1841.27	-0.246387
1841.53	-3.14766
1841.78	-0.257496
1842.03	-0.262602
1842.28	1.66895
1842.53	0.704416
1842.79	0.706608
1843.04	0.707649
1843.29	-2.18548
1843.54	0.707571
1843.79	-3.15017
1844.04	0.710682
1844.3	-1.21709
1844.55	-0.254045
1844.8	0.711336
1845.05	-2.18129
1845.3	-0.245193
1845.56	-0.236536
1845.81	-0.228603
1846.06	-0.215967
1846.31	0.744473
1846.56	1.68558
1846.81	-0.273455
1847.06	0.680391
1847.32	-1.24492
1847.57	-1.23672
1847.82	1.66324
1848.07	2.61902
1848.32	1.65041
1848.58	-0.274439
1848.83	-1.23941
1849.08	-1.24341
1849.33	2.6004
1849.58	-1.25226
1849.83	-1.25816
1850.08	0.659861
1850.34	-1.2665
1850.59	-1.26959
1850.84	-2.23283
1851.09	0.646524
1851.34	1.60532
1851.59	-2.23613
1851.85	0.644932
1852.1	2.56604
1852.35	-1.27434
1852.6	0.646299
1852.85	-0.314434
1853.1	-4.15589
1853.36	-0.318287
1853.61	-1.28216
1853.86	-0.327728
1854.11	1.58542
1854.36	-2.25302
1854.61	0.621666
1854.86	0.617146
1855.11	-0.346977
1855.37	-0.350359
1855.62	1.56425
1855.87	1.56348
1856.12	-1.30958
1856.37	-0.351257
1856.62	0.606268
1856.87	-1.31015
1857.13	0.60347
1857.38	0.601681
1857.63	1.55667
1857.88	-1.3182
1858.13	-0.364656
1858.38	1.54504
1858.63	0.584236
1858.88	-3.24513
1859.14	-0.379574
1859.39	2.48802
1859.64	1.53271
1859.89	2.48988
1860.14	2.49383
1860.39	-0.371071
1860.64	-1.32474
1860.89	-0.36458
1861.14	0.595772
1861.39	0.597502
1861.64	1.55413
1861.9	-2.27547
1862.15	-2.27844
1862.4	-0.369072
1862.65	1.53935
1862.9	0.579132
1863.15	2.48682
1863.4	-0.38364
1863.65	1.52415
1863.9	-1.34468
1864.16	1.51775
1864.41	0.559219
1864.66	0.554848
1864.91	1.50398
1865.16	-1.36433
1865.41	-0.416679
1865.66	3.3893
1865.91	1.47459
1866.16	-0.438362
1866.41	-0.445557
1866.66	1.45073
1866.92	2.39469
1867.17	-0.464552
1867.42	-0.467777
1867.67	-0.469666
1867.92	-0.470839
1868.17	1.43066
1868.42	0.481163
1868.67	-0.469244
1868.92	1.4314
1869.17	4.28219
1869.42	3.33047
1869.67	1.4285
1869.92	2.37813
1870.17	2.37742
1870.42	0.476204
1870.68	3.3272
1870.93	-1.4256
1871.18	2.37363
1871.43	-0.47979
1871.68	0.46789
1871.93	0.466146
1872.18	0.463156
1872.43	0.459444
1872.68	-3.34075
1872.93	1.405
1873.18	2.35301
1873.43	-0.496998
1873.68	-1.44908
1873.93	0.444836
1874.18	1.38886
1874.43	2.33219
1874.68	-0.517376
1874.93	-1.47002
1875.18	1.36659
1875.44	1.35648
1875.69	2.29503
1875.94	4.18128
1876.19	-0.554472
1876.44	0.388601
1876.69	1.32613
1876.94	-0.575338
1877.19	-1.53754
1877.44	2.24683
1877.69	1.36433
1877.94	3.25063
1878.19	0.395279
1878.44	-0.553385
1878.69	-0.540134
1878.94	0.417377
1879.19	0.41399
1879.44	2.30179
1879.69	0.40621
1879.94	-2.43519
1880.19	1.35514
1880.44	-1.48801
1880.69	0.40386
1880.94	0.397333
1881.19	-0.557693
1881.44	-0.566593
1881.69	1.31394
1881.94	-0.586142
1882.19	2.23314
1882.44	-3.43477
1882.69	-0.616007
1882.94	-3.36552
1883.19	-1.51037
1883.44	3.15401
1883.69	-0.623663
1883.94	0.328344
1884.19	1.26445
1884.44	-1.5598
1884.69	-0.6084
1884.94	-1.54844
1885.19	0.340803
1885.44	-2.4834
1885.69	0.353668
1885.94	0.356678
1886.19	1.29987
1886.44	1.29239
1886.69	0.343517
1886.94	-1.54812
1887.19	-2.49571
1887.44	4.10202
1887.69	-0.618641
1887.94	-2.51059
1888.19	-2.51636
1888.44	-1.57959
1888.69	0.297874
1888.94	0.293982
1889.19	1.23466
1889.44	1.23311
1889.69	1.23424
1889.94	1.23825
1890.19	-1.58236
1890.44	-1.58115
1890.69	1.24398
1890.94	-0.641968
1891.19	-0.642355
1891.44	1.23973
1891.69	0.296568
1891.94	-0.645609
1892.19	0.293268
1892.44	2.17217
1892.69	0.283468
1892.94	0.272869
1893.19	2.1431
1893.43	3.07764
1893.69	1.2035
1893.93	-3.50303
1894.18	-2.56661
1894.43	2.12878
1894.68	3.06839
1894.93	0.250998
1895.18	-0.68705
1895.43	-0.685299
1895.68	1.19636
1895.93	0.259058
1896.18	1.2026
1896.43	0.265406
1896.68	-0.67288
1896.93	-1.61201
1897.18	-0.670763
1897.43	-1.61166
1897.68	-2.55348
1897.93	1.20663
1898.17	-3.49877
1898.42	2.13871
1898.67	0.253201
1898.92	2.12845
1899.17	4.00522
1899.42	-2.57436
1899.67	1.18056
1899.92	0.240044
1900.17	-0.699327
1900.42	-1.63748
1900.67	-1.63531
1900.92	-0.692276
1901.17	1.19068
1901.42	3.07475
1901.67	2.13863
1901.91	-1.61917
1902.16	0.262486
1902.41	0.26053
1902.66	2.13945
1902.91	1.19613
1903.16	3.07459
1903.41	1.19226
1903.66	-0.68952
1903.91	-0.69046
1904.16	-0.69141
1904.41	-1.63281
1904.66	1.1862
1904.9	1.18556
1905.15	4.0044
1905.4	4.93902
1905.65	4.92937
1905.9	1.1684
1906.15	-1.65193
1906.4	0.224091
1906.65	-0.716755
1906.9	0.221653
1907.15	0.222507
1907.39	0.223866
1907.64	0.227295
1907.89	-0.71085
1908.14	-0.710354
1908.39	0.230509
1908.64	-0.706886
1908.89	-2.58384
1909.14	2.12054
1909.39	1.18561
1909.63	0.250729
1909.88	-0.684422
1910.13	3.08657
1910.38	-3.50044
1910.63	1.21071
1910.88	2.15431
1911.13	1.21293
1911.38	1.21244
1911.62	-0.672935
1911.87	2.15078
1912.12	0.26614
1912.37	-0.676256
1912.62	0.265213
1912.87	1.20711
1913.12	1.20912
1913.37	-0.670628
1913.61	-0.66543
1913.86	0.281334
1914.11	-2.54444
1914.36	0.288193
1914.61	0.291441
1914.86	-0.649706
1915.11	4.0693
1915.36	-0.649548
1915.6	1.23577
1915.85	-1.59651
1916.1	-1.5988
1916.35	1.22672
1916.6	0.279665
1916.85	1.21931
1917.1	-1.61173
1917.34	0.272131
1917.59	1.21453
1917.84	0.273582
1918.09	3.10621
1918.34	-3.49188
1918.59	1.22998
1918.84	1.23571
1919.08	2.18718
1919.33	-2.52879
1919.58	2.19838
1919.83	0.309435
1920.08	-2.52725
1920.32	-0.637957
1920.57	-1.57926
1920.82	1.26076
1921.07	1.26374
1921.32	-1.57117
1921.57	0.321606
1921.82	0.321344
1922.06	1.26533
1922.31	-0.629116
1922.56	1.25862
1922.81	-0.634611
1923.06	4.08983
1923.3	-0.638655
1923.55	0.303593
1923.8	-0.645088
1924.05	0.296755
1924.3	-3.48365
1924.55	-0.649469
1924.79	0.296923
1925.04	-1.59007
1925.29	3.14097
1925.54	0.309767
1925.79	-0.631809
1926.03	1.26475
1926.28	2.21667
1926.53	1.27421
1926.78	0.329947
1927.03	2.22594
1927.27	-3.45442
1927.52	0.335558
1927.77	1.28438
1928.02	-2.50415
1928.27	2.23466
1928.52	-0.60602
1928.76	4.13504
1929.01	0.347307
1929.26	0.35231
1929.51	-0.591738
1929.75	2.25933
1930	-0.583122
1930.25	-1.5284
1930.5	-2.47644
1930.75	0.371861
1930.99	-0.579149
1931.24	3.2153
1931.49	-2.48312
1931.74	2.25937
1931.99	-2.48857
1932.23	-1.54275
1932.48	2.25045
1932.73	-2.49544
1932.98	-2.49563
1933.22	-1.54333
1933.47	3.21037
1933.72	-0.576357
1933.97	-1.51266
1934.22	0.404398
1934.46	2.32253
1934.71	1.3822
1934.96	1.39169
1935.21	0.444485
1935.45	-0.518433
1935.7	-1.47607
1935.95	-2.43049
1936.2	0.42585
1936.45	-0.531031
1936.69	-2.44079
1936.94	-1.49244
1937.19	0.407742
1937.44	0.403713
1937.68	3.25468
1937.93	5.15665
1938.18	1.35494
1938.43	-0.546616
1938.67	2.31221
1938.92	1.36264
1939.17	1.3648
1939.42	1.36737
1939.66	0.415285
1939.91	0.418554
1940.16	3.28244
1940.41	1.38696
1940.65	-1.46766
1940.9	3.3043
1941.15	1.39293
1941.4	-1.47555
1941.64	1.37467
1941.89	1.37791
1942.14	-1.46774
1942.39	1.40252
1942.63	-0.506586
1942.88	-0.512983
1943.13	1.38679
1943.37	-3.38981
1943.62	1.38785
1943.87	0.438726
1944.12	-1.46749
1944.36	0.4457
1944.61	2.36015
1944.86	0.453856
1945.1	-1.45345
1945.35	0.461615
1945.6	-0.491375
1945.85	-0.489107
1946.09	-0.487541
1946.34	0.469584
1946.59	0.468916
1946.83	5.24874
1947.08	-1.44796
1947.33	0.463348
1947.58	1.41887
1947.82	-0.494249
1948.07	0.460169
1948.32	1.41635
1948.57	-0.4937
1948.81	1.42242
1949.06	-0.487436
1949.31	-0.483568
1949.55	2.3923
1949.8	-2.38816
1950.05	1.45079
1950.3	1.45763
1950.54	-0.452927
1950.79	3.39065
1951.04	-0.439766
1951.28	1.48512
1951.53	-0.431313
1951.78	0.531258
1952.02	1.49418
1952.27	-0.427259
1952.52	2.45651
1952.76	1.50028
1953.01	-1.38586
1953.26	1.48829
1953.5	-1.40315
1953.75	-2.37243
1954	-0.464151
1954.25	-0.472969
1954.49	0.481129
1954.74	-1.43624
1954.98	-2.39318
1955.23	0.485138
1955.48	-0.466393
1955.72	1.46359
1955.97	1.47001
1956.22	-0.444164
1956.47	1.47923
1956.71	-3.31876
1956.96	-0.434221
1957.21	0.529556
1957.45	2.45382
1957.7	0.53351
1957.95	0.534491
1958.19	0.535091
1958.44	-2.34994
1958.69	1.49063
1958.93	-1.39469
1959.18	-2.35674
1959.43	0.522703
1959.67	-1.40182
1959.92	-0.444447
1960.17	-0.447893
1960.41	-1.41173
1960.66	0.504595
1960.9	-2.37809
1961.15	-1.42069
1961.4	1.45814
1961.64	-1.4204
1961.89	0.499376
1962.14	-2.3797
1962.38	-1.41961
1962.63	0.500437
1962.88	0.500687
1963.12	-0.459064
1963.37	0.501341
1963.62	2.42337
1963.86	0.50485
1964.11	-0.455858
1964.36	-0.457664
1964.6	0.502357
1964.85	2.42165
1965.09	1.46127
1965.34	-0.457981
1965.59	-0.455172
1965.83	-0.451624
1966.08	-1.40891
1966.33	-1.40656
1966.57	-2.3658
1966.82	2.43945
1967.06	2.43903
1967.31	0.517794
1967.56	0.518299
1967.8	2.44141
1968.05	0.518169
1968.3	1.4775
1968.54	0.512775
1968.79	-0.453028
1969.03	2.42305
1969.28	1.45568
1969.53	2.41003
1969.77	0.485489
1970.02	-0.477514
1970.26	-0.480799
1970.51	-0.484066
1970.76	-1.44586
1971	-0.488714
1971.25	2.38688
1971.49	0.469038
1971.74	0.470583
1971.99	1.43068
1972.23	-1.44775
1972.48	2.38775
1972.72	-0.493238
1972.97	0.461533
1973.22	0.457508
1973.46	-1.46271
1973.71	2.3695
1973.95	2.36821
1974.2	0.450832
1974.45	-0.507441
1974.69	2.36936
1974.94	-0.504627
1975.18	1.41545
1975.43	2.37687
1975.68	-2.41683
1975.92	1.42074
1976.17	-0.497271
1976.41	-3.37517
1976.66	-2.41665
1976.9	3.33709
1977.15	-1.46089
1977.4	2.372
1977.64	2.36832
1977.89	1.40643
1978.13	-0.513214
1978.38	1.40218
1978.63	1.40163
1978.87	1.40188
1979.12	-1.47374
1979.36	-1.47353
1979.61	0.443743
1979.85	-2.43351
1980.1	1.39689
1980.34	1.39319
1980.59	1.39091
1980.84	1.38813
1981.08	0.427586
1981.33	2.34153
1981.57	1.38264
1981.82	-2.44927
1982.06	1.37872
1982.31	2.33246
1982.55	8.07112
1982.8	-3.42029
1983.05	1.3596
1983.29	-2.46945
1983.54	0.398834
1983.78	3.26627
1984.03	0.394638
1984.27	1.349
1984.52	4.21428
1984.76	0.384779
1985.01	1.33735
1985.25	3.24845
1985.5	-2.48557
1985.75	1.33997
1985.99	2.29911
1986.24	-1.52389
1986.48	1.34415
1986.73	-1.52393
1986.97	-0.569904
1987.22	1.33652
1987.46	1.32986
1987.71	-2.49846
1987.95	-1.55063
1988.2	1.30066
1988.44	0.332993
1988.69	2.22745
1988.93	1.25838
1989.18	-0.627785
1989.42	0.339245
1989.67	1.19624
1989.91	0.200062
1990.16	0.405285
1990.41	1.26308
1990.65	-1.39346
1990.89	1.04702
1991.14	3.01563
1991.39	4.83612
1991.63	-0.0105209
1991.88	-1.69103
1992.12	0.88936
1992.37	0.194456
1992.61	0.472849
1992.86	0.949347
1993.1	3.77769
1993.35	-0.457378
1993.59	2.57476
1993.84	-1.20487
1994.08	-1.19284
1994.33	0.274097
1994.57	1.62872
1994.82	1.07812
1995.06	0.406876
1995.31	0.509371
1995.55	-0.362556
1995.8	-0.5487
1996.04	0.526857
1996.29	1.34944
1996.53	-0.90419
1996.78	-0.547091
1997.02	-0.0808411
1997.26	1.4698
1997.51	0.525646
1997.76	1.51438
1998	0.249685
1998.24	-0.601135
1998.49	0.130276
1998.73	0.534632
1998.98	1.63296
1999.22	1.57273
1999.47	-0.913271
1999.71	-2.58048
1999.96	0.44861
2000.2	-1.88939
2000.45	0.226885
2000.69	-0.723715
2000.94	1.0692
2001.18	0.356709
2001.43	0.731058
2001.67	1.42206
2001.92	0.800276
2002.16	-0.0919876
2002.4	0.321064
2002.65	-1.05704
2002.89	-0.50638
2003.14	0.294605
2003.38	-1.22912
2003.63	0.246758
2003.87	0.772236
2004.12	0.576906
2004.36	0.957184
2004.6	1.17462
2004.85	1.6059
2005.1	1.33151
2005.34	1.31391
2005.58	2.5313
2005.83	0.91486
2006.07	0.426758
2006.32	-1.52064
2006.56	0.403343
2006.81	-0.566307
2007.05	-0.586332
2007.3	0.958189
2007.54	1.65213
2007.78	0.35121
2008.03	-0.651941
2008.27	-2.65076
2008.52	0.145437
2008.76	2.35309
2009	0.4848
2009.25	-0.984472
2009.49	1.00276
2009.74	-2.99639
2009.98	0.0378742
2010.23	-1.92803
2010.47	0.14933
2010.72	-0.514729
2010.96	-0.164268
2011.2	-1.65962
2011.45	-1.52304
2011.69	1.88601
2011.94	1.04085
2012.18	1.93614
2012.42	1.96652
2012.67	1.01949
2012.92	0.0681477
2013.16	0.063097
2013.41	-0.883413
2013.66	-1.83053
2013.91	-1.83889
2014.15	-2.78638
2014.4	1.90327
2014.65	0.965492
2014.9	0.0293064
2015.14	-0.905975
2015.39	0.974142
2015.64	0.0348396
2015.88	-0.903822
2016.13	1.93081
2016.38	-3.70446
2016.63	1.93412
2016.87	0.991697
2017.12	0.0479527
2017.37	-0.896671
2017.61	0.0358009
2017.86	-0.910295
2018.11	1.89758
2018.35	-2.79858
2018.6	-3.74212
2018.85	-0.936367
2019.1	3.74391
2019.34	-2.81586
2019.59	0.929142
2019.84	-0.944309
2020.08	-0.00833321
2020.33	0.927523
2020.58	3.73804
2020.82	-0.94335
2021.07	-0.942928
2021.32	1.86642
2021.57	0.928301
2021.81	-0.0105171
2022.06	-1.88621
2022.31	-0.0178986
2022.55	1.84867
2022.8	-1.89802
2023.05	0.904661
2023.29	0.900539
2023.54	0.896484
2023.79	-1.91144
2024.03	-1.91617
2024.28	0.880665
2024.53	0.874325
2024.77	-1.93224
2025.02	0.86277
2025.27	-1.00835
2025.51	-0.0813675
2025.76	2.71709
2026.01	-0.0746269
2026.25	-0.0635204
2026.5	-0.98374
2026.75	-1.90376
2026.99	-1.89375
2027.24	2.78428
2027.49	-0.0325546
2027.73	0.885736
2027.98	-1.02468
2028.23	-2.86176
2028.47	0.00635147
2028.72	0.919323
2028.97	1.8686
2029.21	-1.90095
2029.46	-0.985941
2029.71	6.45554
2029.95	-1.00801
2030.2	-0.0920124
2030.45	1.78476
2030.69	0.866125
2030.94	1.79685
2031.19	-0.0688705
2031.43	-1.935
2031.68	-0.996752
2031.92	-2.85802
2032.17	-0.0499897
2032.42	-0.0433922
2032.66	0.896566
2032.91	4.63962
2033.16	-0.0286903
2033.4	0.912449
2033.65	-1.90196
2033.89	-2.84495
2034.14	-0.0627441
2034.39	-0.0704937
2034.64	0.87155
2034.88	0.87792
2035.13	-0.979744
2035.37	-0.966097
2035.62	-2.82658
2035.87	-1.88872
2036.11	0.906109
2036.36	1.83973
2036.6	0.911396
2036.85	0.911659
2037.1	2.7813
2037.34	-0.0251083
2037.59	0.907862
2037.84	-1.89857
2038.08	1.8374
2038.33	-0.0342712
2038.57	-0.0368595
2038.82	-0.0396175
2039.07	-1.9103
2039.31	3.68912
2039.56	-0.0506592
2039.8	0.877823
2040.05	-0.992809
2040.3	-0.996721
2040.54	-1.9326
2040.79	1.79427
2041.03	-0.0719547
2041.28	-1.00476
2041.53	0.857727
2041.77	1.78756
2042.02	0.852497
2042.26	-1.01296
2042.51	-0.0808201
2042.76	0.852537
2043	-1.93842
2043.25	2.73017
2043.49	-1.92421
2043.74	2.74451
2043.99	1.81152
2044.23	0.875032
2044.48	-0.0649662
2044.72	3.6471
2044.97	0.867233
2045.22	-0.0531063
2045.46	0.902002
2045.71	2.80578
2045.95	-0.942188
2046.2	-0.960032
2046.44	-0.973089
2046.69	0.892382
2046.94	0.888739
2047.18	-0.989723
2047.43	2.73376
2047.67	0.869991
2047.92	-2.85759
2048.16	-0.99147
2048.41	-0.989269
2048.66	-0.984413
2048.9	-0.980335
2049.15	0.891224
2049.39	-0.968338
2049.64	-1.89645
2049.88	0.910702
2050.13	-0.953587
2050.37	0.916611
2050.62	0.916285
2050.87	-0.0207291
2051.11	-0.0253677
2051.36	0.907764
2051.6	-2.82634
2051.85	2.77948
2052.09	-2.82225
2052.34	-0.951977
2052.58	-0.948723
2052.83	0.923946
2053.08	-1.87462
2053.32	0.938671
2053.57	-1.86216
2053.81	1.88246
2054.06	0.013092
2054.3	1.88427
2054.55	-0.922379
2054.79	0.0126648
2055.04	-0.926353
2055.29	-1.86311
2055.53	0.00664902
2055.78	0.940439
2056.02	0.00401115
2056.27	0.93791
2056.51	-0.931234
2056.76	-2.79939
2057	-0.928059
2057.25	-3.73022
2057.49	0.948139
2057.74	0.016058
2057.98	0.956779
2058.23	1.89753
2058.47	0.0307465
2058.72	-0.901447
2058.96	0.0364456
2059.21	-0.898205
2059.45	0.0396328
2059.7	-1.83433
2059.95	0.0359764
2060.19	3.77697
2060.44	0.0362968
2060.68	2.84797
2060.93	0.042448
2061.17	0.0439987
2061.42	-0.891254
2061.66	0.0462132
2061.91	2.85719
2062.15	1.92354
2062.4	0.0537262
2062.64	0.994442
2062.89	-1.81233
2063.13	1.00184
2063.38	-0.869617
2063.62	0.0698509
2063.87	-1.80273
2064.11	1.94955
2064.36	-2.73479
2064.6	1.0203
2064.85	-4.60168
2065.09	2.90997
2065.34	-0.838514
2065.58	0.104656
2065.83	-2.70884
2066.07	1.04896
2066.32	1.0511
2066.56	-1.76333
2066.81	0.117369
2067.05	-0.819098
2067.29	-2.69479
2067.54	-0.812265
2067.78	1.07008
2068.03	0.132219
2068.27	0.135187
2068.52	-1.74323
2068.76	1.07528
2069.01	1.07091
2069.25	0.124184
2069.5	-0.818768
2069.74	-1.75618
2069.99	2.00863
2070.23	-2.68038
2070.48	2.97157
2070.72	2.03293
2070.97	1.0874
2071.21	0.163399
2071.46	3.00136
2071.7	1.11796
2071.94	3.00031
2072.19	-0.76619
2072.43	1.11628
2072.68	2.05809
2072.92	0.175011
2073.17	0.176159
2073.41	-2.64705
2073.66	1.12093
2073.9	3.94878
2074.15	2.06971
2074.39	1.13356
2074.64	3.96814
2074.88	1.14994
2075.13	1.16088
2075.37	1.16923
2075.61	-0.713717
2075.86	0.231936
2076.1	-0.710608
2076.35	2.12056
2076.59	-0.713993
2076.84	0.226419
2077.08	2.10526
2077.32	0.216505
2077.57	1.16194
2077.81	0.223597
2078.06	-0.717157
2078.3	0.228598
2078.55	-2.599
2078.79	1.18011
2079.03	2.13481
2079.28	2.14011
2079.52	-0.689535
2079.77	0.258942
2080.01	2.15244
2080.26	1.20899
2080.5	3.09748
2080.74	-0.682823
2080.99	0.262102
2081.23	2.15253
2081.48	0.262468
2081.72	0.264687
2081.97	3.10171
2082.21	-1.62111
2082.45	2.16017
2082.7	2.1607
2082.94	0.270702
2083.19	0.270596
2083.43	2.16113
2083.67	-2.56244
2083.92	-0.672031
2084.16	-1.61603
2084.41	-2.5597
2084.65	1.22137
2084.89	-4.44811
2085.14	-1.6121
2085.38	4.0595
2085.63	-0.660742
2085.87	0.291306
2086.12	2.18887
2086.36	5.02965
2086.6	-1.58946
2086.85	1.25274
2087.09	3.14877
2087.34	-2.52855
2087.58	1.25806
2087.82	2.2057
2088.07	-1.57846
2088.31	1.26276
2088.56	0.317966
2088.8	0.321251
2089.04	1.27216
2089.29	0.330647
2089.53	0.334003
2089.77	1.28303
2090.02	-2.50428
2090.26	4.13011
2090.51	-1.55202
2090.75	0.345984
2090.99	4.13991
2091.24	1.30191
2091.48	0.360174
2091.72	-0.581694
2091.97	2.27156
2092.21	-0.568268
2092.45	2.28617
2092.7	3.24202
2092.94	1.34834
2093.19	-1.49676
2093.43	4.21044
2093.67	-2.43903
2093.92	0.415291
2094.16	2.31774
2094.41	-2.43588
2094.65	2.31709
2094.89	0.413715
2095.14	-1.48958
2095.38	-2.4415
2095.62	-0.542458
2095.87	2.30692
2096.11	-0.54307
2096.35	1.35695
2096.6	-2.44394
2096.84	-0.546896
2097.08	3.24803
2097.33	-0.550734
2097.57	1.34764
2097.81	0.398409
2098.06	0.396318
2098.3	-1.50123
2098.55	-0.551655
2098.79	0.397142
2099.03	-0.551989
2099.28	0.397404
2099.52	-2.44872
2099.76	2.29767
2100	1.35048
2100.25	0.403481
2100.49	0.409077
2100.74	-0.535843
2100.98	1.36685
2101.22	-0.530518
2101.47	-0.529572
2101.71	-0.529375
2101.95	1.37131
2102.2	1.37128
2102.44	1.36917
2102.68	-0.533165
2102.92	-0.534805
2103.17	0.41502
2103.41	0.414478
2103.65	0.415476
2103.9	-0.531725
2104.14	-1.47765
2104.39	2.3242
2104.63	0.428347
2104.87	-0.517647
2105.11	1.38736
2105.36	1.39239
2105.6	-1.456
2105.84	3.2994
2106.09	1.40031
2106.33	2.35244
2106.57	0.453581
2106.82	3.30799
2107.06	0.454561
2107.3	1.40251
2107.54	1.3984
2107.79	-2.40651
2108.03	-1.46018
2108.27	-2.41293
2108.52	-0.514771
2108.76	1.38535
2109	0.440628
2109.25	1.39634
2109.49	-2.40248
2109.73	0.448294
2109.97	2.34905
2110.22	1.39979
2110.46	-2.39932
2110.7	2.35128
2110.95	4.25082
2111.19	-1.45017
2111.43	2.34743
2111.68	0.44768
2111.92	3.29701
2112.16	-0.4993
2112.4	-0.496492
2112.65	1.40611
2112.89	1.41126
2113.13	2.36695
2113.38	-2.38237
2113.62	-3.3325
2113.86	3.31941
2114.1	-2.38255
2114.35	0.469938
2114.59	-0.479067
2114.83	2.37212
2115.07	1.42086
2115.32	2.37028
2115.56	0.469074
2115.8	3.31645
2116.04	3.31289
2116.29	-0.487467
2116.53	2.36123
2116.77	-0.487656
2117.02	0.463182
2117.26	-0.4869
2117.5	1.40996
2117.74	1.40747
2117.99	0.454386
2118.23	-1.44782
2118.47	3.29146
2118.71	1.39102
2118.96	1.38764
2119.2	0.436424
2119.44	3.27692
2119.68	0.43161
2119.93	0.431087
2120.17	-0.515388
2120.41	-0.512081
2120.65	-0.509398
2120.9	3.28692
2121.14	-0.499977
2121.38	1.40171
2121.62	1.40662
2121.86	-2.38424
2122.11	4.26202
2122.35	1.41851
2122.59	1.42163
2122.84	-0.474533
2123.08	0.476488
2123.32	0.476078
2123.56	4.27179
2123.81	3.31989
2124.05	2.36658
2124.29	-0.485929
2124.53	-1.44164
2124.77	3.2895
2125.02	-0.506479
2125.26	3.27666
2125.5	0.430943
2125.74	-0.519787
2125.98	2.31587
2126.23	2.31228
2126.47	-1.47471
2126.71	-1.47782
2126.95	0.412365
2127.2	3.24851
2127.44	0.411915
2127.68	5.13725
2127.92	-1.48065
2128.16	2.30113
2128.41	1.35682
2128.65	-0.533537
2128.89	2.30129
2129.13	-1.47992
2129.38	1.35524
2129.62	-0.535004
2129.86	-0.535313
2130.1	-3.37058
2130.34	4.18722
2130.58	1.35121
2130.83	1.34909
2131.07	1.34674
2131.31	-0.543995
2131.55	-0.545149
2131.79	-0.546194
2132.04	1.33907
2132.28	1.33584
2132.52	2.27806
2132.76	3.22179
2133	2.27969
2133.25	-0.549755
2133.49	2.28232
2133.73	0.396177
2133.97	-1.48975
2134.21	-2.43322
2134.46	-0.545534
2134.7	-1.48904
2134.94	1.3419
2135.18	0.397243
2135.42	2.28183
2135.67	0.390455
2135.91	-0.557659
2136.15	3.21075
2136.39	1.32625
2136.63	4.15651
2136.87	5.10027
2137.12	2.27447
2137.36	1.33619
2137.6	2.28003
2137.84	-0.553398
2138.08	4.15611
2138.32	0.388283
2138.57	-1.49087
2138.81	1.34373
2139.05	-0.54805
2139.29	2.2716
2139.53	0.384007
2139.77	0.381796
2140.02	1.32205
2140.26	4.14635
2140.5	2.26143
2140.74	2.26051
2140.98	2.26106
2141.22	0.37538
2141.46	1.31305
2141.71	-0.571093
2141.95	1.31199
2142.19	2.2572
2142.43	-1.50506
2142.67	0.391624
2142.91	0.389891
2143.15	0.350481
2143.4	0.340719
2143.64	2.22584
2143.88	2.23272
2144.12	0.359705
2144.36	0.364563
2144.6	2.23761
2144.85	2.23706
2145.09	0.358652
2145.33	-1.52195
2145.57	-0.582495
2145.81	3.17697
2146.05	1.29584
2146.29	3.17477
2146.53	-0.58604
2146.78	0.351955
2147.02	0.35005
2147.26	0.348343
2147.5	1.28636
2147.74	4.10254
2147.98	-0.595219
2148.22	3.15929
2148.46	1.2789
2148.7	0.33699
2148.95	-0.60516
2149.19	0.326599
2149.43	-2.49112
2149.67	2.19337
2149.91	0.314737
2150.15	2.1878
2150.39	0.313154
2150.63	-0.62233
2150.88	0.318666
2151.12	0.321209
2151.36	-0.612988
2151.6	2.20225
2151.84	3.1443
2152.08	2.20417
2152.32	3.13973
2152.56	0.323759
2152.8	3.13319
2153.05	0.31999
2153.29	1.25634
2153.53	0.316774
2153.77	0.313128
2154.01	0.307673
2154.25	-0.635923
2154.49	1.22961
2154.73	-0.649805
2154.97	1.21528
2155.21	2.14466
2155.45	5.87792
2155.7	0.267651
2155.94	-1.60234
2156.18	0.26577
2156.42	3.06826
2156.66	2.13455
2156.9	1.20223
2157.14	2.13963
2157.38	-2.52857
2157.62	-1.59047
2157.86	-2.52378
2158.1	-0.653788
2158.34	0.2808
2158.59	0.279854
2158.83	-0.656286
2159.07	-0.658516
2159.31	2.1412
2159.55	0.268915
2159.79	0.26474
2160.03	1.19468
2160.27	2.12454
2160.51	-1.61024
2160.75	0.25577
2160.99	-0.678318
2161.23	1.18628
2161.47	0.253054
2161.72	-0.679422
2161.95	2.11996
2162.2	3.98613
2162.44	-2.54484
2162.68	2.11714
2162.92	0.250177
2163.16	0.248804
2163.4	3.04466
2163.64	-0.68659
2163.88	1.17501
2164.12	-0.693638
2164.36	2.09894
2164.6	0.235909
2164.84	-2.55675
2165.08	3.9669
2165.32	3.03588
2165.56	1.17292
2165.8	0.239872
2166.04	1.16993
2166.28	0.236195
2166.53	1.16453
2166.76	-3.49412
2167.01	0.227306
2167.25	1.15324
2167.49	-0.715607
2167.73	1.13666
2167.97	1.13319
2168.21	1.13293
2168.45	-0.725107
2168.69	0.207357
2168.93	1.14143
2169.17	-2.57391
2169.41	-1.63762
2169.65	2.09296
2169.89	2.09858
2170.13	1.16999
2170.37	0.238398
2170.61	1.16674
2170.85	2.09609
2171.09	1.15884
2171.33	-1.64346
2171.57	1.13895
2171.81	-1.65304
2172.05	2.06163
2172.29	1.13013
2172.53	0.20064
2172.77	2.05897
2173.01	0.20101
2173.25	1.13171
2173.49	3.92226
2173.73	-0.721743
2173.97	-3.50852
2174.21	3.92752
2174.45	-0.719145
2174.69	3.92806
2174.93	0.209845
2175.17	0.209108
2175.41	-1.64958
2175.65	1.1377
2175.89	-1.65066
2176.13	0.205162
2176.37	-0.724682
2176.61	-0.724295
2176.85	0.205566
2177.09	0.206482
2177.33	-1.65147
2177.57	-0.721182
2177.81	1.13603
2178.05	2.05994
2178.29	-0.729609
2178.53	-0.729879
2178.77	1.12841
2179.01	0.200687
2179.25	1.1299
2179.49	1.1303
2179.73	2.05918
2179.97	-0.72628
2180.21	-0.726898
2180.45	1.12903
2180.69	-2.58434
2180.93	0.200178
2181.17	-0.729664
2181.41	0.196577
2181.65	1.1244
2181.89	0.194366
2182.13	1.12074
2182.37	1.1198
2182.61	1.1165
2182.85	1.113
2183.09	2.03468
2183.33	-1.67696
2183.57	-0.752298
2183.81	2.0251
2184.05	-1.68176
2184.28	-2.60759
2184.53	-1.67892
2184.76	0.176285
2185	0.178013
2185.24	2.03446
2185.48	-3.5243
2185.72	-1.66653
2185.96	0.191233
2186.2	0.196798
2186.44	-2.58106
2186.68	1.13686
2186.92	3.00002
2187.16	-0.709454
2187.4	-1.6363
2187.64	-0.708641
2187.88	1.14602
2188.12	0.214392
2188.36	2.06735
2188.6	-4.43285
2188.84	1.13031
2189.07	2.05216
2189.31	0.191978
2189.55	2.04398
2189.79	0.189129
2190.03	2.97114
2190.27	-0.73547
2190.51	1.12138
2190.75	2.04873
2190.99	2.05026
2191.23	-2.5841
2191.47	1.12726
2191.71	2.05686
2191.95	2.059
2192.19	0.205936
2192.42	3.92019
2192.67	1.14097
2192.9	1.14439
2193.14	1.14897
2193.38	3.01405
2193.62	0.237789
2193.86	0.244669
2194.1	-0.680925
2194.34	2.10838
2194.58	-1.61205
2194.82	0.24576
2195.06	1.17281
2195.3	1.16929
2195.53	0.235617
2195.77	3.01553
2196.01	-1.6323
2196.25	2.07593
2196.49	0.216734
2196.73	2.99707
2196.97	-0.715796
2197.21	-2.57087
2197.45	3.92304
2197.69	-0.712807
2197.92	1.14714
2198.16	1.15257
2198.4	2.08687
2198.64	-0.691841
2198.88	1.1719
2199.12	-0.680124
2199.36	-0.673841
2199.6	0.264397
2199.84	-1.58635
2200.07	2.14591
2200.31	2.15482
2200.55	-0.633339
2200.79	1.23527
2201.03	0.298641
2201.27	-1.57972
2201.51	-0.681974
2201.75	0.217722
2201.99	-0.704268
2202.23	1.18515
2202.46	2.13492
2202.7	3.05938
2202.94	-0.663778
2203.18	-0.66132
2203.42	0.345657
2203.66	0.319807
2203.9	1.24942
2204.14	1.25603
2204.37	-0.619825
2204.61	-0.63512
2204.85	1.21211
2205.09	2.1302
2205.33	-2.52136
2205.57	-0.661839
2205.8	1.20234
2206.05	1.20574
2206.28	0.26782
2206.52	1.19881
2206.76	-1.58742
2207	-2.51399
2207.24	0.280216
2207.48	4.00621
2207.71	3.08085
2207.95	1.22411
2208.19	-1.56476
2208.43	-0.63069
2208.67	2.1654
2208.91	0.304703
2209.15	-0.62583
2209.38	0.305367
2209.62	-2.48781
2209.86	0.308949
2210.1	0.311998
2210.34	-0.616299
2210.58	1.2508
2210.81	1.25421
2211.05	-0.606512
2211.29	3.12709
2211.53	0.334721
2211.77	-0.594858
2212.01	0.340406
2212.24	-0.593063
2212.48	-1.52696
2212.72	1.26967
2212.96	1.26779
2213.2	-0.600538
2213.44	0.332769
2213.67	-0.595863
2213.91	0.343676
2214.15	-1.51389
2214.39	-2.44498
2214.63	0.357437
2214.87	-2.44152
2215.1	-3.37388
2215.34	-0.572001
2215.58	-1.50502
2215.82	-0.571039
2216.06	0.362665
2216.29	-0.571182
2216.53	-0.571468
2216.77	-0.571083
2217.01	2.23078
2217.25	0.365023
2217.49	1.29936
2217.72	1.29952
2217.96	1.30071
2218.2	-0.564545
2218.44	2.24008
2218.68	3.17816
2218.91	-0.554316
2219.15	-1.4859
2219.39	-3.35259
2219.63	1.32276
2219.87	0.388584
2220.1	2.25731
2220.34	0.388119
2220.58	1.32153
2220.82	1.31795
2221.06	-1.48889
2221.29	2.24313
2221.53	-0.561113
2221.77	1.304
2222.01	2.23718
2222.25	2.23892
2222.48	2.24224
2222.72	-1.48932
2222.96	-1.4861
2223.2	-2.416
2223.43	0.39238
2223.67	-0.536127
2223.91	1.3396
2224.15	-2.396
2224.39	1.35004
2224.62	-2.38801
2224.86	-0.511814
2225.1	0.429884
2225.34	3.24419
2225.58	-0.497374
2225.81	-2.36668
2226.05	0.447531
2226.29	-0.485464
2226.53	-0.481276
2226.76	-1.41537
2227	1.4004
2227.24	1.40248
2227.48	-0.472607
2227.72	-0.473255
2227.95	1.4013
2228.19	1.40059
2228.43	4.2127
2228.67	-1.41273
2228.9	3.27505
2229.14	0.465809
2229.38	0.471094
2229.62	1.41442
2229.85	-1.39612
2230.09	2.36143
2230.33	2.36621
2230.57	-0.445408
2230.8	-0.440737
2231.04	1.4428
2231.28	1.44739
2231.52	0.512156
2231.75	-5.12301
2231.99	-3.23967
2232.23	-0.415426
2232.47	-0.411463
2232.7	0.533049
2232.94	0.537079
2233.18	0.541193
2233.42	-0.396515
2233.65	0.547485
2233.89	0.547661
2234.13	-0.394341
2234.37	0.545422
2234.6	-0.397961
2234.84	0.537586
2235.08	-4.16866
2235.31	0.533472
2235.55	0.534958
2235.79	0.536617
2236.03	-3.22369
2236.26	2.42099
2236.5	0.541517
2236.74	1.48689
2236.97	0.55077
2237.21	-1.32465
2237.45	-0.375294
2237.69	-2.25207
2237.92	-1.30435
2238.16	-0.356583
2238.4	1.53535
2238.64	0.599684
2238.87	0.602758
2239.11	-0.341198
2239.35	-0.342855
2239.58	-2.23245
2239.82	-2.23614
2240.06	1.53338
2240.29	-0.346239
2240.53	-0.336767
2240.77	-2.22183
2241.01	-2.22009
2241.24	-2.21817
2241.48	-3.16004
2241.72	1.56079
2241.96	-1.26797
2242.19	3.45487
2242.43	1.56859
2242.67	1.56855
2242.9	0.62328
2243.14	2.50867
2243.38	2.50765
2243.61	0.62039
2243.85	1.56529
2244.09	0.624796
2244.32	0.630672
2244.56	-3.13919
2244.8	0.646643
2245.03	-1.238
2245.27	-3.12456
2245.51	0.661367
2245.75	-0.279696
2245.98	1.61601
2246.22	0.673037
2246.46	3.51475
2246.69	0.680168
2246.93	1.62944
2247.17	-0.261578
2247.4	-1.20729
2247.64	-0.260828
2247.88	-0.26107
2248.11	0.684992
2248.35	-1.20775
2248.59	0.684618
2248.82	-1.20773
2249.06	-0.258381
2249.3	-0.254862
2249.53	2.58553
2249.77	-1.20133
2250.01	1.63505
2250.24	-0.260138
2250.48	-3.10077
2250.72	-0.265951
2250.95	-2.15863
2251.19	1.62282
2251.43	1.62421
2251.66	-0.264057
2251.9	1.6309
2252.14	0.689722
2252.37	-3.08858
2252.61	0.70647
2252.85	3.55656
2253.08	1.66919
2253.32	0.727327
2253.55	2.62744
2253.79	-1.1597
2254.03	-0.208166
2254.26	0.74161
2254.5	-1.15518
2254.74	-2.10209
2254.97	-0.204487
2255.21	-0.203051
2255.45	0.74692
2255.68	0.750628
2255.92	0.755154
2256.16	-1.13813
2256.39	-2.08335
2256.63	-0.181583
2256.87	-2.07621
2257.1	1.72486
2257.34	-0.170906
2257.57	0.78083
2257.81	-0.167
2258.05	1.73452
2258.28	-0.162285
2258.52	1.74097
2258.76	1.74494
2258.99	-1.10258
2259.23	-2.05045
2259.47	-0.146898
2259.7	-2.99552
2259.94	0.809418
2260.17	-1.08921
2260.41	0.815941
2260.64	1.77357
2260.88	1.7792
2261.12	-2.97559
2261.35	0.832294
2261.59	0.834858
2261.83	-2.01755
2262.06	-4.86984
2262.3	-2.0102
2262.53	0.851065
2262.77	-0.0955315
2263.01	-1.99468
2263.24	-0.0819454
2263.48	-0.0739594
2263.71	-0.066103
2263.95	2.8039
2264.19	-1.00684
2264.42	1.86267
2264.66	-2.90689
2264.89	-0.0376644
2265.13	0.919632
2265.37	0.921465
2265.6	0.921429
2265.84	0.918798
2266.07	-0.0392971
2266.31	-1.9517
2266.55	-0.0454617
2266.78	-0.0474262
2267.02	-0.0490074
2267.25	-0.050663
2267.49	1.85409
2267.73	-0.0553856
2267.96	-1.00912
2268.2	-1.0077
2268.43	-0.0508499
2268.67	-0.999971
2268.91	-0.994459
2269.14	-1.94298
2269.38	-0.982454
2269.61	2.84444
2269.85	0.94169
2270.08	-0.964272
2270.32	0.950354
2270.56	-1.91211
2270.79	0.00409889
2271.03	-1.90473
2271.26	0.967556
2271.5	1.92888
2271.73	0.0190849
2271.97	0.977394
2272.2	0.0226936
2272.44	1.93838
2272.68	0.0270576
2272.91	-0.927694
2273.15	0.988333
2273.38	-2.8375
2273.62	4.82105
2273.85	1.95194
2274.09	-0.917337
2274.33	-0.91522
2274.56	1.95892
2274.8	0.0467072
2275.03	1.00669
2275.27	0.049736
2275.5	1.96834
2275.74	2.93199
2275.97	0.0643101
2276.21	-1.84697
2276.45	0.074419
2276.68	0.0794334
2276.92	2.00439
2277.15	-2.78378
2277.39	1.0621
2277.62	1.07203
2277.86	0.116125
2278.09	1.07935
2278.33	0.120512
2278.56	-0.839283
2278.8	0.121443
2279.03	0.12027
2279.27	-2.76629
2279.5	0.109074
2279.74	-1.81314
2279.98	1.06146
2280.21	0.100061
2280.45	0.0985851
2280.68	2.97408
2280.92	0.0971508
2281.15	2.97132
2281.39	1.058
2281.62	-0.856758
2281.86	-2.77066
2282.09	0.110279
2282.33	1.07492
2282.56	0.121078
2282.8	2.0465
2283.03	1.09528
2283.27	-0.815348
2283.5	1.11466
2283.74	1.12534
2283.97	0.170641
2284.21	-5.59702
2284.44	-3.669
2284.68	-2.70192
2284.91	0.187567
2285.15	0.190002
2285.38	-0.774029
2285.62	3.06718
2285.85	0.182076
2286.09	-0.77722
2286.32	0.187946
2286.56	-0.764729
2286.79	0.206718
2287.03	-1.71502
2287.26	1.17668
2287.5	0.220839
2287.74	0.221098
2287.97	0.219692
2288.2	2.14454
2288.44	-1.7092
2288.67	-0.749866
2288.91	2.1318
2289.14	1.16486
2289.38	1.15734
2289.61	2.11737
2289.85	0.193628
2290.08	1.15638
2290.32	-0.764948
2290.55	2.12303
2290.79	1.16753
2291.02	0.213366
2291.26	1.18129
2291.49	-0.739075
2291.73	0.227833
2291.96	2.1581
2292.2	1.20111
2292.43	0.243467
2292.67	-1.679
2292.9	2.17941
2293.14	5.07435
2293.37	-0.705614
2293.6	-2.63308
2293.84	-1.66984
2294.07	-0.707308
2294.31	1.21735
2294.54	1.21593
2294.78	-0.711605
2295.01	2.17623
2295.25	0.248972
2295.48	-0.714615
2295.72	2.1714
2295.95	0.239113
2296.19	2.16306
2296.42	-0.720568
2296.65	0.245293
2296.89	1.21224
2297.12	0.255045
2297.36	0.261093
2297.59	-1.65777
2297.83	-0.689163
2298.06	1.24178
2298.3	1.24656
2298.53	-4.53189
2298.77	1.25835
2299	0.298521
2299.23	-4.52118
2299.47	0.302849
2299.7	2.23383
2299.94	-0.659704
2300.17	3.20217
2300.41	-3.54714
2300.64	0.316057
2300.87	-4.50636
2301.11	0.322054
2301.34	-0.64146
2301.58	2.25517
2301.81	0.324362
2302.05	-1.60625
2302.28	-1.60458
2302.51	0.326693
2302.75	-4.49863
2302.98	-0.63743
2303.22	3.22425
2303.45	0.331713
2303.69	-1.59473
2303.92	2.27121
2304.15	3.2403
2304.39	-2.55033
2304.62	0.351652
2304.86	-1.57697
2305.09	3.25564
2305.33	-3.50513
2305.56	2.29576
2305.79	1.33325
2306.03	-0.597818
2306.26	0.370361
2306.5	0.371267
2306.73	2.305
2306.97	-2.52782
2307.2	-1.5624
2307.43	1.33626
2307.67	1.33586
2307.9	-1.5634
2308.13	2.3022
2308.37	-0.59469
2308.6	2.30781
2308.84	3.27869
2309.07	0.384462
2309.3	-1.54263
2309.54	1.36397
2309.77	-0.567629
2310.01	-1.53342
2310.24	1.3695
2310.47	0.401402
2310.71	-1.53551
2310.94	2.32401
2311.18	-1.55309
2311.41	1.33901
2311.64	-1.56143
2311.88	0.367708
2312.11	-0.599567
2312.34	-0.601086
2312.58	0.36414
2312.81	1.33184
2313.05	-0.59264
2313.28	-0.584747
2313.51	-2.51061
2313.75	-0.572874
2313.98	3.29943
2314.21	-0.559851
2314.45	-1.51979
2314.68	0.418816
2314.92	-0.551044
2315.15	-2.4889
2315.39	1.37606
2315.62	-0.561125
2315.85	2.32936
2316.09	1.35752
2316.32	2.32109
2316.55	2.32105
2316.79	-1.53975
2317.02	-1.53807
2317.25	1.36409
2317.49	-0.563513
2317.72	-0.56719
2317.95	0.395401
2318.19	-1.53722
2318.42	1.35713
2318.66	-1.54109
2318.89	1.35242
2319.12	0.385872
2319.35	-3.47461
2319.59	-0.57938
2319.82	-2.50823
2320.06	2.31712
2320.29	-0.575899
2320.52	1.35751
2320.76	1.3612
2320.99	1.36523
2321.22	-0.561693
2321.46	1.37551
2321.69	3.31456
2321.92	5.25393
2322.16	3.32388
2322.39	3.32378
2322.62	4.29147
2322.86	1.39311
2323.09	2.36157
2323.32	1.39635
2323.56	0.43046
2323.79	6.23203
2324.02	1.3966
2324.26	7.19329
2324.49	3.32025
2324.72	6.21148
2324.96	4.27391
2325.19	12.9608
2325.42	9.0931
2325.66	11.0184
2325.89	11.0125
2326.12	17.7605
2326.36	21.6116
2326.59	23.5322
2326.82	36.0582
2327.06	47.6186
2327.29	75.5623
2327.52	113.14
2327.76	143.022
2327.99	143.026
2328.22	116.041
2328.46	74.5792
2328.69	46.6179
2328.92	31.189
2329.15	16.735
2329.39	19.6228
2329.62	14.8103
2329.85	10.9564
2330.09	9.02744
2330.32	9.02488
2330.55	4.20842
2330.78	3.24628
2331.02	3.2489
2331.25	3.25207
2331.48	4.22018
2331.72	3.25236
2331.95	3.2472
2332.18	1.31763
2332.42	-2.53714
2332.65	0.348803
2332.88	1.30872
2333.12	1.30609
2333.35	0.341265
2333.58	-1.58634
2333.81	1.29706
2334.05	0.329849
2334.28	3.21156
2334.51	-2.56158
2334.74	-1.60126
2334.98	0.320478
2335.21	0.320133
2335.44	-1.60282
2335.68	1.28129
2335.91	-2.56783
2336.14	1.27644
2336.37	-1.60983
2336.61	2.23456
2336.84	-0.651621
2337.07	0.308092
2337.3	2.22838
2337.54	1.26465
2337.77	-1.62096
2338	-1.6228
2338.24	3.1813
2338.47	0.297205
2338.7	0.296564
2338.93	0.29537
2339.17	1.25484
2339.4	3.17445
2339.63	1.24869
2339.86	-1.63829
2340.1	0.278978
2340.33	-2.6077
2340.56	2.18795
2340.79	1.22026
2341.03	0.252176
2341.26	-0.71405
2341.49	2.15834
2341.72	3.11236
2341.96	-0.727648
2342.19	0.227386
2342.42	1.18309
2342.65	1.18088
2342.89	0.220629
2343.12	-1.69897
2343.35	1.17409
2343.58	1.17231
2343.82	0.212954
2344.05	3.08772
2344.28	2.12668
2344.51	0.20628
2344.75	0.202442
2344.98	1.1559
2345.21	2.10721
2345.44	0.185265
2345.68	0.179707
2345.91	-0.781872
2346.14	-1.74274
2346.37	0.169243
2346.6	-2.70711
2346.84	1.1189
2347.07	0.158493
2347.3	2.07111
2347.53	1.11221
2347.77	0.154131
2348	1.11074
2348.23	1.1082
2348.46	0.146338
2348.69	-0.816729
2348.93	0.130993
2349.16	-1.79292
2349.39	-0.847477
2349.62	-2.77161
2349.85	1.98972
2350.09	0.0549965
2350.32	0.968067
2350.55	-1.87513
2350.78	0.0848694
2351.02	0.107204
2351.25	1.9867
2351.48	3.86604
2351.71	1.95229
2351.94	-0.912081
2352.18	-0.924011
2352.41	0.964264
2352.64	0.94664
2352.87	-0.960226
2353.1	0.941128
2353.34	-1.92353
2353.57	1.88219
2353.8	-0.0270309
2354.03	0.925117
2354.26	0.9266
2354.5	-0.0308056
2354.73	-0.0359573
2354.96	0.911114
2355.19	4.71585
2355.42	-0.05373
2355.66	-1.96567
2355.89	1.83396
2356.12	-1.03493
2356.35	0.856283
2356.58	0.847816
2356.81	-2.01278
2357.05	-0.118519
2357.28	1.77541
2357.51	-1.08362
2357.74	-1.09054
2357.97	-1.09617
2358.21	-0.154961
2358.44	-2.06188
2358.67	0.781702
2358.9	-1.12415
2359.13	2.66796
2359.36	0.760063
2359.6	-0.198727
2359.83	-0.208233
2360.06	-0.217777
2360.29	-0.227383
2360.52	1.66006
2360.75	0.701284
2360.99	-1.20526
2361.22	-0.267391
2361.45	-1.2254
2361.68	-1.23604
2361.91	-0.299419
2362.14	1.58424
2362.38	-0.319262
2362.61	-5.06141
2362.84	3.44773
2363.07	0.600012
2363.3	-0.354654
2363.53	-0.36311
2363.77	2.46556
2364	-1.32719
2364.23	-0.391039
2364.46	-1.34477
2364.69	-0.409649
2364.92	1.47108
