#Acq. time (s)=	30
#Accumulations=	2
#Range (cm-¹)=	1200...2365
#Windows=	3
#Auto scanning=	Off
#Autofocus=	Off
#Macrospot=	Off
#AutoExposure=	Off
#Spike filter=	Multiple accum.
#Delay time (s)=	2
#Binning=	1
#Readout mode=	Signal
#DeNoise=	Off
#ICS correction=	On
#Dark correction=	Off
#Inst. Process=	Off
#Detector Gain=	Best Dynamic
#Detector ADC=	50 kHz HS
#Detector temperature (°C)=	-60.09
#Instrument=	LabRAM HR Evol
#Detector=	SIN-EM FIVIS
#Objective=	x100_VIS
#Grating=	1800 (450-850nm)
#ND Filter=	100%
#Laser=	532nm_Edge
#Hole=	49.98
#Temperature=	0
#Range=	Visible
#StageXY=	75x50mm Scan+
#StageZ=	Z motor
#X (µm)=	0
#Y (µm)=	0
#Z (µm)=	-245.6
#Full time(mm:ss)=	3:23
#Project=	21_11_04
#Sample=	BU19w
#Site=	
#Title=	BU19w-E-FF11b-FI01-V_1800 (450-850nm)_532nm_Edge_100%_x100_VIS_H50um_30sX2
#Remark=	
#Date=	04.11.2021 18:28
#Acquired=	04.11.2021 18:28:15
#Base:Fit=	16.12.2021 17:39:50
#Base:Fit=	16.12.2021 17:46:27
#Base:Sub=	16.12.2021 17:46:29
1202.73	3.22269
1203.01	1.02846
1203.29	6.35117
1203.57	-0.131861
1203.85	5.20501
1204.12	-1.25794
1204.4	4.08897
1204.68	2.97901
1204.96	2.93925
1205.24	3.97402
1205.51	2.85885
1205.79	1.74559
1206.07	0.63348
1206.35	-0.477594
1206.63	4.84095
1206.9	-2.69096
1207.18	-2.72138
1207.46	1.53079
1207.74	-2.77952
1208.01	3.60957
1208.29	3.57561
1208.57	-1.8042
1208.85	1.37456
1209.13	-2.92726
1209.4	1.32439
1209.68	0.227489
1209.96	2.33144
1210.23	3.36234
1210.51	1.19161
1210.79	4.35963
1211.07	1.12362
1211.35	1.08957
1211.62	-4.27693
1211.9	-0.0445099
1212.18	3.12118
1212.46	0.958237
1212.73	-3.33169
1213.01	-0.163383
1213.29	4.06781
1213.57	-3.40804
1213.84	-1.29893
1214.12	-1.31944
1214.4	-0.275879
1214.68	-3.49171
1214.95	2.8735
1215.23	0.721584
1215.51	-1.43412
1215.78	-2.5286
1216.06	-0.434433
1216.34	-3.65782
1216.62	2.68843
1216.9	-0.529644
1217.17	2.62696
1217.45	-0.587566
1217.73	-0.614738
1218	-3.82616
1218.28	0.394474
1218.56	1.43351
1218.84	3.53292
1219.11	-3.91635
1219.39	-0.759464
1219.67	-1.84197
1219.94	-0.79974
1220.22	1.30089
1220.5	3.40135
1220.77	3.37571
1221.05	-0.889126
1221.33	-0.915501
1221.61	1.17365
1221.88	-0.977856
1222.16	-4.18774
1222.44	1.06937
1222.72	-1.07863
1222.99	-0.0554466
1223.27	3.08651
1223.55	-3.28357
1223.82	3.02609
1224.1	0.890156
1224.38	4.03315
1224.65	4.01344
1224.93	5.05308
1225.21	5.04219
1225.49	5.02938
1225.76	1.84604
1226.04	3.93819
1226.32	3.91646
1226.59	-2.44012
1226.87	2.80789
1227.15	5.9263
1227.42	1.66543
1227.7	2.68171
1227.98	2.63702
1228.25	2.59027
1228.53	-2.69275
1228.81	3.64878
1229.08	3.71953
1229.36	4.76998
1229.64	-0.552338
1229.91	3.62605
1230.19	2.55562
1230.47	2.5317
1230.74	-2.79733
1231.02	-2.83081
1231.3	3.46105
1231.57	2.39477
1231.85	-0.775551
1232.13	3.41078
1232.4	3.39492
1232.68	4.42774
1232.96	0.209534
1233.23	1.2468
1233.51	-5.06769
1233.79	-1.92694
1234.06	-0.885899
1234.34	4.36125
1234.62	-4.05701
1234.89	2.23899
1235.17	2.23004
1235.45	2.22078
1235.72	1.15748
1236	0.0898399
1236.27	-0.979244
1236.55	2.15543
1236.83	0.0301704
1237.1	-4.19577
1237.38	1.03071
1237.66	-4.24191
1237.93	0.980495
1238.21	-0.0922165
1238.49	-0.110943
1238.76	1.96893
1239.04	-1.19212
1239.31	-0.158337
1239.59	-1.21964
1239.87	-0.183617
1240.14	-1.24268
1240.42	-2.3008
1240.7	-1.26175
1240.97	3.96846
1241.25	-0.242374
1241.52	3.93322
1241.8	0.776917
1242.08	-2.37457
1242.35	2.8567
1242.63	0.75774
1242.91	-3.44474
1243.18	0.736679
1243.46	-0.319618
1243.74	-2.42482
1244.01	1.75624
1244.29	2.79197
1244.56	-2.4637
1244.84	2.75699
1245.11	-2.50024
1245.39	0.619305
1245.67	-0.445091
1245.94	0.590107
1246.22	1.62587
1246.49	-0.475849
1246.77	1.60637
1247.05	-0.498039
1247.32	3.67808
1247.6	2.61386
1247.87	-2.63693
1248.15	1.53547
1248.43	6.75688
1248.7	1.52227
1248.98	1.51435
1249.25	2.54976
1249.53	-0.595913
1249.8	-1.65268
1250.08	-0.623432
1250.36	0.406002
1250.63	2.48136
1250.91	3.51207
1251.18	0.36414
1251.46	0.350693
1251.74	5.55861
1252.01	-4.89693
1252.29	1.35365
1252.56	1.33959
1252.84	-0.759216
1253.11	4.45035
1253.39	-1.81408
1253.66	1.31675
1253.94	3.4058
1254.22	1.31666
1254.49	3.40015
1254.77	1.30746
1255.04	2.34699
1255.32	-0.792755
1255.59	2.33449
1255.87	1.28686
1256.14	1.28585
1256.42	1.28366
1256.7	-1.85561
1256.97	1.26855
1257.25	5.43662
1257.52	4.38419
1257.8	5.42016
1258.07	6.45592
1258.35	6.44197
1258.62	5.38903
1258.9	0.169044
1259.18	5.38581
1259.45	2.26744
1259.73	-1.91732
1260	2.24751
1260.28	1.18657
1260.55	3.25888
1260.83	7.42016
1261.1	4.28222
1261.38	9.52323
1261.65	5.38779
1261.93	8.59147
1262.2	7.47924
1262.48	9.51046
1262.75	14.6648
1263.03	16.7922
1263.31	13.6987
1263.58	14.7756
1263.85	11.6975
1264.13	8.52439
1264.41	11.6402
1264.68	4.31936
1264.96	10.5901
1265.23	3.26059
1265.51	9.5257
1265.78	8.48046
1266.06	7.43803
1266.33	6.39784
1266.61	7.44996
1266.88	10.5959
1267.16	15.8369
1267.43	5.38755
1267.71	8.54103
1267.98	12.7494
1268.26	16.9479
1268.53	11.7173
1268.81	7.53183
1269.08	5.43726
1269.36	11.7139
1269.63	13.795
1269.91	11.6867
1270.18	22.1442
1270.46	9.57188
1270.73	12.7057
1271.01	10.6079
1271.28	12.6984
1271.56	9.56671
1271.83	11.6718
1272.1	9.59288
1272.38	14.8446
1272.65	14.857
1272.93	10.678
1273.2	10.69
1273.48	12.7994
1273.75	13.8584
1274.03	14.9123
1274.3	15.9613
1274.58	15.9608
1274.85	14.9156
1275.13	10.7268
1275.4	12.8339
1275.68	11.7953
1275.95	17.0545
1276.22	12.8654
1276.5	10.7738
1276.78	5.5325
1277.05	17.1
1277.32	13.9613
1277.6	8.71766
1277.87	15.0348
1278.15	16.1006
1278.42	9.80201
1278.7	15.0714
1278.97	10.8663
1279.24	10.865
1279.52	9.80984
1279.79	14.0151
1280.07	18.2261
1280.34	15.0764
1280.62	17.1922
1280.89	15.1061
1281.17	21.4347
1281.44	19.3322
1281.71	29.8636
1281.99	31.982
1282.26	38.2972
1282.54	64.5893
1282.81	69.7629
1283.09	97.0254
1283.36	132.76
1283.63	147.421
1283.91	147.863
1284.18	103.705
1284.46	68.9576
1284.73	45.7424
1285.01	33.0732
1285.28	19.3814
1285.55	17.291
1285.83	10.9836
1286.1	7.81631
1286.38	9.92485
1286.65	4.66304
1286.93	9.926
1287.2	5.71129
1287.47	5.70881
1287.75	9.92062
1288.02	7.8211
1288.3	6.77415
1288.57	1.52085
1288.84	0.478912
1289.12	8.91278
1289.39	5.7664
1289.67	5.77945
1289.94	2.6277
1290.21	5.78751
1290.49	3.68235
1290.76	2.63288
1291.04	3.69059
1291.31	2.64142
1291.58	3.69798
1291.86	2.65203
1292.13	0.551739
1292.4	3.71166
1292.68	0.55724
1292.95	1.62185
1293.23	1.6435
1293.5	4.8256
1293.77	0.626106
1294.05	1.68435
1294.32	-1.47357
1294.59	3.80397
1294.87	3.82387
1295.14	4.9039
1295.42	3.87885
1295.69	0.738289
1295.96	3.92218
1296.24	-0.298668
1296.51	-0.29388
1296.79	3.93374
1297.06	2.87593
1297.33	2.87387
1297.61	-0.297504
1297.88	4.98579
1298.15	0.770817
1298.43	1.82742
1298.7	1.82831
1298.97	-3.44869
1299.25	3.94387
1299.52	1.84294
1299.79	6.07843
1300.07	-2.35969
1300.34	3.98175
1300.61	6.0984
1300.89	-3.39679
1301.16	7.17332
1301.44	4.01893
1301.71	5.08664
1301.98	1.92676
1302.26	-1.23494
1302.53	-2.28554
1302.8	0.887295
1303.08	-0.166801
1303.35	1.94897
1303.62	5.12413
1303.9	-0.147766
1304.17	0.915455
1304.44	-0.135647
1304.72	5.14517
1304.99	-1.18832
1305.26	0.922398
1305.54	-0.133327
1305.81	-0.133114
1306.08	-1.18453
1306.36	-1.17804
1306.63	3.05047
1306.9	-0.103741
1307.18	-2.20522
1307.45	-1.1431
1307.72	-3.24294
1307.99	0.982983
1308.27	-0.0633888
1308.54	-0.0508423
1308.81	-2.14777
1309.09	2.0861
1309.36	-0.0116653
1309.63	-2.11347
1309.91	0.00344849
1310.18	-3.15472
1310.45	3.18642
1310.73	0.0309219
1311	1.09649
1311.27	-4.1705
1311.54	-3.10158
1311.82	3.24723
1312.09	3.25968
1312.36	-2.01001
1312.64	-0.95047
1312.91	2.22244
1313.18	1.17387
1313.45	-0.931496
1313.73	3.29847
1314	2.25323
1314.27	-5.12423
1314.55	-3.00021
1314.82	1.23632
1315.09	-0.862209
1315.36	-1.90483
1315.64	0.218094
1315.91	3.39367
1316.18	2.34491
1316.46	3.40915
1316.73	0.249851
1317	2.37428
1317.28	2.38823
1317.55	0.287746
1317.82	3.4682
1318.09	0.309582
1318.37	-2.84985
1318.64	4.55444
1318.91	4.56271
1319.18	0.345417
1319.46	2.46883
1319.73	0.366955
1320	0.375885
1320.27	-1.73063
1320.55	-0.670818
1320.82	1.44218
1321.09	0.385605
1321.36	-0.667389
1321.64	-1.72088
1321.91	-0.662128
1322.18	-1.71135
1322.45	1.45792
1322.73	1.46068
1323	2.52588
1323.27	-3.78804
1323.54	-4.8314
1323.82	0.450264
1324.09	0.460953
1324.36	1.5243
1324.63	0.482903
1324.91	1.54293
1325.18	-2.67615
1325.45	-2.6812
1325.72	-0.588734
1325.99	2.56419
1326.27	0.463615
1326.54	1.53085
1326.81	-0.541119
1327.08	0.536575
1327.36	2.66611
1327.63	2.69035
1327.9	1.66108
1328.17	2.73892
1328.45	1.70374
1328.72	-2.51221
1328.99	1.72255
1329.26	3.84287
1329.53	-0.368687
1329.81	0.693344
1330.08	-4.57487
1330.35	-1.40685
1330.62	-2.45901
1330.9	3.86451
1331.17	-1.40863
1331.44	-0.357471
1331.71	0.69696
1331.98	3.85516
1332.26	0.69788
1332.53	-0.355419
1332.8	-2.45801
1333.07	0.696003
1333.34	-0.353371
1333.62	0.698555
1333.89	1.75063
1334.16	2.8025
1334.43	2.80545
1334.7	2.80964
1334.98	-2.43221
1335.25	-0.328651
1335.52	3.87217
1335.79	-0.31723
1336.06	2.83496
1336.34	2.84155
1336.61	0.752567
1336.88	2.85717
1337.15	1.81707
1337.42	-2.36914
1337.69	0.775703
1337.96	1.82907
1338.24	-1.30658
1338.51	-4.44181
1338.78	0.80349
1339.05	0.814995
1339.32	5.01709
1339.6	0.841118
1339.87	0.853058
1340.14	-3.32299
1340.41	0.877655
1340.68	0.887634
1340.95	0.89711
1341.23	4.04659
1341.5	0.91206
1341.77	7.19744
1342.04	1.96664
1342.31	3.01484
1342.58	1.97305
1342.86	0.935528
1343.13	-3.23815
1343.4	0.9562
1343.67	2.01377
1343.94	2.02576
1344.21	2.03563
1344.48	3.08803
1344.76	-1.08944
1345.03	-3.17697
1345.3	5.1849
1345.57	2.05183
1345.84	3.09253
1346.11	3.08916
1346.39	-0.0399399
1346.66	1.00469
1346.93	1.00637
1347.2	3.09547
1347.47	3.10178
1347.74	-1.05942
1348.01	7.28736
1348.28	-1.04237
1348.55	3.13131
1348.83	2.09439
1349.1	5.22399
1349.37	4.18746
1349.64	1.06915
1349.91	-1.00712
1350.18	1.07907
1350.45	-2.03907
1350.73	2.12753
1351	3.17161
1351.27	2.13807
1351.54	4.22792
1351.81	1.1222
1352.08	2.17983
1352.35	-1.96027
1352.62	6.3815
1352.89	1.20998
1353.17	4.38213
1353.44	4.38527
1353.71	0.18581
1353.98	-0.883459
1354.25	1.19753
1354.52	4.33101
1354.79	3.29679
1355.06	1.21727
1355.33	4.3511
1355.6	0.222137
1355.88	0.223801
1356.15	3.34827
1356.42	4.39542
1356.69	4.40395
1356.96	5.44981
1357.23	8.57078
1357.5	4.42327
1357.77	3.3905
1358.04	4.43356
1358.31	3.40137
1358.58	4.44252
1358.86	3.41126
1359.13	3.41836
1359.4	3.42395
1359.67	3.42414
1359.94	8.60732
1360.21	4.46489
1360.48	5.50826
1360.75	10.6977
1361.02	2.42223
1361.29	3.46766
1361.56	2.4407
1361.83	2.44781
1362.1	10.7399
1362.37	4.53614
1362.65	6.61945
1362.92	6.63594
1363.19	6.65418
1363.46	3.5625
1363.73	13.9357
1364	8.76514
1364.27	10.8448
1364.54	6.70775
1364.81	9.81744
1365.08	3.60843
1365.35	6.71643
1365.62	10.8581
1365.89	6.72206
1366.16	13.9627
1366.43	6.72256
1366.7	13.9593
1366.97	17.0665
1367.24	10.878
1367.52	13.9958
1367.79	12.9764
1368.06	11.9569
1368.33	15.0726
1368.6	22.3247
1368.87	16.1365
1369.14	21.316
1369.41	15.1179
1369.68	17.1915
1369.95	16.16
1370.22	16.1621
1370.49	14.1
1370.76	15.1333
1371.03	15.1301
1371.3	16.1565
1371.57	13.0539
1371.84	21.3005
1372.11	18.2027
1372.38	21.2964
1372.65	18.2077
1372.92	21.3046
1373.19	24.4015
1373.46	20.286
1373.73	26.4754
1374	26.4828
1374.27	32.6711
1374.54	31.6452
1374.81	19.2941
1375.08	30.642
1375.35	32.7155
1375.62	32.7294
1375.89	28.6112
1376.16	35.8167
1376.43	30.6604
1376.7	44.0241
1376.97	48.1461
1377.24	50.2317
1377.51	39.9747
1377.78	58.5592
1378.05	57.591
1378.32	57.6295
1378.59	59.7061
1378.86	65.8935
1379.13	64.8609
1379.4	65.8861
1379.67	72.0502
1379.94	67.8654
1380.21	81.1991
1380.48	72.9253
1380.75	77.0601
1381.02	83.2298
1381.29	82.1668
1381.56	79.0386
1381.83	76.9455
1382.1	78.9706
1382.37	77.9104
1382.64	76.864
1382.91	77.8655
1383.18	68.6266
1383.45	72.7184
1383.72	69.6532
1383.99	75.8205
1384.26	67.6448
1384.53	69.7263
1384.8	70.8059
1385.07	70.8444
1385.34	76.0177
1385.61	82.199
1385.87	88.3982
1386.14	120.266
1386.41	173.697
1386.68	276.393
1386.95	362.959
1387.22	336.666
1387.49	202.285
1387.76	111.469
1388.03	76.8988
1388.3	59.611
1388.57	44.3235
1388.84	40.2205
1389.11	39.2261
1389.38	36.1446
1389.65	28.9321
1389.92	26.8339
1390.19	24.8163
1390.46	26.8438
1390.73	23.7705
1390.99	24.805
1391.26	21.7303
1391.53	14.5561
1391.8	21.7239
1392.07	18.6526
1392.34	12.5127
1392.61	20.707
1392.88	12.5232
1393.15	15.5996
1393.42	10.4889
1393.69	17.659
1393.96	10.5033
1394.23	10.5111
1394.5	12.5682
1394.76	14.6333
1395.03	9.53166
1395.3	9.54515
1395.57	11.6022
1395.84	14.6801
1396.11	4.45045
1396.38	5.47912
1396.65	6.50676
1396.92	8.55507
1397.19	6.51392
1397.46	8.56771
1397.73	11.6475
1397.99	12.6843
1398.26	9.62899
1398.53	6.57174
1398.8	8.6322
1399.07	10.6942
1399.34	6.61402
1399.61	9.69548
1399.88	8.68447
1400.14	4.60686
1400.41	4.62267
1400.68	10.7773
1400.95	8.74077
1401.22	9.77631
1401.49	6.72067
1401.76	12.8965
1402.03	5.75381
1402.3	4.75588
1402.57	6.83082
1402.83	4.79534
1403.1	8.91369
1403.37	5.83899
1403.64	8.91038
1403.91	10.967
1404.18	-0.309252
1404.45	6.87781
1404.72	5.85556
1404.99	5.85812
1405.25	2.78468
1405.52	7.91407
1405.79	8.94341
1406.06	3.8239
1406.33	4.85798
1406.6	12.0443
1406.87	15.1323
1407.13	8.9932
1407.4	7.97929
1407.67	10.0411
1407.94	17.2299
1408.21	16.2166
1408.48	18.2806
1408.75	20.3449
1409.01	14.2036
1409.28	12.1637
1409.55	9.09694
1409.82	3.97196
1410.09	6.02323
1410.36	6.02065
1410.62	4.99491
1410.89	2.94738
1411.16	2.95093
1411.43	7.05431
1411.7	3.99216
1411.97	1.95865
1412.23	3.00507
1412.5	6.12998
1412.77	3.0926
1413.04	6.17602
1413.31	3.04994
1413.58	4.07682
1413.84	6.15652
1414.11	2.08348
1414.38	0.0381336
1414.65	6.20728
1414.92	0.0557938
1415.19	5.19771
1415.45	0.074625
1415.72	-1.96824
1415.99	1.12355
1416.26	4.21589
1416.53	4.22807
1416.8	4.24015
1417.06	0.142666
1417.33	-0.874495
1417.6	2.21695
1417.87	-1.88496
1418.14	1.20848
1418.4	3.27108
1418.67	-1.85732
1418.94	2.25942
1419.21	1.23441
1419.48	-0.819048
1419.74	3.29197
1420.01	0.212568
1420.28	-0.813099
1420.55	1.24163
1420.82	2.27096
1421.08	3.30501
1421.35	3.31754
1421.62	3.33914
1421.89	1.3
1422.16	3.37819
1422.42	1.35003
1422.69	0.362747
1422.96	3.46266
1423.23	2.28216
1423.5	2.32909
1423.76	-0.768101
1424.03	0.240284
1424.3	1.29748
1424.57	4.37528
1424.83	4.4275
1425.1	1.32528
1425.37	0.328857
1425.64	0.333761
1425.91	-0.687771
1426.17	6.49013
1426.44	0.336525
1426.71	4.4346
1426.98	1.35667
1427.24	2.37419
1427.51	1.35088
1427.78	3.40236
1428.05	-0.686573
1428.32	3.41741
1428.58	3.42677
1428.85	0.364653
1429.12	2.42413
1429.38	-3.70984
1429.65	2.45176
1429.92	5.54164
1430.19	-1.62021
1430.46	0.448826
1430.72	0.468252
1430.99	1.50834
1431.26	6.64918
1431.53	5.62571
1431.79	-1.55854
1432.06	-2.58348
1432.33	-0.53091
1432.6	-1.56074
1432.86	-0.540449
1433.13	0.478123
1433.4	-1.57329
1433.67	0.47677
1433.93	2.53661
1434.2	1.53276
1434.47	-0.508762
1434.73	7.69595
1435	-0.496056
1435.27	0.533768
1435.54	1.56285
1435.8	0.54232
1436.07	2.59502
1436.34	1.57356
1436.6	6.69837
1436.87	-0.467464
1437.14	-2.51173
1437.41	5.68473
1437.67	-3.52619
1437.94	4.67684
1438.21	2.63805
1438.48	1.62128
1438.74	2.65295
1439.01	1.63774
1439.28	6.77394
1439.54	1.66352
1439.81	0.649822
1440.08	2.70895
1440.35	2.7157
1440.61	-2.40482
1440.88	0.676613
1441.15	-2.39778
1441.41	0.680138
1441.68	1.71383
1441.95	1.72218
1442.21	1.73197
1442.48	0.71183
1442.75	-2.36369
1443.02	-0.311943
1443.28	3.79062
1443.55	2.76877
1443.82	-1.32593
1444.08	3.81182
1444.35	2.79989
1444.62	-2.31441
1444.88	1.79636
1445.15	0.772776
1445.42	-0.250582
1445.69	-1.27369
1445.95	3.85756
1446.22	3.86006
1446.49	0.78598
1446.75	-0.237207
1447.02	4.89092
1447.28	-1.25937
1447.55	-0.230806
1447.82	1.82779
1448.09	-0.211361
1448.35	1.84819
1448.62	-3.2748
1448.89	-2.24597
1449.15	-3.26978
1449.42	-1.21831
1449.69	2.88221
1449.95	-0.191851
1450.22	-1.21456
1450.49	-0.187256
1450.75	2.88951
1451.02	2.89098
1451.29	-1.20638
1451.55	2.894
1451.82	-2.2261
1452.09	1.87634
1452.35	-2.21665
1452.62	1.889
1452.88	-2.20225
1453.15	1.90266
1453.42	2.93015
1453.68	0.882715
1453.95	-2.1876
1454.22	-2.18325
1454.48	-0.129915
1454.75	0.89699
1455.02	2.94897
1455.28	0.908638
1455.55	1.94163
1455.81	-0.103239
1456.08	-0.100498
1456.35	0.923988
1456.61	-4.20066
1456.88	-0.101032
1457.15	0.925352
1457.41	-1.12136
1457.68	0.931225
1457.95	-3.16224
1458.21	0.940718
1458.48	-0.0783081
1458.74	-2.12278
1459.01	-0.0686436
1459.28	1.98362
1459.54	-0.0635967
1459.81	-3.13532
1460.08	1.98825
1460.34	0.964657
1460.61	0.964327
1460.87	-4.15617
1461.14	4.03535
1461.41	-1.08529
1461.67	0.960482
1461.94	-1.08874
1462.2	3.00154
1462.47	0.951817
1462.74	0.948095
1463	-0.0782948
1463.27	1.96499
1463.54	-1.09431
1463.8	-2.09933
1464.07	0.983879
1464.33	3.04532
1464.6	4.08833
1464.86	2.99067
1465.13	2.96128
1465.4	1.92837
1465.66	-2.13883
1465.93	-3.15296
1466.19	2.96226
1466.46	-0.108231
1466.73	-3.15994
1466.99	2.96285
1467.26	3.9835
1467.52	0.924137
1467.79	-0.0936794
1468.05	-2.13139
1468.32	-0.0895271
1468.59	-3.14903
1468.85	3.98943
1469.12	0.928413
1469.38	-1.11499
1469.65	-1.11834
1469.92	-3.15803
1470.18	1.93626
1470.45	-1.12083
1470.71	-0.101349
1470.98	-2.14192
1471.24	3.96652
1471.51	3.96594
1471.77	0.912174
1472.04	-0.104486
1472.31	3.97006
1472.57	-1.11991
1472.84	-0.102707
1473.1	-0.105103
1473.37	-2.14198
1473.64	-1.12463
1473.9	-2.14083
1474.17	0.915785
1474.43	1.93902
1474.7	4.99545
1474.96	-3.14521
1475.23	4.99732
1475.49	-2.12804
1475.76	-2.1293
1476.02	-2.12928
1476.29	-2.13041
1476.55	0.918232
1476.82	-2.13442
1477.09	-1.11663
1477.35	0.918516
1477.62	-4.1658
1477.88	2.94889
1478.15	-0.104324
1478.41	2.94262
1478.68	1.92317
1478.94	-1.1287
1479.21	2.9309
1479.47	-0.120966
1479.74	0.88768
1480	0.879959
1480.27	-1.1548
1480.53	-1.15677
1480.8	0.870222
1481.07	-0.143084
1481.33	-1.15222
1481.6	-1.14576
1481.86	-2.15378
1482.12	2.92859
1482.39	5.97796
1482.65	-1.12541
1482.92	-2.13684
1483.19	0.911856
1483.45	-1.11808
1483.72	4.9675
1483.98	-2.15049
1484.25	-1.15827
1484.51	2.85879
1484.78	1.82286
1485.04	2.81292
1485.31	2.85212
1485.57	-5.22003
1485.84	1.88628
1486.1	-3.19564
1486.37	-0.156689
1486.63	-4.20025
1486.9	2.89023
1487.16	2.88326
1487.43	4.90462
1487.69	0.850138
1487.96	2.87033
1488.22	2.86399
1488.49	-1.18953
1488.75	4.87893
1489.02	-1.1938
1489.28	-3.2183
1489.54	-1.19466
1489.81	1.84122
1490.07	-2.20656
1490.34	1.83548
1490.6	-5.24831
1490.87	6.88246
1491.13	2.83705
1491.4	-2.21772
1491.66	0.817238
1491.93	0.8179
1492.19	-2.21561
1492.46	-3.22691
1492.72	2.83944
1492.99	-1.20497
1493.25	1.82685
1493.52	0.816545
1493.78	0.818634
1494.04	-2.21082
1494.31	0.823092
1494.57	-0.190325
1494.84	-0.196625
1495.1	-3.23681
1495.37	1.8054
1495.63	4.82861
1495.9	-1.23347
1496.16	4.82066
1496.43	-0.230577
1496.69	-1.24057
1496.96	1.78784
1497.22	-3.25936
1497.48	-2.25062
1497.75	-0.231777
1498.01	1.78759
1498.28	-3.25729
1498.54	0.781244
1498.81	2.80198
1499.07	2.80494
1499.33	1.79881
1499.6	3.82004
1499.86	-2.23686
1500.13	1.80086
1500.39	4.8291
1500.66	2.80853
1500.92	4.82077
1501.18	2.79942
1501.45	-2.24715
1501.71	2.79781
1501.98	2.79634
1502.24	-0.235783
1502.51	-2.25976
1502.77	3.78932
1503.03	0.757553
1503.3	-1.26099
1503.56	1.76683
1503.83	-1.25647
1504.09	-3.27259
1504.35	-0.24773
1504.62	3.78337
1504.88	1.76277
1505.15	-2.27509
1505.41	0.735741
1505.68	-3.29769
1505.94	1.73871
1506.2	-0.277267
1506.47	-0.271957
1506.73	-2.2861
1507	5.77689
1507.26	-1.27646
1507.52	1.74496
1507.79	1.74226
1508.05	0.734615
1508.32	1.74335
1508.58	2.75168
1508.84	1.74378
1509.11	3.75795
1509.37	-1.27926
1509.63	0.742449
1509.9	1.74425
1510.16	-0.276281
1510.43	-0.282871
1510.69	-2.30417
1510.95	-3.31992
1511.22	1.69799
1511.48	-0.3304
1511.75	1.66629
1512.01	2.65491
1512.27	0.637167
1512.54	1.634
1512.8	4.6391
1513.07	1.62208
1513.33	-1.38855
1513.59	-0.371071
1513.86	2.64862
1514.12	-0.367804
1514.38	1.63573
1514.65	0.621981
1514.91	3.62655
1515.17	-3.40816
1515.44	0.596455
1515.7	-4.42687
1515.96	0.584013
1516.23	-1.42429
1516.49	-4.43491
1516.76	-0.426046
1517.02	1.57873
1517.28	1.57957
1517.55	-3.43052
1517.81	-2.42535
1518.07	0.584694
1518.34	2.59216
1518.6	3.59711
1518.86	-0.413664
1519.13	4.6039
1519.39	-5.42939
1519.65	0.587902
1519.92	-2.42452
1520.18	0.58448
1520.44	3.59603
1520.71	0.588428
1520.97	-0.413937
1521.23	0.588503
1521.5	1.58909
1521.76	-2.42758
1522.02	-1.42824
1522.29	-0.428982
1522.55	-2.43938
1522.81	-0.441374
1523.08	-1.45446
1523.34	1.54194
1523.6	2.53586
1523.87	3.53076
1524.13	-0.480803
1524.39	-0.481382
1524.66	2.52429
1524.92	-1.4812
1525.18	-0.477589
1525.45	1.52998
1525.71	-0.46771
1525.97	0.540236
1526.24	-3.46623
1526.5	1.54535
1526.76	2.54381
1527.02	1.53786
1527.29	-2.47382
1527.55	-1.47479
1527.81	2.52921
1528.08	3.52666
1528.34	0.517441
1528.6	3.51962
1528.87	2.51618
1529.13	0.510662
1529.39	2.50894
1529.65	-1.50038
1529.92	-3.5031
1530.18	2.50961
1530.44	2.51514
1530.71	-0.486193
1530.97	0.516994
1531.23	2.51892
1531.5	-0.487989
1531.76	1.51242
1532.02	2.5141
1532.28	5.52612
1532.55	5.53644
1532.81	-2.47552
1533.07	1.5409
1533.34	3.54942
1533.6	-0.463415
1533.86	-1.46864
1534.12	1.53766
1534.39	-0.472258
1534.65	2.53281
1534.91	-0.480618
1535.17	0.509142
1535.44	1.49904
1535.7	-1.51444
1535.96	4.48476
1536.22	1.46845
1536.49	2.45717
1536.75	-1.55184
1537.01	1.4418
1537.28	0.439079
1537.54	2.43465
1537.8	1.42441
1538.06	4.41742
1538.33	-0.585749
1538.59	-0.583143
1538.85	0.428907
1539.11	-0.552361
1539.38	1.46581
1539.64	1.47805
1539.9	1.49063
1540.16	-0.505793
1540.43	1.50543
1540.69	2.49751
1540.95	-0.514881
1541.21	-3.52863
1541.48	0.471664
1541.74	3.4684
1542	-1.54827
1542.26	0.446602
1542.52	1.43993
1542.79	2.43255
1543.05	4.42346
1543.31	1.40882
1543.57	2.40605
1543.84	-3.59456
1544.1	1.40936
1544.36	2.41782
1544.62	4.42463
1544.89	-0.569656
1545.15	3.4428
1545.41	-0.559814
1545.67	6.45525
1545.93	-1.56047
1546.2	-0.559708
1546.46	-0.558067
1546.72	2.44958
1546.98	4.45728
1547.25	1.44841
1547.51	2.43181
1547.77	5.43139
1548.03	-0.57995
1548.29	1.43595
1548.56	3.41944
1548.82	1.38163
1549.08	0.363947
1549.34	1.37197
1549.61	0.394024
1549.87	0.437935
1550.13	4.48082
1550.39	5.53329
1550.65	0.493273
1550.91	-3.52474
1551.18	1.493
1551.44	3.4847
1551.7	1.48406
1551.96	0.495699
1552.22	-0.511009
1552.49	2.49833
1552.75	2.47224
1553.01	1.45862
1553.27	-0.55097
1553.53	4.45823
1553.79	4.44827
1554.06	1.42993
1554.32	4.42219
1554.58	2.41142
1554.84	1.40572
1555.1	6.41207
1555.37	3.40711
1555.63	2.40713
1555.89	3.40217
1556.15	-2.6098
1556.41	4.40239
1556.68	2.39993
1556.94	2.40011
1557.2	-0.607183
1557.46	5.39893
1557.72	4.38488
1557.98	2.37413
1558.25	2.36252
1558.51	0.350428
1558.77	3.34154
1559.03	2.33283
1559.29	4.32532
1559.55	6.31825
1559.82	-1.68308
1560.08	2.31117
1560.34	5.3057
1560.6	5.30355
1560.86	5.30318
1561.12	2.30885
1561.38	1.31495
1561.65	6.32506
1561.91	1.32621
1562.17	3.32459
1562.43	1.32077
1562.69	6.32054
1562.95	0.317623
1563.21	6.31308
1563.48	0.318676
1563.74	3.3307
1564	3.3368
1564.26	5.33795
1564.52	-0.676447
1564.78	6.27954
1565.04	3.20867
1565.3	5.13042
1565.57	5.21778
1565.83	5.29422
1566.09	3.29593
1566.35	5.26925
1566.61	-1.71606
1566.87	4.31078
1567.13	-1.68726
1567.39	9.29304
1567.66	3.28833
1567.92	6.29131
1568.18	5.29402
1568.44	7.29233
1568.7	1.28288
1568.96	3.272
1569.22	4.26811
1569.48	4.26923
1569.75	-0.72735
1570.01	8.26697
1570.27	0.270483
1570.53	4.26605
1570.79	-0.733757
1571.05	7.25496
1571.31	7.24726
1571.57	1.2503
1571.83	1.24668
1572.1	-3.75293
1572.36	3.23155
1572.62	4.22448
1572.88	4.21828
1573.14	6.20806
1573.4	4.20963
1573.66	3.21486
1573.92	-0.772463
1574.18	5.2247
1574.44	4.23361
1574.7	7.23816
1574.97	4.24717
1575.23	8.24725
1575.49	4.24742
1575.75	4.2457
1576.01	5.24197
1576.27	2.23568
1576.53	-3.76833
1576.79	3.20947
1577.05	3.19726
1577.31	6.17877
1577.57	3.17507
1577.83	2.16976
1578.1	4.15968
1578.36	4.15811
1578.62	6.15086
1578.88	5.1532
1579.14	11.1352
1579.4	5.15714
1579.66	4.16261
1579.92	6.15768
1580.18	4.162
1580.44	7.14972
1580.7	4.15268
1580.96	4.14767
1581.22	9.12445
1581.48	6.12574
1581.74	4.12843
1582	7.11423
1582.26	9.10311
1582.53	4.11935
1582.79	10.0938
1583.05	3.12021
1583.31	7.1005
1583.57	0.1269
1583.83	6.10413
1584.09	4.11404
1584.35	6.10746
1584.61	8.09955
1584.87	5.10892
1585.13	6.10349
1585.39	9.08893
1585.65	3.10625
1585.91	0.110914
1586.17	10.058
1586.43	11.0469
1586.69	1.09083
1586.95	2.08244
1587.21	7.05457
1587.47	10.0382
1587.73	7.05504
1587.99	9.04827
1588.25	8.05804
1588.51	7.06697
1588.77	10.0576
1589.03	4.08806
1589.29	7.0765
1589.55	4.08902
1589.81	10.0644
1590.07	6.08506
1590.33	6.08899
1590.59	7.08434
1590.85	9.0757
1591.12	8.07761
1591.38	6.08289
1591.64	7.07205
1591.9	9.05144
1592.16	7.05047
1592.42	9.03513
1592.68	8.02848
1592.94	4.03735
1593.2	9.98534
1593.46	8.97943
1593.72	4.99899
1593.98	10.9564
1594.24	10.959
1594.5	5.99915
1594.76	9.97863
1595.02	7.00279
1595.28	7.98042
1595.54	9.96197
1595.8	1.02257
1596.06	3.00891
1596.32	6.98255
1596.58	6.98458
1596.84	1.02702
1597.09	2.02361
1597.35	7.98488
1597.61	5.99544
1597.87	8.97034
1598.13	10.9468
1598.39	8.95076
1598.65	16.8837
1598.91	10.9212
1599.17	7.93778
1599.43	9.91554
1599.69	10.9012
1599.95	6.92715
1600.21	10.8854
1600.47	8.89134
1600.73	10.8609
1600.99	2.92298
1601.25	7.86513
1601.51	10.8271
1601.77	13.7891
1602.03	12.7908
1602.29	10.802
1602.55	9.80375
1602.81	6.82891
1603.07	7.81272
1603.33	13.7416
1603.59	4.84147
1603.85	6.81923
1604.11	12.7531
1604.37	7.81003
1604.63	8.79969
1604.89	9.78986
1605.14	9.79213
1605.4	8.808
1605.66	13.7585
1605.92	10.7968
1606.18	6.84425
1606.44	8.82687
1606.7	10.808
1606.96	5.86109
1607.22	10.8591
1607.48	11.9147
1607.74	12.0958
1608	14.8492
1608.26	9.39198
1608.52	12.2558
1608.78	10.628
1609.04	14.6826
1609.29	10.9361
1609.55	15.2058
1609.81	9.65291
1610.07	17.2033
1610.33	14.7712
1610.59	14.1408
1610.85	15.9429
1611.11	12.5227
1611.37	17.4273
1611.63	9.71586
1611.89	13.9501
1612.15	12.217
1612.4	10.1893
1612.66	15.7156
1612.92	13.7589
1613.18	13.5192
1613.44	16.4624
1613.7	15.4534
1613.96	11.3573
1614.22	12.878
1614.48	12.489
1614.74	14.3321
1615	17.0024
1615.25	13.0252
1615.51	17.098
1615.77	15.9204
1616.03	17.8772
1616.29	12.8649
1616.55	15.5698
1616.81	19.5951
1617.07	14.5274
1617.33	13.679
1617.59	19.8835
1617.84	16.8437
1618.1	17.5939
1618.36	16.1078
1618.62	17.7006
1618.88	20.1282
1619.14	21.2453
1619.4	19.655
1619.66	18.1847
1619.91	16.0075
1620.17	18.8542
1620.43	19.7287
1620.69	20.2555
1620.95	18.9785
1621.21	19.115
1621.47	21.4762
1621.73	21.366
1621.98	20.7406
1622.24	23.2616
1622.5	21.6586
1622.76	23.2816
1623.02	21.6806
1623.28	18.1892
1623.54	18.0868
1623.79	20.4374
1624.05	21.5516
1624.31	21.3719
1624.57	24.0322
1624.83	21.2416
1625.09	21.0097
1625.35	21.2482
1625.6	22.2576
1625.86	17.6738
1626.12	25.4811
1626.38	23.6812
1626.64	20.1861
1626.9	23.7465
1627.16	28.8942
1627.41	25.3942
1627.67	21.3536
1627.93	20.9824
1628.19	24.8958
1628.45	24.834
1628.71	21.7535
1628.96	22.3631
1629.22	21.8343
1629.48	25.6694
1629.74	26.6064
1630	25.5611
1630.26	20.2392
1630.51	25.1601
1630.77	25.2324
1631.03	25.3935
1631.29	20.7075
1631.3	20.5893
1631.56	28.4841
1631.82	25.5293
1632.08	22.5854
1632.34	28.5291
1632.6	26.5489
1632.86	24.5514
1633.13	28.484
1633.39	27.5064
1633.65	27.5177
1633.91	29.4953
1634.17	23.5851
1634.43	27.5296
1634.69	31.4724
1634.96	28.5142
1635.22	28.5119
1635.48	29.4937
1635.74	25.5476
1636	23.5725
1636.26	23.5675
1636.52	26.5163
1636.79	25.5231
1637.05	30.4425
1637.31	28.4737
1637.57	22.5639
1637.83	25.514
1638.09	25.5111
1638.35	22.561
1638.61	27.4855
1638.87	29.4559
1639.13	27.4893
1639.4	22.5694
1639.66	24.5383
1639.92	22.5716
1640.18	30.4605
1640.44	27.5182
1640.7	29.4936
1640.96	25.5541
1641.22	25.5501
1641.48	31.4555
1641.75	17.6725
1642.01	20.6263
1642.27	32.4386
1642.53	23.5802
1642.79	28.5027
1643.05	30.4731
1643.31	30.4711
1643.57	27.5151
1643.83	29.4775
1644.09	24.5514
1644.35	27.5036
1644.62	28.4922
1644.88	24.5684
1645.14	25.5588
1645.4	25.5642
1645.66	23.5938
1645.92	25.558
1646.18	25.5547
1646.44	31.4556
1646.7	27.5189
1646.96	21.6134
1647.22	25.5456
1647.48	25.5459
1647.74	31.4515
1648.01	23.5949
1648.27	30.4944
1648.53	25.6009
1648.79	25.6241
1649.05	29.5575
1649.31	31.5236
1649.57	28.5707
1649.83	22.6802
1650.09	22.6987
1650.35	29.6057
1650.61	24.6947
1650.87	22.7348
1651.13	33.5813
1651.39	25.7017
1651.65	21.763
1651.92	28.6662
1652.18	31.6221
1652.44	32.6025
1652.7	31.6163
1652.96	29.6486
1653.22	24.7278
1653.48	20.7944
1653.74	31.6416
1654	23.7635
1654.26	26.7268
1654.52	25.751
1654.78	23.7929
1655.04	25.7832
1655.3	29.7521
1655.56	21.8771
1655.82	26.824
1656.08	25.8461
1656.34	26.8396
1656.6	30.7907
1656.86	28.8154
1657.12	22.891
1657.38	27.8249
1657.64	23.877
1657.9	22.8883
1658.16	22.8847
1658.42	28.7991
1658.69	25.8351
1658.95	28.7888
1659.21	24.8397
1659.47	26.8034
1659.73	26.8088
1659.99	25.8333
1660.25	27.8175
1660.51	25.8587
1660.77	21.9266
1661.03	24.9014
1661.29	21.9495
1661.55	23.9379
1661.81	16.9794
1662.07	20.0267
1662.33	19.1076
1662.59	21.0632
1662.85	25.9986
1663.11	24.0369
1663.37	27.8399
1663.63	24.9513
1663.89	24.9719
1664.15	24.9754
1664.41	25.9948
1664.67	24.0451
1664.93	20.0571
1665.19	17.9925
1665.45	21.1102
1665.71	21.1323
1665.97	23.0995
1666.23	17.1635
1666.49	25.7858
1666.75	25.9984
1667.01	20.0682
1667.27	21.0493
1667.53	24.9964
1667.79	22.0306
1668.05	20.0596
1668.31	24.0286
1668.56	23.0815
1668.83	21.1175
1669.09	25.0735
1669.35	22.1162
1669.6	22.1181
1669.86	15.2026
1670.12	19.1798
1670.38	19.207
1670.64	13.2756
1670.9	25.1364
1671.16	18.2199
1671.42	19.213
1671.68	18.2338
1671.94	20.2168
1672.2	19.2328
1672.46	17.2593
1672.72	20.2304
1672.98	18.2595
1673.24	20.2441
1673.5	16.2983
1673.76	16.3087
1674.02	19.286
1674.28	19.2964
1674.54	21.288
1674.8	19.3221
1675.06	21.3104
1675.32	25.2749
1675.58	17.3614
1675.83	23.3047
1676.1	19.3532
1676.35	20.3491
1676.61	16.3943
1676.87	15.4068
1677.13	12.4386
1677.39	21.343
1677.65	9.46649
1677.91	19.3536
1678.17	20.3378
1678.43	19.3463
1678.69	16.379
1678.95	19.345
1679.21	13.4141
1679.47	13.4143
1679.73	17.3685
1679.98	20.3332
1680.25	18.3566
1680.5	17.3689
1680.76	17.3709
1681.02	21.3261
1681.28	12.4391
1681.54	15.4074
1681.8	19.3641
1682.06	9.4903
1682.32	15.4213
1682.58	26.2914
1682.84	15.4287
1683.1	15.4333
1683.35	16.4249
1683.61	13.4637
1683.87	22.3515
1684.13	16.4259
1684.39	10.5031
1684.65	17.4188
1684.91	17.4226
1685.17	16.4396
1685.43	10.5199
1685.69	16.4504
1685.95	9.54526
1686.2	15.4845
1686.46	12.5311
1686.72	15.5015
1686.98	15.5035
1687.24	15.5034
1687.5	14.5154
1687.76	15.5038
1688.02	16.4916
1688.28	14.5161
1688.54	10.563
1688.79	13.5221
1689.05	14.5064
1689.31	16.4765
1689.57	12.5257
1689.83	5.62102
1690.09	17.4724
1690.35	15.5106
1690.6	12.5599
1690.86	12.5674
1691.12	14.5496
1691.38	15.5465
1691.64	12.5913
1691.9	16.5422
1692.16	13.5812
1692.42	12.5917
1692.68	12.5878
1692.93	17.5127
1693.19	10.6034
1693.45	9.61388
1693.71	10.5975
1693.97	6.65346
1694.23	13.5484
1694.49	17.4919
1694.74	10.604
1695	13.567
1695.26	12.5895
1695.52	9.64173
1695.78	7.68093
1696.04	10.6467
1696.3	12.6234
1696.55	7.69829
1696.81	14.5943
1697.07	12.6189
1697.33	10.6438
1697.59	12.6094
1697.85	11.6231
1698.11	7.68495
1698.36	13.5895
1698.62	13.5913
1698.88	11.6274
1699.14	9.66644
1699.4	9.67266
1699.66	8.69457
1699.92	8.6946
1700.17	6.72955
1700.43	7.71732
1700.69	9.68821
1700.95	7.72322
1701.21	8.70677
1701.46	12.6382
1701.72	9.6868
1701.98	11.6507
1702.24	9.68324
1702.5	10.6683
1702.76	6.74204
1703.01	6.74552
1703.27	8.71281
1703.53	9.69821
1703.79	6.75879
1704.05	6.76901
1704.3	7.75902
1704.56	12.6765
1704.82	11.6968
1705.08	11.7021
1705.34	6.79531
1705.6	5.81367
1705.85	10.7235
1706.11	10.72
1706.37	9.73409
1706.63	7.767
1706.89	8.7464
1707.14	5.79929
1707.4	3.83269
1707.66	7.74983
1707.92	7.74438
1708.18	3.81771
1708.43	7.73012
1708.69	6.74789
1708.95	6.74784
1709.21	7.7297
1709.47	3.81885
1709.72	8.71989
1709.98	4.81072
1710.24	9.71369
1710.5	9.72571
1710.76	8.75578
1711.01	9.74427
1711.27	3.87633
1711.53	6.82179
1711.79	5.84522
1712.04	6.82187
1712.3	7.79204
1712.56	4.84758
1712.82	7.77295
1713.08	6.78937
1713.33	3.84873
1713.59	5.80223
1713.85	7.75739
1714.11	6.78284
1714.36	6.78653
1714.62	7.76807
1714.88	10.7084
1715.14	6.81679
1715.4	9.75427
1715.65	4.87228
1715.91	2.92002
1716.17	10.7332
1716.43	3.89363
1716.68	1.93648
1716.94	5.83284
1717.2	4.84714
1717.46	3.86292
1717.71	5.8056
1717.97	5.79955
1718.23	9.69276
1718.49	7.74597
1718.74	5.8033
1719	4.83562
1719.26	2.89272
1719.52	2.89969
1719.78	8.75025
1720.03	4.85878
1720.29	5.83269
1720.55	2.91045
1720.81	7.77397
1721.06	4.85481
1721.32	1.93569
1721.58	6.79603
1721.83	7.76519
1722.09	3.87476
1722.35	9.70266
1722.61	5.81497
1722.86	4.84372
1723.12	8.72994
1723.38	3.87956
1723.64	4.8547
1723.89	-0.966976
1724.15	4.8603
1724.41	6.79933
1724.66	2.9118
1724.92	7.75567
1725.18	3.87066
1725.44	4.83716
1725.69	6.77679
1725.95	9.6915
1726.21	-3.87077
1726.46	6.79023
1726.72	3.87951
1726.98	5.81964
1727.24	2.92619
1727.49	0.0262032
1727.75	8.74521
1728.01	2.92947
1728.27	6.76698
1728.52	6.72023
1728.78	2.84125
1729.04	5.7546
1729.29	7.71045
1729.55	3.86665
1729.81	3.85907
1730.06	6.75086
1730.32	3.85633
1730.58	3.89266
1730.83	0.0404625
1731.09	2.94699
1731.35	7.78494
1731.61	1.99087
1731.86	-1.87107
1732.12	1.99736
1732.38	3.93147
1732.63	-1.86389
1732.89	3.92849
1733.15	1.99213
1733.4	2.94995
1733.66	7.76937
1733.92	1.97932
1734.17	4.86765
1734.43	5.82682
1734.69	4.85907
1734.95	3.89258
1735.2	3.89202
1735.46	5.81813
1735.72	6.78375
1735.97	2.93698
1736.23	4.86375
1736.49	-0.90741
1736.74	4.86717
1737	2.94499
1737.26	3.90936
1737.51	1.02553
1737.77	1.02572
1738.03	7.75441
1738.28	1.9872
1738.54	0.0650082
1738.8	3.90567
1739.05	1.98037
1739.31	3.8929
1739.57	4.8447
1739.82	3.87949
1740.08	0.999458
1740.34	1.95687
1740.59	0.0401878
1740.85	1.95617
1741.1	0.998558
1741.36	2.915
1741.62	-2.82719
1741.88	5.79434
1742.13	3.88362
1742.39	-2.81433
1742.64	0.0616875
1742.9	4.85298
1743.16	1.98552
1743.41	1.02925
1743.67	1.03001
1743.93	2.9454
1744.18	1.99215
1744.44	2.95481
1744.69	5.83098
1744.95	2.96796
1745.21	2.01646
1745.46	2.01945
1745.72	3.93257
1745.98	2.97501
1746.23	2.97231
1746.49	2.01546
1746.74	2.01402
1747	-1.80696
1747.26	2.01252
1747.51	4.87813
1747.77	1.06517
1748.03	-2.74659
1748.28	-3.69407
1748.54	2.99634
1748.8	2.05104
1749.05	3.97173
1749.31	1.11866
1749.56	2.08662
1749.82	2.09974
1750.08	5.93547
1750.33	4.98952
1750.59	4.99904
1750.84	3.09491
1751.1	0.230309
1751.36	0.229431
1751.61	-1.68353
1751.87	-1.68356
1752.12	2.13696
1752.38	5.95553
1752.64	2.13624
1752.89	2.1367
1753.15	3.09201
1753.4	2.13928
1753.66	2.13935
1753.92	-0.721775
1754.17	1.18689
1754.43	2.1424
1754.68	3.09829
1754.94	1.19461
1755.2	0.243317
1755.45	3.10206
1755.71	5.00599
1755.96	2.14693
1756.22	4.04782
1756.47	1.18907
1756.73	4.04092
1756.99	0.237581
1757.24	2.1425
1757.5	3.10061
1757.75	-0.690567
1758.01	4.07645
1758.27	2.18062
1758.52	-0.667492
1758.78	0.290573
1759.03	5.05629
1759.29	0.304182
1759.54	4.11472
1759.8	2.21528
1760.05	2.2187
1760.31	0.31908
1760.57	3.17449
1760.82	-0.629313
1761.08	-1.57887
1761.33	-0.625511
1761.59	-0.621361
1761.84	1.28349
1762.1	2.24536
1762.36	0.353642
1762.61	1.31163
1762.87	0.365305
1763.12	0.372118
1763.38	4.18359
1763.63	1.33984
1763.89	0.399158
1764.14	0.416824
1764.4	-2.4278
1764.66	3.29284
1764.91	2.34993
1765.17	0.454119
1765.42	2.36551
1765.68	4.27593
1765.93	2.37712
1766.19	0.477095
1766.44	1.43256
1766.7	4.29423
1766.95	4.29793
1767.21	-0.458502
1767.46	4.30078
1767.72	1.44926
1767.98	2.40305
1768.23	0.506012
1768.48	3.3552
1768.74	2.39319
1769	2.38466
1769.25	-1.42052
1769.51	1.43446
1769.76	-1.40382
1770.02	0.510511
1770.27	-1.38329
1770.53	4.3249
1770.78	0.536148
1771.04	4.35562
1771.29	2.4654
1771.55	-0.380341
1771.8	2.48264
1772.06	3.44572
1772.31	1.55383
1772.57	-3.19441
1772.82	1.57256
1773.08	2.53327
1773.33	-1.26552
1773.59	1.59837
1773.84	-1.25009
1774.1	-0.290936
1774.35	1.62249
1774.61	-0.273453
1774.86	0.688883
1775.12	-0.247074
1775.37	2.62637
1775.63	1.68329
1775.88	-1.16944
1776.14	1.69544
1776.39	7.41726
1776.65	-1.16007
1776.9	0.748461
1777.16	0.749723
1777.41	2.65573
1777.67	2.65606
1777.92	-0.200321
1778.18	-0.200073
1778.43	-3.05662
1778.69	2.65193
1778.94	1.70079
1779.2	-1.14875
1779.45	3.62079
1779.71	1.7265
1779.96	-3.02465
1780.21	5.5497
1780.47	1.75079
1780.73	-1.09855
1780.98	-0.139917
1781.23	0.819981
1781.49	1.78141
1781.74	0.839134
1782	-0.101667
1782.25	-1.0445
1782.51	2.77586
1782.76	0.878637
1783.02	1.84085
1783.27	-1.00966
1783.53	-0.0470638
1783.78	-0.990644
1784.04	2.83679
1784.29	-0.968676
1784.54	-0.00658607
1784.8	2.86162
1785.05	0.00357056
1785.31	0.960417
1785.56	2.87027
1785.82	1.92188
1786.07	-0.932518
1786.33	1.93913
1786.58	2.90475
1786.84	1.0088
1787.09	1.97833
1787.34	3.91148
1787.6	2.02409
1787.85	1.09181
1788.11	1.11044
1788.36	0.163134
1788.62	2.089
1788.87	1.14767
1789.12	-0.755802
1789.38	1.16967
1789.63	1.1783
1789.89	-0.729446
1790.14	1.19386
1790.4	5.03219
1790.65	-0.716761
1790.91	2.14307
1791.16	0.230579
1791.41	4.06325
1791.67	-1.67751
1791.92	-1.6711
1792.18	0.250319
1792.43	4.09081
1792.68	-3.56529
1792.94	-2.6009
1793.19	0.277361
1793.45	1.24501
1793.7	-2.58191
1793.96	-2.57611
1794.21	2.21507
1794.46	4.14026
1794.72	-1.58368
1794.97	2.27357
1795.23	-0.592516
1795.48	2.29648
1795.73	-2.49419
1795.99	0.39636
1796.24	0.406586
1796.49	-0.543749
1796.75	0.427122
1797	1.39766
1797.26	4.29021
1797.51	3.33727
1797.76	0.46067
1798.02	2.39045
1798.27	0.472788
1798.53	0.476427
1798.78	3.36287
1799.04	3.36332
1799.29	1.44022
1799.54	-1.44308
1799.8	3.36202
1800.05	-4.3223
1800.3	-1.43785
1800.56	-0.474205
1800.81	1.45058
1801.07	-2.38687
1801.32	1.46066
1801.57	-2.37529
1801.83	4.35641
1802.08	-1.39997
1802.33	0.530657
1802.59	-1.38186
1802.84	-1.37192
1803.1	1.52207
1803.35	-0.393728
1803.6	-2.31121
1803.86	4.42889
1804.11	-1.33309
1804.36	3.48724
1804.62	0.610785
1804.87	1.58466
1805.13	0.633089
1805.38	-0.319622
1805.63	2.5796
1805.89	-0.301796
1806.14	-1.25735
1806.39	3.5681
1806.65	2.61003
1806.9	0.687197
1807.15	3.58309
1807.41	0.696306
1807.66	6.48415
1807.91	0.706072
1808.17	0.711191
1808.42	2.64433
1808.67	3.61373
1808.93	-0.237007
1809.18	-1.19576
1809.43	0.737757
1809.69	-2.14952
1809.94	-1.18079
1810.2	-0.213421
1810.45	2.68164
1810.7	1.72112
1810.95	1.72468
1811.21	0.764273
1811.46	0.76856
1811.71	0.773655
1811.97	1.74472
1812.22	2.71683
1812.47	0.796976
1812.73	3.69957
1812.98	-1.11866
1813.23	-0.146622
1813.49	1.79294
1813.74	1.80446
1813.99	0.850027
1814.25	2.79556
1814.5	-2.02557
1814.75	-0.0849323
1815.01	0.887707
1815.26	0.893089
1815.51	1.8646
1815.77	-1.99623
1816.02	0.908531
1816.27	3.81563
1816.53	2.85052
1816.78	-0.0475578
1817.03	0.910599
1817.29	0.903002
1817.54	-1.0242
1817.79	-1.98244
1818.04	-0.040184
1818.3	-1.96343
1818.55	-1.9617
1818.8	-0.0236588
1819.06	1.91597
1819.31	-0.0101757
1819.56	2.89594
1819.81	1.93586
1820.07	-1.92486
1820.32	1.95007
1820.57	0.988783
1820.83	1.96312
1821.08	5.84114
1821.33	1.011
1821.58	0.0499268
1821.84	-0.912071
1822.09	2.96501
1822.34	1.03395
1822.6	2.00681
1822.85	2.01019
1823.1	0.0751572
1823.35	0.0759563
1823.61	2.98138
1823.86	2.98681
1824.11	-0.879427
1824.37	2.03031
1824.62	1.068
1824.87	3.01077
1825.12	-2.79408
1825.38	-1.82189
1825.63	2.05495
1825.88	0.121464
1826.14	3.0309
1826.39	-2.77648
1826.64	2.07067
1826.89	4.01367
1827.15	2.08239
1827.4	-0.818308
1827.65	-0.814613
1827.9	3.06279
1828.16	1.12584
1828.41	1.12497
1828.66	-1.7807
1828.91	1.12669
1829.17	-2.74535
1829.42	-1.77532
1829.67	2.09842
1829.92	2.09783
1830.18	-2.74288
1830.43	-0.804491
1830.68	9.85117
1830.93	0.175236
1831.19	0.181524
1831.44	2.12485
1831.69	4.06857
1831.94	-2.70683
1832.2	2.1455
1832.45	-0.755009
1832.7	1.18716
1832.95	3.12872
1833.2	-0.743881
1833.46	1.19914
1833.71	0.233686
1833.96	-0.737747
1834.21	-1.71645
1834.47	4.0838
1834.72	3.10466
1834.97	2.12996
1835.22	-0.777033
1835.47	0.190821
1835.73	5.99157
1835.98	0.271517
1836.23	1.27225
1836.48	0.266516
1836.74	1.22145
1836.99	0.238493
1837.24	1.19156
1837.49	-3.66601
1837.75	1.15198
1838	2.11498
1838.25	-3.65051
1838.5	0.247107
1838.75	-1.67836
1839.01	2.20401
1839.26	0.271574
1839.51	-0.689781
1839.76	2.2011
1840.01	0.245604
1840.26	2.16676
1840.52	2.15429
1840.77	2.143
1841.02	2.13252
1841.27	1.15756
1841.53	0.184349
1841.78	1.14224
1842.03	3.06423
1842.28	1.13936
1842.53	3.06914
1842.79	5.00222
1843.04	0.181204
1843.29	3.07674
1843.54	1.1469
1843.79	1.14797
1844.04	2.11706
1844.3	1.15519
1844.55	0.188721
1844.8	-5.59684
1845.05	3.08613
1845.3	3.09762
1845.56	-0.749521
1845.81	2.15909
1846.06	3.14531
1846.31	-3.62544
1846.56	0.206984
1846.81	3.05464
1847.06	-0.809608
1847.32	-0.809273
1847.57	5.94425
1847.82	0.180635
1848.07	4.02414
1848.32	-1.7607
1848.58	2.09221
1848.83	-0.799093
1849.08	-0.8046
1849.33	3.9995
1849.58	1.10681
1849.83	0.136286
1850.08	-0.831291
1850.34	3.96788
1850.59	-2.76251
1850.84	-3.72636
1851.09	0.113003
1851.34	-1.80933
1851.59	2.03139
1851.85	2.03209
1852.1	2.99345
1852.35	1.07396
1852.6	-0.846039
1852.85	0.113604
1853.1	0.112078
1853.36	0.108381
1853.61	1.0621
1853.86	1.05445
1854.11	2.96528
1854.36	-2.79211
1854.61	1.04075
1854.86	1.99295
1855.11	1.98429
1855.37	2.93704
1855.62	2.93519
1855.87	-0.897148
1856.12	-0.896591
1856.37	-0.895859
1856.62	2.93492
1856.87	-0.897488
1857.13	1.01537
1857.38	1.01281
1857.63	4.8388
1857.88	1.96199
1858.13	-0.914513
1858.38	0.993696
1858.63	0.0313396
1858.88	0.981529
1859.14	0.0205956
1859.39	0.975826
1859.64	3.84473
1859.89	0.0219212
1860.14	-2.84204
1860.39	1.94476
1860.64	-0.92071
1860.89	-2.82943
1861.14	-1.86833
1861.39	1.00459
1861.64	-0.910013
1861.9	-0.913113
1862.15	1.95186
1862.4	0.989145
1862.65	0.982985
1862.9	1.93291
1863.15	1.92701
1863.4	1.92166
1863.65	2.87207
1863.9	1.91189
1864.16	1.90704
1864.41	2.8564
1864.66	0.940111
1864.91	-0.0219936
1865.16	-1.93852
1865.41	-3.85474
1865.66	3.76237
1865.91	-1.0146
1866.16	2.78483
1866.41	3.72489
1866.66	1.80933
1866.92	1.79858
1867.17	0.83881
1867.42	-2.01904
1867.67	-2.02211
1867.92	4.6303
1868.17	-0.123264
1868.42	0.8284
1868.67	-0.122517
1868.92	-2.97615
1869.17	1.77509
1869.42	1.77303
1869.67	-2.98139
1869.92	-1.08208
1870.17	-0.133194
1870.42	1.76639
1870.68	-2.03615
1870.93	0.81288
1871.18	-0.140785
1871.43	2.70476
1871.68	-1.09949
1871.93	1.74701
1872.18	-1.1073
1872.43	-3.012
1872.68	1.73071
1872.93	-2.06892
1873.18	0.776474
1873.43	-1.12604
1873.68	-2.08021
1873.93	1.70884
1874.18	-1.14421
1874.43	2.64178
1874.68	-1.15882
1874.93	-0.218786
1875.18	-2.12324
1875.44	-1.1894
1875.69	-1.20038
1875.94	6.36122
1876.19	-3.1081
1876.44	-0.275114
1876.69	0.658489
1876.94	-2.19297
1877.19	-1.27441
1877.44	-0.320856
1877.69	-0.242107
1877.94	-1.2001
1878.19	6.34963
1878.44	0.667465
1878.69	2.57961
1878.94	-1.1949
1879.19	1.64103
1879.44	6.3655
1879.69	1.62716
1879.94	1.62424
1880.19	-1.21324
1880.44	-0.271208
1880.69	1.61856
1880.94	0.661299
1881.19	2.53895
1881.44	0.632526
1881.69	-0.327692
1881.94	-2.2325
1882.19	-0.362289
1882.44	-3.20308
1882.69	1.49488
1882.94	-0.257233
1883.19	2.51651
1883.44	1.48887
1883.69	1.47725
1883.94	3.3756
1884.19	-1.34908
1884.44	-1.34545
1884.69	2.43799
1884.94	0.554972
1885.19	-1.33064
1885.44	0.566076
1885.69	1.51578
1885.94	-1.31481
1886.19	0.570744
1886.44	0.55901
1886.69	-3.22472
1886.94	1.48616
1887.19	-3.23922
1887.44	1.46877
1887.69	2.40218
1887.94	-2.32313
1888.19	2.3774
1888.44	-0.459059
1888.69	-0.469423
1888.94	-1.41792
1889.19	2.34476
1889.44	0.45809
1889.69	-0.483635
1889.94	-0.480385
1890.19	0.465782
1890.44	0.465813
1890.69	-2.36257
1890.94	4.22507
1891.19	2.33897
1891.44	1.39316
1891.69	1.38908
1891.94	-0.496984
1892.19	-0.502789
1892.44	1.37269
1892.69	1.36186
1892.94	0.403799
1893.19	0.387836
1893.43	3.19838
1893.69	-3.37619
1893.93	-0.568399
1894.18	0.36376
1894.43	1.29809
1894.68	5.9934
1894.93	-2.46277
1895.18	2.2351
1895.43	-2.46299
1895.68	0.356888
1895.93	2.23829
1896.18	1.30089
1896.43	3.18377
1896.68	1.30397
1896.93	1.30397
1897.18	0.362005
1897.43	1.30001
1897.68	2.23642
1897.93	2.2306
1898.17	0.342377
1898.42	1.274
1898.67	1.26402
1898.92	1.25546
1899.17	0.31003
1899.42	1.24354
1899.67	2.17603
1899.92	-0.646191
1900.17	-1.58811
1900.42	1.22952
1900.67	3.10979
1900.92	-1.58611
1901.17	4.05535
1901.42	-1.58273
1901.67	0.300205
1901.91	-2.51831
1902.16	2.18287
1902.41	4.05851
1902.66	2.17144
1902.91	2.16472
1903.16	2.15886
1903.41	1.21346
1903.66	2.14904
1903.91	1.20467
1904.16	2.14066
1904.41	-0.68446
1904.66	1.1911
1904.9	1.18737
1905.15	1.1828
1905.4	-0.7061
1905.65	1.15933
1905.9	-3.54456
1906.15	2.08455
1906.4	-0.739292
1906.65	3.95049
1906.9	0.190489
1907.15	3.94512
1907.39	-1.69073
1907.64	0.189497
1907.89	0.188374
1908.14	-2.6325
1908.39	-0.754698
1908.64	3.00457
1908.89	4.88647
1909.14	-1.69112
1909.39	1.13369
1909.63	3.96116
1909.88	2.08552
1910.13	-2.61637
1910.38	0.21036
1910.63	3.03641
1910.88	-0.732025
1911.13	0.207397
1911.38	0.203472
1911.62	-0.743765
1911.87	2.07588
1912.12	0.187586
1912.37	4.89272
1912.62	2.06337
1912.87	1.11823
1913.12	0.175673
1913.37	1.12094
1913.61	3.01078
1913.86	-2.64285
1914.11	1.12976
1914.36	2.07487
1914.61	3.01981
1914.86	2.07665
1915.11	3.96186
1915.36	-0.760748
1915.6	-0.766825
1915.85	-2.6597
1916.1	-1.72305
1916.35	-0.789318
1916.6	1.08791
1916.85	1.07962
1917.1	1.07229
1917.34	2.00893
1917.59	2.94758
1917.84	3.88969
1918.09	3.89169
1918.34	0.121929
1918.59	3.89968
1918.84	4.84875
1919.08	1.07938
1919.33	1.08529
1919.58	-1.74792
1919.83	2.97392
1920.08	-2.7022
1920.32	-0.81687
1920.57	1.07495
1920.82	2.9684
1921.07	3.91457
1921.32	2.02261
1921.57	-3.65352
1921.82	-0.82052
1922.06	2.95606
1922.31	0.110554
1922.56	-0.843445
1922.81	1.03997
1923.06	1.97837
1923.3	0.0807514
1923.55	-0.872471
1923.8	2.898
1924.05	-0.889854
1924.3	-1.84065
1924.55	-1.84476
1924.79	-3.73653
1925.04	-0.901678
1925.29	0.0461159
1925.54	0.994471
1925.79	0.0507793
1926.03	-4.6777
1926.28	-0.890259
1926.53	1.95062
1926.78	-0.890322
1927.03	2.89613
1927.27	-2.78756
1927.52	-0.895414
1927.77	-2.79224
1928.02	1.94148
1928.27	0.992285
1928.52	2.88612
1928.76	3.83333
1929.01	0.0426655
1929.26	0.993654
1929.51	2.89295
1929.75	0.99872
1930	-0.897556
1930.25	0.0531883
1930.5	1.00047
1930.75	0.0466537
1930.99	0.039959
1931.24	3.82868
1931.49	1.92109
1931.74	1.91201
1931.99	-2.8417
1932.23	-0.953011
1932.48	0.937466
1932.73	-0.968126
1932.98	0.9244
1933.22	-0.971786
1933.47	-0.96554
1933.72	-0.00509834
1933.97	-1.88968
1934.22	1.93228
1934.46	0.0436516
1934.71	4.81952
1934.96	-0.890375
1935.21	1.02081
1935.45	3.86191
1935.7	-0.915705
1935.95	0.983566
1936.2	0.0219593
1936.45	1.91682
1936.69	2.85714
1936.94	2.84532
1937.19	0.929478
1937.44	-3.84086
1937.68	0.907782
1937.93	4.70789
1938.18	1.85532
1938.43	0.902275
1938.67	2.80507
1938.92	-2.91041
1939.17	2.80267
1939.42	1.84888
1939.66	4.70344
1939.91	-0.0609074
1940.16	-0.0600262
1940.41	-1.00408
1940.65	0.909838
1940.9	1.86004
1941.15	-0.0573215
1941.4	-1.97929
1941.64	-2.95202
1941.89	2.76799
1942.14	2.78929
1942.39	-1.02469
1942.63	1.83564
1942.88	1.82044
1943.13	2.75603
1943.37	1.78578
1943.62	1.79323
1943.87	-2.97681
1944.12	0.840973
1944.36	4.66112
1944.61	-0.113142
1944.86	0.842873
1945.1	-1.06771
1945.35	2.75566
1945.6	4.66752
1945.85	4.66646
1946.09	1.79512
1946.34	-0.121796
1946.59	-0.128031
1946.83	1.77667
1947.08	4.63655
1947.33	-3.02048
1947.58	3.6668
1947.82	0.791821
1948.07	5.56464
1948.32	-0.177654
1948.57	-0.179544
1948.81	0.776154
1949.06	0.775824
1949.31	2.69041
1949.55	4.60643
1949.8	2.6974
1950.05	-0.169641
1950.3	2.70929
1950.54	-2.07962
1950.79	2.7202
1951.04	-3.99168
1951.28	-1.11108
1951.53	-1.11183
1951.78	-0.153753
1952.02	0.804647
1952.27	2.71901
1952.52	0.795986
1952.76	0.796398
1953.01	-2.09705
1953.26	-1.152
1953.5	0.745663
1953.75	3.60109
1954	-0.255924
1954.25	-3.1492
1954.49	1.62997
1954.74	-2.20968
1954.98	-2.21368
1955.23	4.49405
1955.48	-1.25172
1955.72	3.55548
1955.97	1.64033
1956.22	0.682993
1956.47	0.681995
1956.71	-2.19942
1956.96	-1.23995
1957.21	1.64093
1957.45	1.63881
1957.7	4.51863
1957.95	3.55345
1958.19	0.665155
1958.44	6.42382
1958.69	-0.315351
1958.93	0.635967
1959.18	-0.332569
1959.43	1.57866
1959.67	4.44933
1959.92	0.596415
1960.17	2.50576
1960.41	4.41395
1960.66	-0.397743
1960.9	-0.408453
1961.15	1.50128
1961.4	0.535513
1961.64	1.49016
1961.89	2.44453
1962.14	2.43921
1962.38	-1.40555
1962.63	0.508661
1962.88	-6.21658
1963.12	4.33735
1963.37	2.41208
1963.62	2.40887
1963.86	1.44541
1964.11	3.3593
1964.36	2.3901
1964.6	4.30429
1964.85	2.37617
1965.09	0.449467
1965.34	-0.515108
1965.59	-2.4379
1965.83	3.32495
1966.08	2.36426
1966.33	1.40131
1966.57	1.39864
1966.82	2.35257
1967.06	3.30704
1967.31	0.418997
1967.56	1.37495
1967.8	-0.553406
1968.05	-0.560255
1968.3	1.35336
1968.54	-1.5414
1968.79	3.25031
1969.03	2.27372
1969.28	3.21786
1969.53	-4.47767
1969.77	0.310041
1970.02	-0.660717
1970.26	0.287769
1970.51	2.19535
1970.76	2.18511
1971	3.13457
1971.25	2.16619
1971.49	-1.67612
1971.74	0.23826
1971.99	-2.64495
1972.23	-1.69247
1972.48	5.01379
1972.72	1.16538
1972.97	0.193565
1973.22	3.0576
1973.46	2.08793
1973.71	2.07833
1973.95	1.11166
1974.2	-1.77072
1974.45	-3.69385
1974.69	-1.78174
1974.94	-0.82678
1975.18	-1.78854
1975.43	3.0032
1975.68	1.08135
1975.92	2.03572
1976.17	0.111525
1976.41	3.94195
1976.66	-0.861828
1976.9	-1.82956
1977.15	1.99719
1977.4	1.02693
1977.64	1.97421
1977.89	1.96317
1978.13	-0.922718
1978.38	-1.88997
1978.63	0.978207
1978.87	-0.944899
1979.12	1.92409
1979.36	-1.91615
1979.61	5.74621
1979.85	0.94426
1980.1	-2.90091
1980.34	0.920685
1980.59	1.869
1980.84	2.81633
1981.08	-1.02572
1981.33	-0.0768108
1981.57	0.872902
1981.82	1.82269
1982.06	-2.01864
1982.31	0.842325
1982.55	3.70096
1982.8	-1.09982
1983.05	-4.93994
1983.29	-2.07959
1983.54	-2.08839
1983.78	-2.09768
1984.03	1.71828
1984.27	3.62129
1984.52	3.6097
1984.76	1.68324
1985.01	-2.15147
1985.25	-0.247137
1985.5	1.6591
1985.75	1.65579
1985.99	2.60984
1986.24	2.60598
1986.48	0.686085
1986.73	6.41787
1986.97	2.58257
1987.22	1.61112
1987.46	2.55012
1987.71	1.57683
1987.95	3.46705
1988.2	-0.377033
1988.44	1.50358
1988.69	1.47915
1988.93	1.45881
1989.18	2.3597
1989.42	0.481415
1989.67	4.1764
1989.91	-1.45289
1990.16	2.11691
1990.41	-3.10569
1990.65	1.21025
1990.89	4.79089
1991.14	0.296339
1991.39	0.447748
1991.63	-1.42082
1991.88	2.22441
1992.12	-0.485756
1992.37	-0.084383
1992.61	2.3259
1992.86	0.407099
1993.1	1.25857
1993.35	2.31138
1993.59	-2.10911
1993.84	3.324
1994.08	0.899466
1994.33	-0.231499
1994.57	-0.128855
1994.82	1.41604
1995.06	1.61949
1995.31	2.51773
1995.55	-1.47401
1995.8	0.908974
1996.04	-0.620129
1996.29	1.61091
1996.53	-1.91429
1996.78	2.39178
1997.02	-0.664871
1997.26	1.91655
1997.51	1.71712
1997.76	-0.243887
1998	3.31385
1998.24	-0.40061
1998.49	2.21521
1998.73	0.468786
1998.98	-0.400114
1999.22	1.383
1999.47	0.553333
1999.71	-0.193926
1999.96	1.88347
2000.2	0.0589905
2000.45	0.458931
2000.69	-0.512751
2000.94	1.08688
2001.18	0.7838
2001.43	-1.43994
2001.67	3.23402
2001.92	0.117146
2002.16	-0.122526
2002.4	1.31318
2002.65	0.586914
2002.89	0.111662
2003.14	-1.31775
2003.38	-0.00313187
2003.63	0.0375652
2003.87	1.22576
2004.12	1.55151
2004.36	1.18114
2004.6	-0.151237
2004.85	-1.10999
2005.1	0.196196
2005.34	1.04928
2005.58	0.0301476
2005.83	-1.60656
2006.07	-0.158104
2006.32	0.238604
2006.56	1.29363
2006.81	-0.496109
2007.05	-0.120411
2007.3	-0.438932
2007.54	-0.0768394
2007.78	-2.14848
2008.03	0.586363
2008.27	0.728443
2008.52	-2.99804
2008.76	-0.543283
2009	0.202288
2009.25	0.846977
2009.49	1.1494
2009.74	-0.0988598
2009.98	-1.96392
2010.23	-0.607998
2010.47	-1.47637
2010.72	2.1183
2010.96	0.696224
2011.2	1.13773
2011.45	-2.64057
2011.69	3.00041
2011.94	-3.13674
2012.18	0.412642
2012.42	-0.478876
2012.67	-3.31699
2012.92	5.12785
2013.16	-0.529997
2013.41	0.393507
2013.66	1.31405
2013.91	-0.585863
2014.15	-1.54609
2014.4	0.319736
2014.65	-0.624321
2014.9	-1.56606
2015.14	2.18748
2015.39	2.18498
2015.64	1.23882
2015.88	3.11031
2016.13	2.19207
2016.38	-0.627953
2016.63	-1.57546
2016.87	2.17332
2017.12	-1.59803
2017.37	-2.5517
2017.61	2.12665
2017.86	1.16897
2018.11	2.08943
2018.35	2.07206
2018.6	-4.50852
2018.85	3.90957
2019.1	1.08512
2019.34	0.138355
2019.59	-0.807621
2019.84	1.05879
2020.08	0.114683
2020.33	0.107136
2020.58	1.03849
2020.82	-1.77546
2021.07	-2.71794
2021.32	1.95795
2021.57	1.01258
2021.81	-0.87035
2022.06	-0.881622
2022.31	2.84973
2022.55	-0.908297
2022.8	0.0147362
2023.05	0.00243378
2023.29	3.73047
2023.54	-0.0225086
2023.79	1.83513
2024.03	-3.78684
2024.28	-1.93339
2024.53	-3.81619
2024.77	-1.02968
2025.02	-0.110723
2025.27	1.74125
2025.51	2.65756
2025.76	-1.07878
2026.01	-1.07548
2026.25	0.802132
2026.5	-0.115755
2026.75	1.77289
2026.99	1.78517
2027.24	-0.0924549
2027.49	2.69093
2027.73	-2.0141
2027.98	4.43906
2028.23	-0.177444
2028.47	0.858635
2028.72	-3.86386
2028.97	-1.04399
2029.21	3.58543
2029.46	0.739676
2029.71	6.29429
2029.95	3.48811
2030.2	0.656437
2030.45	-3.99327
2030.69	1.61766
2030.94	-1.1913
2031.19	-2.12988
2031.43	-2.13604
2031.68	-3.06737
2031.92	1.60352
2032.17	1.60938
2032.42	2.54862
2032.66	-0.251877
2032.91	0.682901
2033.16	5.3607
2033.4	-0.246237
2033.65	-1.20194
2033.89	-1.22261
2034.14	1.53982
2034.39	-1.27749
2034.64	3.39605
2034.88	2.4673
2035.13	0.610247
2035.37	4.36648
2035.62	2.50924
2035.87	0.637403
2036.11	-3.12527
2036.36	-1.26305
2036.6	0.610479
2036.85	-0.330019
2037.1	0.598621
2037.34	-2.21421
2037.59	0.581806
2037.84	-1.297
2038.08	1.49708
2038.33	0.552599
2038.57	3.34538
2038.82	3.33467
2039.07	-0.411816
2039.31	-2.2903
2039.56	1.43083
2039.8	5.15009
2040.05	0.471123
2040.3	1.39147
2040.54	-2.35024
2040.79	-1.42776
2041.03	-0.503336
2041.28	1.35457
2041.53	1.34585
2041.77	0.404894
2042.02	-3.33268
2042.26	-0.545795
2042.51	5.03954
2042.76	2.24158
2043	-4.27967
2043.25	-0.545422
2043.49	1.3274
2043.74	-0.536766
2043.99	-0.542225
2044.23	1.3126
2044.48	1.29503
2044.72	-2.46067
2044.97	2.21628
2045.22	-0.56732
2045.46	3.19626
2045.71	0.439274
2045.95	-1.44641
2046.2	2.25665
2046.44	-4.30682
2046.69	0.353048
2046.94	0.342173
2047.18	-3.41375
2047.43	1.23412
2047.67	2.16213
2047.92	0.294775
2048.16	1.22457
2048.41	2.15558
2048.66	0.29376
2048.9	0.295519
2049.15	-0.633766
2049.39	1.23904
2049.64	-2.49123
2049.88	-4.35597
2050.13	-1.55311
2050.37	-0.621193
2050.62	4.04436
2050.87	-3.43823
2051.11	3.08679
2051.36	4.01437
2051.6	-1.59161
2051.85	1.20955
2052.09	0.273481
2052.34	0.272585
2052.58	-0.661007
2052.83	1.20927
2053.08	-0.656462
2053.32	1.22289
2053.57	-2.51511
2053.81	-1.57969
2054.06	1.22412
2054.3	-3.45746
2054.55	0.278973
2054.79	4.9504
2055.04	4.00314
2055.29	0.254854
2055.53	1.18472
2055.78	3.98281
2056.02	1.1709
2056.27	0.230133
2056.51	2.09536
2056.76	-0.711184
2057	-1.64757
2057.25	1.15683
2057.49	0.223089
2057.74	-1.64704
2057.98	0.227383
2058.23	2.10205
2058.47	2.10538
2058.72	3.04357
2058.96	-1.63833
2059.21	-0.70422
2059.45	-1.64223
2059.7	-0.71307
2059.95	2.08753
2060.19	1.14327
2060.44	2.07928
2060.68	0.208599
2060.93	3.01734
2061.17	3.01573
2061.42	-1.66816
2061.66	0.20207
2061.91	0.200865
2062.15	2.07369
2062.4	-0.734966
2062.64	3.01417
2062.89	2.07993
2063.13	-1.66709
2063.38	2.08193
2063.62	-1.66743
2063.87	2.0813
2064.11	2.08169
2064.36	0.208307
2064.6	-1.66415
2064.85	-3.53458
2065.09	3.03863
2065.34	-2.58776
2065.58	2.1092
2065.83	-1.64474
2066.07	-4.46288
2066.32	3.98826
2066.56	-0.706106
2066.81	-2.5851
2067.05	-1.64496
2067.29	0.236147
2067.54	1.17773
2067.78	-0.701181
2068.03	3.99798
2068.27	1.1794
2068.52	3.99911
2068.76	3.05222
2069.01	1.16172
2069.25	-4.48968
2069.5	-2.62001
2069.74	-2.62074
2069.99	-2.61343
2070.23	-2.60197
2070.48	0.231251
2070.72	2.11182
2070.97	3.98095
2071.21	-0.698473
2071.46	2.14332
2071.7	-0.685053
2071.94	0.25198
2072.19	-0.69294
2072.43	3.0689
2072.68	1.18306
2072.92	-0.703266
2073.17	-1.64616
2073.41	-0.705545
2073.66	2.11882
2073.9	1.17842
2074.15	-1.64371
2074.39	-0.696335
2074.64	0.253887
2074.88	0.264929
2075.13	-1.60798
2075.37	5.95106
2075.61	-3.48248
2075.86	-0.650919
2076.1	3.12471
2076.35	-0.655613
2076.59	0.280903
2076.84	0.272566
2077.08	-0.685522
2077.32	2.13691
2077.57	-1.63429
2077.81	4.02999
2078.06	4.97532
2078.3	3.08985
2078.55	-2.5689
2078.79	4.04172
2079.03	-1.6087
2079.28	-1.6039
2079.52	-1.60032
2079.77	-3.48673
2080.01	-1.59418
2080.26	-0.649382
2080.5	1.23605
2080.74	0.287533
2080.99	-0.65963
2081.23	-3.49527
2081.48	-1.60857
2081.72	-0.662672
2081.97	-1.60641
2082.21	3.11922
2082.45	-3.49609
2082.7	2.17261
2082.94	0.280375
2083.19	4.05772
2083.43	3.11166
2083.67	0.276585
2083.92	0.275196
2084.16	-2.56022
2084.41	2.16481
2084.65	2.16449
2084.89	1.21837
2085.14	3.10803
2085.38	-3.50711
2085.63	-2.5562
2085.87	-3.49376
2086.12	-2.54145
2086.36	0.29858
2086.6	5.03173
2086.85	-0.640566
2087.09	4.09444
2087.34	1.25498
2087.58	0.308645
2087.82	-2.5304
2088.07	4.09556
2088.31	0.310917
2088.56	0.312033
2088.8	0.315708
2089.04	4.1081
2089.29	-1.5665
2089.53	6.01504
2089.77	-2.50904
2090.02	2.22944
2090.26	-0.610212
2090.51	2.23545
2090.75	2.23892
2090.99	0.346725
2091.24	4.14564
2091.48	-1.53417
2091.72	0.371958
2091.97	-0.567188
2092.21	-0.557089
2092.45	1.35039
2092.7	3.25798
2092.94	0.416553
2093.19	1.37447
2093.43	1.3813
2093.67	1.38748
2093.92	3.29177
2094.16	-2.41223
2094.41	2.34051
2094.65	-0.513355
2094.89	1.38351
2095.14	5.17955
2095.38	-2.42689
2095.62	0.420465
2095.87	-0.53157
2096.11	4.21751
2096.35	0.417
2096.6	1.36369
2096.84	3.25756
2097.08	0.402927
2097.33	0.400564
2097.57	-1.49918
2097.81	-0.550343
2098.06	0.394949
2098.3	1.34464
2098.55	-2.45166
2098.79	1.34371
2099.03	0.393974
2099.28	0.394125
2099.52	1.34414
2099.76	2.29491
2100	1.34845
2100.25	1.35154
2100.49	1.36051
2100.74	0.418386
2100.98	-0.526218
2101.22	1.37664
2101.47	-1.47149
2101.71	-2.42114
2101.95	1.37965
2102.2	1.37951
2102.44	-0.523193
2102.68	1.37055
2102.92	1.36752
2103.17	-2.42884
2103.41	0.41819
2103.65	3.26758
2103.9	-0.525976
2104.14	1.37886
2104.39	0.435495
2104.63	2.34062
2104.87	0.447636
2105.11	1.406
2105.36	1.41424
2105.6	4.27057
2105.84	1.42423
2106.09	0.47716
2106.33	4.28247
2106.57	2.38568
2106.82	1.43863
2107.06	2.38808
2107.3	1.43347
2107.54	0.477171
2107.79	2.37056
2108.03	2.36379
2108.27	0.458946
2108.52	3.30626
2108.76	-4.2871
2109	-0.480951
2109.25	-1.42116
2109.49	-0.468769
2109.73	-3.31658
2109.97	2.38537
2110.22	1.43738
2110.46	5.23953
2110.7	-7.10831
2110.95	-1.40778
2111.19	1.44022
2111.43	1.43876
2111.68	0.489492
2111.92	-0.458416
2112.16	1.44569
2112.4	-0.448044
2112.65	0.507494
2112.89	4.31718
2113.13	-0.424377
2113.38	2.4328
2113.62	0.533459
2113.86	0.53307
2114.1	0.534616
2114.35	1.48868
2114.59	1.49233
2114.83	-0.407043
2115.07	1.49372
2115.32	-0.406542
2115.56	0.543911
2115.8	4.34118
2116.04	-1.36163
2116.29	2.43674
2116.53	-0.411093
2116.77	5.28808
2117.02	-0.405872
2117.26	2.44367
2117.5	0.542839
2117.74	-0.408453
2117.99	-1.36168
2118.23	-0.418224
2118.47	-0.422243
2118.71	2.41954
2118.96	-3.27281
2119.2	-0.431385
2119.44	-0.43371
2119.68	-0.43498
2119.93	1.46129
2120.17	4.30771
2120.41	1.47281
2120.65	3.37509
2120.9	0.541107
2121.14	2.4483
2121.38	6.25278
2121.62	0.571859
2121.86	-4.16318
2122.11	0.589331
2122.35	3.44441
2122.59	5.35041
2122.84	-1.28827
2123.08	3.46365
2123.32	3.46521
2123.56	-1.28081
2123.81	0.616518
2124.05	1.56174
2124.29	-3.18877
2124.53	3.43875
2124.77	-1.31059
2125.02	1.52498
2125.26	3.4131
2125.5	-2.27301
2125.74	1.50924
2125.98	2.45273
2126.23	1.50387
2126.47	-0.390478
2126.71	-3.23006
2126.95	2.4446
2127.2	1.50138
2127.44	3.39482
2127.68	-3.22203
2127.92	1.50632
2128.16	1.51048
2128.41	-0.375557
2128.65	1.51824
2128.89	-2.26072
2129.13	1.52193
2129.38	2.46987
2129.62	1.52765
2129.86	4.36508
2130.1	0.587355
2130.34	0.588884
2130.58	0.589764
2130.83	0.58983
2131.07	-2.24367
2131.31	0.589605
2131.55	-0.353237
2131.79	1.53659
2132.04	-1.29633
2132.28	0.590034
2132.52	0.591379
2132.76	-0.348417
2133	0.601007
2133.25	-1.28036
2133.49	2.49961
2133.73	1.56155
2133.97	-0.319683
2134.21	0.628157
2134.46	-0.311628
2134.7	2.52349
2134.94	-3.13503
2135.18	0.641809
2135.42	4.41566
2135.67	-2.19099
2135.91	2.51958
2136.15	-0.309053
2136.39	0.638992
2136.63	4.41707
2136.87	-1.23416
2137.12	-1.22649
2137.36	-2.15879
2137.6	2.56185
2137.84	3.50098
2138.08	3.4985
2138.32	-1.2064
2138.57	0.694246
2138.81	2.59352
2139.05	-1.18365
2139.29	1.63564
2139.53	-4.96069
2139.77	-2.1326
2140.02	2.57941
2140.26	-1.18642
2140.5	-0.241495
2140.74	0.70352
2140.98	0.708868
2141.22	-1.1734
2141.46	0.708326
2141.71	-2.11337
2141.95	-2.10803
2142.19	0.726244
2142.43	2.62038
2142.67	-1.12109
2142.91	0.765295
2143.15	2.58653
2143.4	0.695267
2143.64	0.708807
2143.88	-0.216372
2144.12	4.50201
2144.36	2.6342
2144.6	0.745602
2144.85	-1.13066
2145.09	2.63844
2145.33	-1.11792
2145.57	0.76613
2145.81	3.58981
2146.05	3.59312
2146.29	0.77673
2146.53	-2.03963
2146.78	2.66139
2147.02	0.783983
2147.26	4.54424
2147.5	1.72865
2147.74	2.67056
2147.98	-4.84023
2148.22	1.73613
2148.46	-4.83453
2148.7	-0.139496
2148.95	-2.01687
2149.19	-1.08317
2149.43	-0.146093
2149.67	3.60295
2149.91	1.72743
2150.15	-0.144424
2150.39	-1.07625
2150.63	-2.94262
2150.88	-1.05684
2151.12	3.64062
2151.36	2.71459
2151.6	1.78544
2151.84	3.67323
2152.08	-0.0760593
2152.32	0.864351
2152.56	-1.00961
2152.8	-1.94539
2153.05	0.870855
2153.29	3.68684
2153.53	-0.0599403
2153.77	1.81389
2154.01	0.874025
2154.25	-1.94061
2154.49	-1.94409
2154.73	2.72654
2154.97	6.46343
2155.21	2.72039
2155.45	2.7189
2155.7	-0.0836334
2155.94	-2.88268
2156.18	-1.00868
2156.42	-1.93661
2156.66	1.80671
2156.9	1.8157
2157.14	-0.0419617
2157.38	0.904877
2157.62	1.85211
2157.86	-1.87814
2158.1	2.80259
2158.34	3.74319
2158.59	7.48615
2158.83	-1.85605
2159.07	-0.918791
2159.31	0.0172005
2159.55	-2.7844
2159.79	2.81837
2160.03	0.0181274
2160.27	2.81939
2160.51	2.82264
2160.75	0.0290146
2160.99	2.83305
2161.23	-1.82773
2161.47	0.977198
2161.72	0.0515442
2161.95	-2.7397
2162.2	4.73082
2162.44	1.00449
2162.68	1.00788
2162.92	-0.853203
2163.16	-0.848551
2163.4	-1.77641
2163.64	1.02489
2163.88	-2.70158
2164.12	3.82188
2164.36	1.9603
2164.6	2.89944
2164.84	0.115534
2165.08	0.123646
2165.32	5.72286
2165.56	-2.65584
2165.8	-1.71876
2166.04	0.149225
2166.28	-0.77862
2166.53	1.08653
2166.76	1.08957
2167.01	0.159994
2167.25	0.159466
2167.49	2.94527
2167.73	0.148964
2167.97	0.150888
2168.21	1.08733
2168.45	1.09654
2168.69	1.10813
2168.93	3.91181
2169.17	0.20752
2169.41	-1.63604
2169.65	-0.686821
2169.89	-2.53417
2170.13	3.99564
2170.37	0.277288
2170.61	2.14242
2170.85	4.9401
2171.09	0.283186
2171.33	1.20248
2171.57	2.12763
2171.81	0.27025
2172.05	-4.37298
2172.29	2.13575
2172.53	4.00077
2172.77	0.292032
2173.01	0.299788
2173.25	3.09713
2173.49	1.25067
2173.73	2.19127
2173.97	1.27175
2174.21	1.28061
2174.45	3.14757
2174.69	2.22601
2174.93	0.373846
2175.17	1.30955
2175.41	1.31681
2175.65	1.32376
2175.89	-3.31574
2176.13	-1.45332
2176.37	0.410873
2176.61	-3.29653
2176.85	0.428356
2177.09	-0.491482
2177.33	-0.483797
2177.57	2.31305
2177.81	-1.39618
2178.05	-4.18097
2178.29	0.46439
2178.53	-0.456736
2178.77	4.19562
2179.01	2.3477
2179.25	3.28517
2179.49	0.508162
2179.73	0.516607
2179.97	5.16698
2180.21	-0.397003
2180.45	-4.10385
2180.69	0.545923
2180.93	2.4097
2181.17	-1.29793
2181.41	-3.14891
2181.65	3.35517
2181.89	3.35964
2182.13	-0.346195
2182.37	0.588324
2182.61	-1.26368
2182.85	2.44907
2183.09	-1.25981
2183.33	4.30424
2183.57	-7.73965
2183.81	0.605215
2184.05	-1.24071
2184.28	2.4748
2184.53	5.26674
2184.76	2.49799
2185	-3.97865
2185.24	-3.04001
2185.48	-4.88137
2185.72	0.695454
2185.96	0.708733
2186.2	-2.0573
2186.44	2.59916
2186.68	-0.167635
2186.92	0.778036
2187.16	2.65122
2187.4	-1.98125
2187.64	4.52645
2187.88	2.67284
2188.12	0.819172
2188.36	-0.10615
2188.6	-4.74361
2188.84	0.825613
2189.07	-1.9567
2189.31	0.825651
2189.55	-0.0962524
2189.79	-0.0890503
2190.03	4.55584
2190.27	-0.068615
2190.51	0.870905
2190.75	-0.974663
2190.99	1.81747
2191.23	0.901632
2191.47	1.84072
2191.71	0.925011
2191.95	-9.26647
2192.19	0.0204544
2192.42	-2.74962
2192.67	0.0481129
2192.9	1.91771
2193.14	-0.851711
2193.38	-3.61841
2193.62	0.119431
2193.86	1.99733
2194.1	-1.7063
2194.34	2.02132
2194.58	3.88556
2194.82	1.10346
2195.06	2.03778
2195.3	0.182629
2195.53	-0.744602
2195.77	2.0412
2196.01	1.1123
2196.25	3.8982
2196.49	-3.5214
2196.73	1.12209
2196.97	0.199429
2197.21	-0.71965
2197.45	0.218311
2197.69	-2.55303
2197.92	-4.394
2198.16	2.11778
2198.4	-0.649582
2198.64	2.15481
2198.88	1.24428
2199.12	-1.52523
2199.36	-1.50729
2199.6	-0.556438
2199.84	2.25878
2200.07	1.35133
2200.31	6.02955
2200.55	0.459383
2200.79	0.475594
2201.03	3.27202
2201.27	0.460228
2201.51	1.34513
2201.75	-0.54694
2201.99	0.397842
2202.23	-1.40331
2202.46	-1.36848
2202.7	1.42316
2202.94	0.49678
2203.18	-2.2805
2203.42	5.3038
2203.66	0.604
2203.9	-3.1209
2204.14	0.626711
2204.37	-2.1777
2204.61	-2.19095
2204.85	-3.13236
2205.09	-2.20841
2205.33	-0.343962
2205.57	2.45391
2205.8	1.53997
2206.05	2.4838
2206.28	-4.02775
2206.52	2.49038
2206.76	0.64432
2207	-0.271351
2207.24	3.46424
2207.48	-0.241407
2207.71	0.704287
2207.95	0.719351
2208.19	0.733856
2208.43	-1.11487
2208.67	-1.10269
2208.91	-1.09154
2209.15	1.71224
2209.38	-3.86714
2209.62	-0.1322
2209.86	-0.119469
2210.1	2.68833
2210.34	-1.95621
2210.58	-0.0790539
2210.81	2.73043
2211.05	-0.984138
2211.29	2.76002
2211.53	-0.0215225
2211.77	-2.80655
2212.01	-1.86175
2212.24	2.81002
2212.48	-0.914383
2212.72	-1.84045
2212.96	-0.901722
2213.2	3.76353
2213.44	2.84131
2213.67	1.92356
2213.91	2.87591
2214.15	3.83231
2214.39	2.9116
2214.63	-1.74393
2214.87	-1.73296
2215.1	-1.72247
2215.34	0.154819
2215.58	-0.769375
2215.82	-0.760406
2216.06	3.91639
2216.29	0.189964
2216.53	-1.66916
2216.77	3.00772
2217.01	2.0843
2217.25	0.227674
2217.49	1.17078
2217.72	-0.68783
2217.96	-3.47881
2218.2	-0.666151
2218.44	-0.653442
2218.68	0.29426
2218.91	1.2428
2219.15	0.321228
2219.39	1.2678
2219.63	-0.588898
2219.87	-2.4491
2220.1	-0.572062
2220.34	-0.563757
2220.58	2.24653
2220.82	2.24953
2221.06	-4.28738
2221.29	-3.34949
2221.53	1.32327
2221.77	-0.53849
2222.01	3.20333
2222.25	-3.32049
2222.48	1.36
2222.72	-0.494297
2222.96	1.38682
2223.2	0.468
2223.43	-1.38414
2223.67	1.43687
2223.91	-2.28608
2224.15	1.47017
2224.39	0.54998
2224.62	-0.370892
2224.86	0.580315
2225.1	1.53309
2225.34	-0.324112
2225.58	0.62686
2225.81	-0.295149
2226.05	0.655104
2226.29	3.48095
2226.53	4.43344
2226.76	1.63476
2227	0.709587
2227.24	-3.03052
2227.48	-3.02184
2227.72	1.67388
2227.95	0.743055
2228.19	0.750025
2228.43	-1.11768
2228.67	1.70229
2228.9	0.773329
2229.14	-0.151705
2229.38	-0.136309
2229.62	1.75518
2229.85	0.831003
2230.09	2.72168
2230.33	-0.0796452
2230.57	-0.0653305
2230.8	2.7667
2231.04	-1.91417
2231.28	-1.90054
2231.52	0.932074
2231.75	2.82588
2231.99	0.0199814
2232.23	3.7947
2232.47	-2.77427
2232.7	-3.70202
2232.94	0.0739746
2233.18	1.02842
2233.42	2.92344
2233.65	0.111633
2233.89	0.119532
2234.13	2.94956
2234.37	0.131615
2234.6	-1.74616
2234.84	2.01694
2235.08	0.137035
2235.31	-0.795364
2235.55	1.09502
2235.79	-2.65695
2236.03	2.0554
2236.26	-0.756598
2236.5	-0.74687
2236.74	1.14843
2236.97	1.16262
2237.21	3.06346
2237.45	-2.56679
2237.69	0.277029
2237.92	2.1779
2238.16	1.25089
2238.4	1.26732
2238.64	-0.601385
2238.87	-2.4768
2239.11	4.13353
2239.35	-0.578608
2239.58	-0.576448
2239.82	3.19581
2240.06	0.372557
2240.29	0.388111
2240.53	0.409267
2240.77	0.419178
2241.01	0.429014
2241.24	3.26997
2241.48	-0.494699
2241.72	-0.484617
2241.96	-0.473745
2242.19	2.36935
2242.43	2.37882
2242.67	1.44165
2242.9	3.33462
2243.14	2.39413
2243.38	3.34337
2243.61	0.519314
2243.85	-0.415886
2244.09	-0.404711
2244.32	-0.389896
2244.56	2.46141
2244.8	-0.354645
2245.03	-0.340303
2245.27	0.617765
2245.51	0.631104
2245.75	2.5357
2245.98	-1.23507
2246.22	-0.278574
2246.46	3.51705
2246.69	-1.20199
2246.93	3.54041
2247.17	2.6032
2247.4	1.6643
2247.64	5.45638
2247.88	-1.16244
2248.11	-0.210066
2248.35	-2.09644
2248.59	3.58718
2248.82	3.59343
2249.06	-3.01942
2249.3	-1.1156
2249.53	-2.05449
2249.77	4.57512
2250.01	-0.154024
2250.24	1.7402
2250.48	0.79553
2250.72	-1.09346
2250.95	-2.98066
2251.19	4.58849
2251.43	2.70572
2251.66	-2.95753
2251.9	7.4559
2252.14	-0.0975399
2252.37	1.8096
2252.61	1.83058
2252.85	-0.991882
2253.08	-1.9248
2253.32	1.87865
2253.55	2.8388
2253.79	0.00734329
2254.03	-0.929943
2254.26	0.974403
2254.5	1.9275
2254.74	-3.75377
2254.97	-2.79817
2255.21	1.95047
2255.45	1.01038
2255.68	2.91804
2255.92	0.08465
2256.16	1.99352
2256.39	4.8517
2256.63	-1.78002
2256.87	1.07846
2257.1	-3.65762
2257.34	5.84696
2257.57	1.10786
2257.81	-1.73316
2258.05	0.174479
2258.28	-5.51528
2258.52	2.09354
2258.76	2.10435
2258.99	2.1139
2259.23	-0.727993
2259.47	-0.718649
2259.7	1.19156
2259.94	-0.700434
2260.17	0.259111
2260.41	-0.681526
2260.64	2.18552
2260.88	3.14977
2261.12	5.06114
2261.35	2.21482
2261.59	4.12666
2261.83	1.2805
2262.06	1.29043
2262.3	1.30204
2262.53	3.21872
2262.77	2.27984
2263.01	3.24719
2263.24	4.2163
2263.48	-0.533514
2263.71	-0.517975
2263.95	3.31374
2264.19	1.41945
2264.42	-2.38692
2264.66	3.35384
2264.89	0.499622
2265.13	4.32798
2265.37	-0.441099
2265.6	3.38426
2265.84	-0.435463
2266.07	-1.39003
2266.31	4.33755
2266.55	3.38253
2266.78	-0.433268
2267.02	3.38516
2267.25	-1.383
2267.49	-0.428488
2267.73	1.48006
2267.96	0.530344
2268.2	-2.324
2268.43	1.49909
2268.67	-1.35139
2268.91	-1.33957
2269.14	-1.32732
2269.38	-0.359993
2269.61	4.42899
2269.85	1.57817
2270.08	-1.27727
2270.32	3.50956
2270.56	-1.25821
2270.79	1.61981
2271.03	0.672649
2271.26	3.55054
2271.5	-0.264584
2271.73	3.57019
2271.97	-3.12033
2272.2	2.62625
2272.44	-1.19403
2272.68	1.68315
2272.91	-0.223942
2273.15	2.65355
2273.38	0.746258
2273.62	-2.11838
2273.85	-1.15507
2274.09	1.72288
2274.33	-2.09949
2274.56	2.69348
2274.8	-4.95857
2275.03	-0.164829
2275.27	3.66892
2275.5	-1.11017
2275.74	-0.141848
2275.97	-0.13076
2276.21	-2.03682
2276.45	-0.110348
2276.68	-1.05892
2276.92	-1.04642
2277.15	0.885874
2277.39	1.86024
2277.62	-2.92359
2277.86	-0.0340996
2278.09	2.8541
2278.33	0.938459
2278.56	-1.93903
2278.8	-0.0147896
2279.03	0.946787
2279.27	-0.0203476
2279.5	-3.86131
2279.74	0.933954
2279.98	-0.985727
2280.21	-1.94485
2280.45	-0.985111
2280.68	-0.98287
2280.92	1.89416
2281.15	0.936728
2281.39	-0.97287
2281.62	2.86732
2281.86	0.957975
2282.09	2.88515
2282.33	0.977644
2282.56	2.90652
2282.8	0.998947
2283.03	-1.86717
2283.27	1.02948
2283.5	0.0832806
2283.74	2.98389
2283.97	-2.77371
2284.21	1.07972
2284.44	-0.834394
2284.68	0.137968
2284.91	-0.818396
2285.15	0.149561
2285.38	-0.812916
2285.62	0.142523
2285.85	4.95424
2286.09	1.11284
2286.32	1.11965
2286.56	0.173244
2286.79	2.11348
2287.03	-0.767242
2287.26	3.09063
2287.5	1.17677
2287.74	-0.747702
2287.97	2.14223
2288.2	-1.71046
2288.44	3.10441
2288.67	1.17474
2288.91	0.206127
2289.14	0.202026
2289.38	0.194126
2289.61	2.11707
2289.85	2.11745
2290.08	3.08253
2290.32	-1.72056
2290.55	1.1704
2290.79	3.10373
2291.02	1.19273
2291.26	-0.722261
2291.49	-2.63965
2291.73	-1.66979
2291.96	-0.699398
2292.2	-1.65338
2292.43	-1.64478
2292.67	-1.63735
2292.9	0.296829
2293.14	3.19433
2293.37	0.308313
2293.6	-1.61771
2293.84	-1.61711
2294.07	-3.54432
2294.31	3.19832
2294.54	-3.54513
2294.78	2.2338
2295.01	1.27021
2295.25	2.2325
2295.48	-0.655787
2295.72	4.15597
2295.95	0.297134
2296.19	3.18436
2296.42	0.303061
2296.65	1.27171
2296.89	-3.53294
2297.12	0.325323
2297.36	1.2978
2297.59	-2.54319
2297.83	-0.608019
2298.06	-1.56552
2298.3	-1.5584
2298.53	4.23511
2298.77	-3.47025
2299	0.394432
2299.23	-1.52888
2299.47	-2.49135
2299.7	-0.558764
2299.94	2.33675
2300.17	0.412773
2300.41	0.42
2300.64	0.425922
2300.87	1.39676
2301.11	1.40141
2301.34	2.37013
2301.58	-1.48884
2301.81	1.40744
2302.05	-1.48757
2302.28	1.4111
2302.51	-0.516874
2302.75	1.41434
2302.98	1.41645
2303.22	2.38434
2303.45	0.458788
2303.69	-2.43051
2303.92	-0.493292
2304.15	-2.41935
2304.39	-5.3113
2304.62	-2.40727
2304.86	2.42855
2305.09	-1.43233
2305.33	-1.42813
2305.56	3.40873
2305.79	2.44858
2306.03	0.519121
2306.26	-3.34411
2306.5	1.49082
2306.73	2.45904
2306.97	1.49282
2307.2	-0.441017
2307.43	-0.440592
2307.67	-0.440186
2307.9	-1.40654
2308.13	-3.33644
2308.37	3.42934
2308.6	-0.429443
2308.84	3.44267
2309.07	0.551186
2309.3	2.49559
2309.54	-3.29937
2309.77	-1.36012
2310.01	-0.389706
2310.24	1.54686
2310.47	-2.32263
2310.71	-0.390711
2310.94	3.46611
2311.18	-4.27917
2311.41	0.54393
2311.64	0.538996
2311.88	-0.42749
2312.11	0.535448
2312.34	3.4287
2312.58	-1.39445
2312.81	2.46985
2313.05	0.548643
2313.28	-1.37035
2313.51	3.46835
2313.75	2.51232
2313.98	0.589636
2314.21	3.50115
2314.45	1.57926
2314.68	3.52087
2314.92	-0.351374
2315.15	2.54513
2315.39	-5.19265
2315.62	-1.32925
2315.85	-2.30474
2316.09	0.587004
2316.32	1.55098
2316.55	1.552
2316.79	-0.375984
2317.02	-0.372517
2317.25	-5.19452
2317.49	0.608133
2317.72	0.603817
2317.95	1.56606
2318.19	-1.33167
2318.42	-2.29859
2318.66	3.49129
2318.89	1.55898
2319.12	0.593071
2319.35	-1.33664
2319.59	1.56
2319.82	-5.19188
2320.06	-0.365038
2320.29	-1.32618
2320.52	-1.32074
2320.76	1.58118
2320.99	-2.27408
2321.22	-1.30157
2321.46	-1.29318
2321.69	3.54768
2321.92	-0.309021
2322.16	-3.20402
2322.39	0.66437
2322.62	-3.19981
2322.86	3.57161
2323.09	-3.19263
2323.32	2.61263
2323.56	-0.285126
2323.79	-0.283707
2324.02	2.61809
2324.26	2.61471
2324.49	-1.25704
2324.72	2.60154
2324.96	-2.23237
2325.19	1.62817
2325.42	5.48722
2325.66	4.51815
2325.89	6.44441
2326.12	4.51032
2326.36	2.57709
2326.59	2.57359
2326.82	5.46264
2327.06	6.42426
2327.29	4.49382
2327.52	6.42025
2327.76	8.35104
2327.99	4.49869
2328.22	8.35721
2328.46	14.1368
2328.69	8.35026
2328.92	7.38126
2329.15	4.49018
2329.39	4.49139
2329.62	6.42332
2329.85	5.46179
2330.09	4.49856
2330.32	4.49859
2330.55	4.49988
2330.78	-0.311274
2331.02	2.58426
2331.25	0.664619
2331.48	-2.21775
2331.72	-1.25571
2331.95	-2.22146
2332.18	5.48258
2332.42	-0.296322
2332.65	-0.296703
2332.88	-1.2596
2333.12	1.6284
2333.35	-0.296165
2333.58	-1.25874
2333.81	-2.22178
2334.05	-2.2242
2334.28	0.660444
2334.51	2.58424
2334.74	-3.18395
2334.98	0.664574
2335.21	0.668215
2335.44	0.673071
2335.68	-1.24755
2335.91	0.676666
2336.14	-1.24502
2336.37	0.680239
2336.61	1.64405
2336.84	-0.276714
2337.07	-0.274403
2337.3	1.64983
2337.54	2.61263
2337.77	2.61482
2338	0.694727
2338.24	-0.263712
2338.47	-1.22067
2338.7	-1.21638
2338.93	-1.21272
2339.17	-0.248459
2339.4	-1.20761
2339.63	-0.245502
2339.86	5.51959
2340.1	1.6756
2340.33	-2.16795
2340.56	-0.249474
2340.79	-0.253017
2341.03	1.66133
2341.26	-1.22023
2341.49	-0.26149
2341.72	2.61551
2341.96	-0.260763
2342.19	-1.218
2342.42	1.66062
2342.65	-0.252851
2342.89	4.54475
2343.12	0.713848
2343.35	1.67582
2343.58	-1.19512
2343.82	1.68668
2344.05	1.69243
2344.28	-1.17928
2344.51	-1.17591
2344.75	0.743608
2344.98	-0.21368
2345.21	1.70162
2345.44	-0.214348
2345.68	-0.213715
2345.91	2.6622
2346.14	-2.12218
2346.37	-1.16055
2346.6	-0.199652
2346.84	1.71859
2347.07	2.6806
2347.3	-3.05798
2347.53	-4.00876
2347.77	-1.12829
2348	-3.99367
2348.23	-0.157076
2348.46	3.67719
2348.69	1.76376
2348.93	0.802666
2349.16	-0.158693
2349.39	-0.164303
2349.62	-3.03897
2349.85	0.772419
2350.09	-0.205072
2350.32	0.705832
2350.55	-2.12223
2350.78	3.68985
2351.02	-0.0935287
2351.25	-2.03667
2351.48	-2.05889
2351.71	2.71853
2351.94	-2.04386
2352.18	0.814487
2352.41	-2.05983
2352.64	0.788658
2352.87	-1.10679
2353.1	0.805304
2353.34	-0.144451
2353.57	1.76738
2353.8	3.67898
2354.03	-0.118702
2354.26	2.75439
2354.5	-1.05018
2354.73	-1.04377
2354.96	1.82028
2355.19	-2.93749
2355.42	-0.0741005
2355.66	-2.92705
2355.89	2.78803
2356.12	2.78359
2356.35	0.878546
2356.58	-0.0692348
2356.81	4.68986
2357.05	-1.96162
2357.28	-2.90683
2357.51	0.901148
2357.74	2.80771
2357.97	1.86524
2358.21	-0.0318928
2358.44	-0.0252247
2358.67	4.73211
2358.9	-0.00951385
2359.13	1.89692
2359.36	0.952667
2359.6	-1.89123
2359.83	-0.937176
2360.06	-0.932568
2360.29	0.0210724
2360.52	1.92279
2360.75	0.978493
2360.99	-2.80975
2361.22	-0.908741
2361.45	-0.904039
2361.68	-0.899702
2361.91	1.94625
2362.14	1.00442
2362.38	1.95708
2362.61	1.96355
2362.84	-0.868454
2363.07	-1.80619
2363.3	2.93375
2363.53	-0.842035
2363.77	-1.77954
2364	-1.77093
2364.23	1.07435
2364.46	-1.75235
2364.69	1.09158
2364.92	2.04511
