#Acq. time (s)=	30
#Accumulations=	2
#Range (cm-¹)=	1200...2365
#Windows=	3
#Auto scanning=	Off
#Autofocus=	Off
#Macrospot=	Off
#AutoExposure=	Off
#Spike filter=	Multiple accum.
#Delay time (s)=	2
#Binning=	1
#Readout mode=	Signal
#DeNoise=	Off
#ICS correction=	On
#Dark correction=	Off
#Inst. Process=	Off
#Detector Gain=	Best Dynamic
#Detector ADC=	50 kHz HS
#Detector temperature (°C)=	-60.09
#Instrument=	LabRAM HR Evol
#Detector=	SIN-EM FIVIS
#Objective=	x100_VIS_LWD
#Grating=	1800 (450-850nm)
#ND Filter=	100%
#Laser=	532nm_Edge
#Hole=	100.021
#Temperature=	0
#Range=	Visible
#StageXY=	75x50mm Scan+
#StageZ=	Z motor
#X (µm)=	0
#Y (µm)=	0
#Z (µm)=	-10.9
#Full time(mm:ss)=	3:18
#Project=	21_11_26
#Sample=	BU19(2)w
#Site=	
#Title=	BU19(2)w-A-FF1-FI03-L_1800 (450-850nm)_532nm_Edge_100%_x100_VIS_LWD_H100um_30sX2
#Remark=	
#Date=	26.11.2021 12:23
#Acquired=	26.11.2021 12:23:13
#Base:Fit=	16.12.2021 16:00:56
#Base:Fit=	16.12.2021 16:05:25
#Base:Sub=	16.12.2021 16:05:26
1202.72	-11.865
1203	13.8688
1203.28	20.6366
1203.56	14.0719
1203.84	-19.6525
1204.11	12.704
1204.39	9.70166
1204.67	-9.80457
1204.95	32.077
1205.23	11.1085
1205.5	10.2653
1205.78	-1.36499
1206.06	-13.0729
1206.34	35.2971
1206.61	22.5038
1206.89	35.446
1207.17	-5.20679
1207.45	-11.4153
1207.73	21.1384
1208	18.3676
1208.28	10.371
1208.56	1.23816
1208.84	-3.76208
1209.11	-25.8322
1209.39	21.6331
1209.67	40.4348
1209.95	-28.3035
1210.23	1.23816
1210.5	39.1425
1210.78	8.29919
1211.06	1.0022
1211.34	-7.23572
1211.61	-18.7625
1211.89	-7.74951
1212.17	-9.70532
1212.45	-18.0305
1212.72	29.2441
1213	-4.51355
1213.28	-18.0295
1213.56	-9.0199
1213.83	-5.22229
1214.11	10.1488
1214.39	30.1851
1214.67	-3.02356
1214.94	-38.4012
1215.22	9.22986
1215.5	3.57788
1215.78	-7.41541
1216.05	3.89673
1216.33	21.3104
1216.61	-2.9364
1216.89	-42.1731
1217.16	31.3455
1217.44	-34.2433
1217.72	12.838
1218	22.722
1218.27	-19.3354
1218.55	29.9303
1218.83	4.90479
1219.1	-15.7213
1219.38	-22.4747
1219.66	11.0518
1219.94	32.8508
1220.21	3.64624
1220.49	37.2561
1220.77	-44.6884
1221.04	-48.2371
1221.32	-16.8597
1221.6	33.4701
1221.88	7.45276
1222.15	6.70422
1222.43	15.33
1222.71	4.77832
1222.98	-29.1178
1223.26	-6.87537
1223.54	28.0664
1223.81	-0.376831
1224.09	-9.67603
1224.37	22.2183
1224.65	17.3048
1224.92	-6.52087
1225.2	-18.637
1225.48	-3.14014
1225.76	-19.0707
1226.03	14.5906
1226.31	-0.275879
1226.59	28.9052
1226.86	21.1029
1227.14	6.77917
1227.42	-33.8981
1227.69	19.8521
1227.97	24.3223
1228.25	-25.4061
1228.52	9.18994
1228.8	0.000366211
1229.08	-13.08
1229.35	-9.3031
1229.63	8.0332
1229.91	-11.0071
1230.18	-22.2993
1230.46	12.7808
1230.74	15.0648
1231.01	-7.17932
1231.29	0
1231.57	9.15247
1231.84	12.2968
1232.12	13.0128
1232.4	34.7195
1232.67	25.8135
1232.95	-15.5055
1233.23	-14.8507
1233.5	4.64758
1233.78	-35.6172
1234.06	30.344
1234.33	-2.38306
1234.61	21.6364
1234.89	28.9232
1235.16	0.508179
1235.44	0.330444
1235.71	-8.23914
1235.99	-34.6356
1236.27	8.29272
1236.54	7.95496
1236.82	10.5968
1237.1	-29.9122
1237.37	0.957153
1237.65	6.40479
1237.93	-27.0424
1238.2	3.57312
1238.48	-27.7565
1238.76	-0.316284
1239.03	-23.0975
1239.31	11.9628
1239.58	-15.8328
1239.86	26.6665
1240.14	11.5686
1240.41	-27.5837
1240.69	-14.2799
1240.97	-8.26245
1241.24	8.27808
1241.52	23.7482
1241.79	-10.2596
1242.07	-41.261
1242.35	29.4991
1242.62	-6.41821
1242.9	16.4188
1243.18	-35.0271
1243.45	13.0861
1243.73	12.7448
1244	12.4419
1244.28	-11.8813
1244.56	-0.688965
1244.83	17.7543
1245.11	1.55042
1245.39	5.07068
1245.66	-1.94507
1245.94	-8.06165
1246.21	8.87842
1246.49	50.1985
1246.76	9.96851
1247.04	-12.3262
1247.32	16.6273
1247.59	37.0985
1247.87	23.1387
1248.14	11.1266
1248.42	22.75
1248.7	26.2903
1248.97	-18.0393
1249.25	26.7094
1249.52	50.5681
1249.8	8.2948
1250.08	19.4213
1250.35	24.3452
1250.63	35.1766
1250.9	-26.2096
1251.18	11.7795
1251.45	23.6708
1251.73	-14.556
1252.01	4.68665
1252.28	8.24048
1252.56	17.0135
1252.83	12.2042
1253.11	-15.6084
1253.39	27.5885
1253.66	5.18567
1253.94	10.0856
1254.21	34.0259
1254.49	15.2242
1254.76	5.85718
1255.04	-15.2115
1255.31	46.0682
1255.59	-0.0749512
1255.87	44.5
1256.14	-9.16431
1256.42	17.7349
1256.69	53.0457
1256.97	-18.0615
1257.24	22.4265
1257.52	37.681
1257.79	37.1144
1258.07	61.6992
1258.35	39.3136
1258.62	56.5944
1258.9	48.7692
1259.17	71.0052
1259.45	53.9353
1259.72	42.321
1260	41.1967
1260.27	76.0258
1260.55	68.9906
1260.82	104.788
1261.1	99.6554
1261.37	82.2098
1261.65	74.3008
1261.92	122.202
1262.2	144.323
1262.48	160.967
1262.75	153.402
1263.02	173.118
1263.3	186.254
1263.58	197.6
1263.85	152.102
1264.13	178.217
1264.4	128.37
1264.68	148.804
1264.95	68.9471
1265.23	75.5122
1265.5	91.9019
1265.78	78.8832
1266.05	39.5812
1266.33	82.0814
1266.6	31.7191
1266.88	62.9694
1267.15	47.2804
1267.43	61.9811
1267.7	53.745
1267.98	69.6027
1268.25	22.7474
1268.53	60.851
1268.8	31.8187
1269.08	28.6768
1269.35	70.5287
1269.63	59.9381
1269.9	66.8406
1270.18	28.4254
1270.45	35.9615
1270.73	13.2872
1271	29.3064
1271.28	15.0829
1271.55	71.1511
1271.83	31.881
1272.1	59.9324
1272.38	49.5341
1272.65	60.1582
1272.93	22.7819
1273.2	-5.39661
1273.47	50.2489
1273.75	50.3777
1274.03	53.6433
1274.3	32.7953
1274.57	35.8929
1274.85	65.0153
1275.12	15.3207
1275.4	42.2715
1275.67	58.9182
1275.95	33.691
1276.22	102.921
1276.5	82.0264
1276.77	78.8669
1277.05	91.4766
1277.32	90.3474
1277.6	94.6532
1277.87	91.6035
1278.14	31.7911
1278.42	64.3888
1278.69	118.006
1278.97	123.447
1279.24	110.791
1279.52	150.732
1279.79	173.449
1280.07	186.652
1280.34	237.642
1280.61	256.177
1280.89	367.492
1281.16	496.743
1281.44	666.357
1281.71	833.053
1281.99	1217.28
1282.26	1662.14
1282.53	2210.59
1282.81	2749.76
1283.08	3128.71
1283.36	3227.04
1283.63	3029.02
1283.91	2662.34
1284.18	2151.23
1284.45	1667.21
1284.73	1167.03
1285	834.236
1285.28	625.236
1285.55	432.119
1285.83	345.797
1286.1	262.34
1286.37	212.945
1286.65	190.492
1286.92	124.548
1287.2	103.145
1287.47	97.4531
1287.75	103.191
1288.02	115.188
1288.29	66.2699
1288.57	118.549
1288.84	103.548
1289.12	73.8868
1289.39	88.5681
1289.66	47.5044
1289.94	43.2935
1290.21	103.367
1290.49	58.0614
1290.76	81.9641
1291.03	81.4579
1291.31	19.9546
1291.58	60.6893
1291.86	27.7039
1292.13	70.5056
1292.4	16.4917
1292.68	54.2041
1292.95	5.34094
1293.22	61.7642
1293.5	15.1974
1293.77	5.95361
1294.05	66.4078
1294.32	24.6603
1294.59	30.8713
1294.87	20.019
1295.14	13.2593
1295.42	57.5477
1295.69	40.0299
1295.96	65.9937
1296.24	15.162
1296.51	20.8386
1296.79	-5.71985
1297.06	4.58484
1297.33	55.8817
1297.61	6.66003
1297.88	-19.3481
1298.15	38.0577
1298.43	39.4086
1298.7	18.1777
1298.97	64.2006
1299.25	53.0426
1299.52	14.4924
1299.79	-2.97656
1300.07	9.36206
1300.34	7.24121
1300.62	29.2787
1300.89	30.0763
1301.16	15.962
1301.44	37.7646
1301.71	47.045
1301.98	14.2952
1302.25	41.7169
1302.53	18.3196
1302.8	14.896
1303.08	11.3977
1303.35	4.64624
1303.62	11.5503
1303.9	-5.95605
1304.17	26.4142
1304.44	58.8817
1304.72	35.3527
1304.99	18.1329
1305.26	2.83862
1305.54	-7.26147
1305.81	2.60718
1306.08	36.7478
1306.35	-14.6091
1306.63	15.3431
1306.9	13.8372
1307.18	10.365
1307.45	16.5439
1307.72	56.375
1308	8.58594
1308.27	-3.32776
1308.54	2.79077
1308.81	13.9927
1309.09	-11.5271
1309.36	5.31628
1309.63	5.25867
1309.91	12.5946
1310.18	5.06763
1310.45	-31.1552
1310.73	25.4265
1311	28.2952
1311.27	3.80103
1311.55	19.4246
1311.82	12.8754
1312.09	19.0531
1312.37	-6.28491
1312.64	-9.49963
1312.91	14.6093
1313.18	6.84729
1313.46	-33.8328
1313.73	25.9902
1314	-9.29565
1314.28	-16.0446
1314.55	-0.506958
1314.82	15.1327
1315.09	28.7355
1315.37	8.599
1315.64	-18.9454
1315.91	9.49939
1316.18	15.7698
1316.46	11.1819
1316.73	-2.94861
1317	5.13818
1317.28	26.9789
1317.55	-17.6694
1317.82	24.5315
1318.09	1.17236
1318.37	7.3291
1318.64	-0.284546
1318.91	13.2014
1319.18	-6.09546
1319.46	11.5259
1319.73	11.1703
1320	1.31445
1320.28	-19.988
1320.55	-12.8577
1320.82	-37.5328
1321.09	33.7662
1321.37	24.6426
1321.64	8.0332
1321.91	-2.28992
1322.18	-8.1593
1322.46	6.90125
1322.73	-2.05237
1323	-7.84546
1323.27	-29.4719
1323.55	3.65857
1323.82	-9.07898
1324.09	7.58508
1324.36	37.9097
1324.64	0.670288
1324.91	-19.6183
1325.18	-23.111
1325.45	3.07629
1325.73	3.41199
1326	-12.3901
1326.27	26.3762
1326.54	-7.76257
1326.81	-8.53943
1327.09	-7.89526
1327.36	-6.55408
1327.63	-16.2402
1327.9	12.5226
1328.18	1.25916
1328.45	9.02454
1328.72	-6.3999
1328.99	1.24768
1329.27	27.5105
1329.54	-1.46399
1329.81	13.2126
1330.08	-19.8414
1330.35	-6.54236
1330.63	15.1128
1330.9	-11.8429
1331.17	8.56641
1331.44	17.2656
1331.71	-26.8798
1331.99	-22.6234
1332.26	-6.63464
1332.53	19.9835
1332.8	-22.9022
1333.07	24.6293
1333.35	-14.1171
1333.62	2.9259
1333.89	16.845
1334.16	18.1804
1334.43	14.2788
1334.71	-15.8489
1334.98	28.6058
1335.25	31.1193
1335.52	3.23047
1335.79	14.1783
1336.07	-2.12769
1336.34	32.973
1336.61	38.7363
1336.88	-28.8691
1337.15	10.5055
1337.43	28.9435
1337.7	-2.91516
1337.97	14.4474
1338.24	-14.5389
1338.51	7.84802
1338.78	-27.2329
1339.06	-16.2593
1339.33	-2.04834
1339.6	-0.269165
1339.87	1.62634
1340.14	10.884
1340.42	-4.005
1340.69	-4.20166
1340.96	1.87646
1341.23	29.8564
1341.5	-10.2775
1341.77	17.6127
1342.04	21.3463
1342.32	17.6659
1342.59	17.0283
1342.86	20.4928
1343.13	10.3623
1343.4	11.9545
1343.67	16.7936
1343.95	21.7059
1344.22	-1.57581
1344.49	0.290527
1344.76	-20.8835
1345.03	9.03076
1345.3	4.3075
1345.58	8.88635
1345.85	-18.0431
1346.12	39.7776
1346.39	2.36804
1346.66	-0.835083
1346.93	8.79358
1347.2	27.8401
1347.47	10.3522
1347.75	-28.9624
1348.02	-9.72095
1348.29	-20.6172
1348.56	-1.21667
1348.83	-19.3121
1349.1	6.21851
1349.37	0.432495
1349.65	-5.36584
1349.92	7.60547
1350.19	27.8655
1350.46	6.4834
1350.73	-21.1481
1351	1.07739
1351.27	0.389648
1351.54	-21.9867
1351.81	-1.87537
1352.09	39.3379
1352.36	-35.8079
1352.63	-11.9393
1352.9	-22.217
1353.17	22.7998
1353.44	-8.38733
1353.71	-1.96301
1353.98	-24.575
1354.25	-3.51318
1354.53	-5.30994
1354.8	-12.5209
1355.07	-3.22266
1355.34	7.06848
1355.61	-19.7543
1355.88	17.0782
1356.15	-4.38818
1356.42	0.70105
1356.69	29.1716
1356.96	22.5234
1357.24	-27.7236
1357.51	9.2522
1357.78	7.74524
1358.05	31.1116
1358.32	3.57727
1358.59	16.5139
1358.86	14.9395
1359.13	-12.6307
1359.4	-14.2402
1359.67	20.5354
1359.94	40.8115
1360.22	7.97522
1360.49	-19.7269
1360.76	5.45874
1361.03	4.89392
1361.3	23.1626
1361.57	33.2568
1361.84	35.0245
1362.11	2.5791
1362.38	14.5634
1362.65	34.8533
1362.92	36.5154
1363.19	50.7148
1363.46	35.0612
1363.73	39.2758
1364	52.7305
1364.28	53.7572
1364.55	37.9661
1364.82	28.2927
1365.09	67.2286
1365.36	7.64905
1365.63	13.24
1365.9	36.3971
1366.17	15.0667
1366.44	53.7559
1366.71	15.869
1366.98	26.504
1367.25	46.3365
1367.52	25.1573
1367.79	17.5214
1368.06	38.1957
1368.33	70.1486
1368.6	19.3798
1368.87	97.8284
1369.15	147.335
1369.41	188.625
1369.68	211.28
1369.95	171.531
1370.23	77.015
1370.5	53.8405
1370.77	32.48
1371.04	75.42
1371.31	88.2899
1371.58	54.5054
1371.85	44.3921
1372.12	41.3953
1372.39	52.8678
1372.66	47.8906
1372.93	66.7827
1373.2	63.1584
1373.47	36.9277
1373.74	28.2401
1374.01	63.9012
1374.28	76.9218
1374.55	43.6011
1374.82	73.1404
1375.09	66.5969
1375.36	48.6371
1375.63	88.6655
1375.9	78.375
1376.17	82.2327
1376.44	62.5444
1376.71	62.8922
1376.98	56.0516
1377.25	111.853
1377.52	66.6171
1377.79	63.5417
1378.06	26.7329
1378.33	74.593
1378.6	100.008
1378.87	80.1997
1379.14	136.999
1379.41	113.002
1379.68	116.665
1379.95	102.784
1380.22	119.705
1380.49	88.8153
1380.76	104.612
1381.03	138.519
1381.3	153.024
1381.57	134.616
1381.84	151.395
1382.11	157.491
1382.38	141.945
1382.65	203.577
1382.92	165.702
1383.19	161.676
1383.46	258.38
1383.73	259.632
1384	258.042
1384.27	331.362
1384.54	394.789
1384.81	446.035
1385.08	566.215
1385.34	700.004
1385.61	917.289
1385.88	1303.75
1386.15	1922.3
1386.42	2908.36
1386.69	4315.15
1386.96	6026.77
1387.23	7319.62
1387.5	7295.8
1387.77	5843.05
1388.04	3939.15
1388.31	2577.36
1388.58	1598.91
1388.85	1085.36
1389.12	780.805
1389.39	621.004
1389.66	447.467
1389.93	366.4
1390.2	350.084
1390.46	279.511
1390.73	217.04
1391	200.363
1391.27	202.437
1391.54	143.651
1391.81	174.019
1392.08	151.862
1392.35	154.241
1392.62	112.652
1392.89	116.23
1393.16	110.653
1393.43	46.7771
1393.7	96.5485
1393.97	70.5935
1394.23	32.3837
1394.5	74.0151
1394.77	100.308
1395.04	32.5083
1395.31	102.09
1395.58	96.0653
1395.85	98.1414
1396.12	62.2078
1396.39	71.1677
1396.66	94.3622
1396.93	84.7361
1397.2	77.1415
1397.46	56.1405
1397.73	86.297
1398	80.8129
1398.27	83.6708
1398.54	60.0769
1398.81	54.9858
1399.08	69.2471
1399.35	75.291
1399.62	47.7836
1399.89	58.0271
1400.16	56.9882
1400.42	49.6155
1400.69	88.5818
1400.96	91.9323
1401.23	86.8433
1401.5	56.8905
1401.77	67.1626
1402.04	38.286
1402.31	89.9344
1402.58	51.8479
1402.84	62.0094
1403.11	80.0775
1403.38	41.4757
1403.65	94.9541
1403.92	39.3475
1404.19	36.739
1404.46	73.4919
1404.73	106.412
1404.99	65.0253
1405.26	52.3129
1405.53	118.476
1405.8	104.608
1406.07	128.7
1406.34	112.836
1406.61	149.354
1406.87	137.746
1407.14	169.427
1407.41	175.535
1407.68	216.528
1407.95	240.046
1408.22	265.618
1408.49	319.897
1408.76	332.145
1409.02	309.562
1409.29	314.701
1409.56	263.412
1409.83	250.059
1410.1	212.04
1410.37	162.627
1410.63	158.992
1410.9	96.76
1411.17	84.7251
1411.44	69.7705
1411.71	87.7178
1411.98	59.6355
1412.25	66.5647
1412.51	80.994
1412.78	69.0525
1413.05	70.0339
1413.32	45.3711
1413.59	79.1858
1413.86	15.9901
1414.12	38.0576
1414.39	49.5691
1414.66	12.6486
1414.93	40.0048
1415.2	41.7645
1415.47	22.1516
1415.73	21.9869
1416	30.0831
1416.27	13.6317
1416.54	15.6785
1416.81	21.8455
1417.07	72.1924
1417.34	28.0706
1417.61	32.226
1417.88	-2.68445
1418.15	26.0193
1418.42	32.0502
1418.68	32.9855
1418.95	22.6257
1419.22	44.0631
1419.49	28.5145
1419.76	11.7115
1420.02	60.5245
1420.29	11.7098
1420.56	17.3699
1420.83	-1.64685
1421.1	40.9185
1421.36	26.0457
1421.63	54.4542
1421.9	33.8672
1422.17	19.8115
1422.44	-0.289673
1422.7	41.2424
1422.97	8.13611
1423.24	45.5162
1423.51	32.5499
1423.77	33.2335
1424.04	40.5464
1424.31	34.7225
1424.58	15.3887
1424.85	30.6073
1425.11	8.41956
1425.38	46.4175
1425.65	38.2855
1425.92	30.6862
1426.19	-2.70325
1426.45	49.3199
1426.72	34.4734
1426.99	12.3098
1427.26	18.8275
1427.52	38.6364
1427.79	19.2896
1428.06	46.187
1428.33	11.9395
1428.59	13.7109
1428.86	8.45703
1429.13	-15.1501
1429.4	16.5841
1429.67	-16.1421
1429.93	4.46021
1430.2	4.68494
1430.47	16.2764
1430.74	14.4512
1431	1.51025
1431.27	1.11316
1431.54	16.9624
1431.81	22.2461
1432.07	4.64636
1432.34	34.9441
1432.61	-6.68262
1432.87	7.25208
1433.14	-37.5493
1433.41	26.2212
1433.68	-23.8911
1433.95	-7.33398
1434.21	15.627
1434.48	0.952637
1434.75	-38.326
1435.01	3.89697
1435.28	-45.3724
1435.55	-35.2704
1435.82	-10.873
1436.08	-17.2612
1436.35	21.4078
1436.62	17.03
1436.89	14.6566
1437.15	19.4484
1437.42	10.9432
1437.69	31.2222
1437.95	-21.3668
1438.22	7.06409
1438.49	0.85437
1438.76	3.02441
1439.02	20.4517
1439.29	21.3785
1439.56	-10.4386
1439.82	16.3279
1440.09	-5.96362
1440.36	-39.4473
1440.63	-12.7211
1440.89	-54.8088
1441.16	-7.76306
1441.43	11.6702
1441.69	-21.4335
1441.96	-52.641
1442.23	-12.9622
1442.49	7.75977
1442.76	38.4169
1443.03	6.83667
1443.3	10.5588
1443.56	18.2996
1443.83	11.7378
1444.1	0.12915
1444.36	18.3628
1444.63	35.7509
1444.9	4.33716
1445.16	24.114
1445.43	-0.0791016
1445.7	-18.8484
1445.97	-2.75256
1446.23	18.4866
1446.5	18.1816
1446.77	17.8945
1447.03	-14.1895
1447.3	34.7448
1447.57	-49.6747
1447.83	-4.93347
1448.1	-1.16284
1448.37	21.2289
1448.63	-26.7965
1448.9	5.24622
1449.17	-19.4087
1449.43	23.4955
1449.7	14.9851
1449.97	-3.85706
1450.23	4.92761
1450.5	21.9105
1450.77	2.13
1451.03	17.2128
1451.3	51.766
1451.57	13.5414
1451.83	-23.6797
1452.1	11.8584
1452.37	14.6444
1452.63	-32.7085
1452.9	-0.0473633
1453.17	-14.453
1453.43	-13.3732
1453.7	-5.15247
1453.97	-39.1051
1454.23	22.1095
1454.5	-15.0278
1454.77	-13.1289
1455.03	22.5923
1455.3	33.6633
1455.56	9.82751
1455.83	25.0879
1456.1	-30.0853
1456.36	15.0323
1456.63	-0.492065
1456.9	-3.86523
1457.16	34.6206
1457.43	7.54211
1457.7	2.13403
1457.96	13.1385
1458.23	-15.7648
1458.49	-28.1938
1458.76	-10.8827
1459.03	14.6841
1459.29	-21.2357
1459.56	-13.1245
1459.82	17.5054
1460.09	-33.9385
1460.36	9.85437
1460.62	20.8468
1460.89	19.5225
1461.16	22.2516
1461.42	30.0613
1461.69	-22.5454
1461.95	18.0049
1462.22	5.26904
1462.49	14.0034
1462.75	-28.4648
1463.02	16.0172
1463.28	19.5438
1463.55	3.6217
1463.82	-22.4668
1464.08	-0.183716
1464.35	5.34705
1464.61	-24.6578
1464.88	-3.69678
1465.15	1.09705
1465.41	-5.55005
1465.68	20.6559
1465.94	-35.073
1466.21	-44.5779
1466.48	3.79675
1466.74	18.7905
1467.01	32.1263
1467.27	-12.1318
1467.54	4.2196
1467.8	-4.20325
1468.07	-12.6414
1468.34	26.9164
1468.6	0.216187
1468.87	12.2699
1469.13	31.3983
1469.4	-3.60632
1469.67	9.2843
1469.93	-44.2274
1470.2	32.6803
1470.46	-7.5614
1470.73	29.749
1470.99	-23.5944
1471.26	8.73071
1471.53	-14.0759
1471.79	-11.5203
1472.06	-14.9681
1472.32	-14.2244
1472.59	19.1638
1472.85	30.1681
1473.12	-23.9978
1473.39	-28.3511
1473.65	-25.7028
1473.92	3.40271
1474.18	19.3217
1474.45	8.86816
1474.71	33.1406
1474.98	11.7882
1475.24	-36.0736
1475.51	4.51721
1475.78	-2.80994
1476.04	13.1638
1476.31	16.8436
1476.57	-8.91748
1476.84	-1.08105
1477.1	-17.791
1477.37	14.3157
1477.63	-35.8151
1477.9	-25.8544
1478.16	27.8524
1478.43	15.2928
1478.69	12.7578
1478.96	-31.3634
1479.22	-3.31445
1479.49	32.8143
1479.76	-39.8134
1480.02	20.6042
1480.29	-17.5028
1480.55	15.2103
1480.82	34.8358
1481.08	2.87048
1481.35	9.66113
1481.61	30.5088
1481.88	5.16882
1482.14	2.27039
1482.41	-16.8267
1482.67	15.8826
1482.94	4.85608
1483.2	-7.47827
1483.47	0.721436
1483.73	16.9443
1484	10.7117
1484.26	22.6912
1484.53	17.7451
1484.79	-10.811
1485.06	20.5608
1485.32	11.8655
1485.59	-27.6047
1485.85	17.3676
1486.12	-8.92822
1486.38	23.8672
1486.65	25.433
1486.91	-6.02856
1487.18	-4.23608
1487.44	-35.5206
1487.71	7.37146
1487.97	16.9368
1488.24	-2.70569
1488.5	7.9928
1488.77	-4.70117
1489.03	31.1517
1489.3	-8.80334
1489.56	4.00525
1489.83	-17.5424
1490.09	18.6091
1490.36	11.3693
1490.62	23.3372
1490.89	-42.7791
1491.15	40.663
1491.42	1.72925
1491.68	19.6099
1491.95	6.2395
1492.21	38.4406
1492.48	30.2892
1492.74	19.9728
1493	23.7764
1493.27	41.766
1493.53	-28.1362
1493.8	18.0923
1494.06	-22.5554
1494.33	1.58313
1494.59	14.701
1494.86	28.8647
1495.12	15.5063
1495.39	47.4127
1495.65	26.5104
1495.92	-4.60413
1496.18	-9.31165
1496.45	-1.71057
1496.71	25.1552
1496.97	16.7065
1497.24	33.4681
1497.5	-10.092
1497.77	-5.20667
1498.03	27.8485
1498.3	18.5795
1498.56	37.6255
1498.82	28.4385
1499.09	26.3378
1499.35	68.6644
1499.62	14.1366
1499.88	4.06165
1500.15	46.4747
1500.41	39.3308
1500.68	30.0854
1500.94	38.9641
1501.2	-4.64661
1501.47	28.3246
1501.73	32.8676
1502	9.39661
1502.26	2.13342
1502.52	19.0735
1502.79	33.8882
1503.05	31.3308
1503.32	24.7679
1503.58	19.364
1503.85	48.1299
1504.11	3.61243
1504.37	-8.45825
1504.64	63.0795
1504.9	32.6971
1505.17	8.26611
1505.43	27.0892
1505.7	35.7352
1505.96	23.9819
1506.22	31.2399
1506.49	26.9377
1506.75	12.6322
1507.02	9.54492
1507.28	20.751
1507.54	16.6482
1507.81	15.5787
1508.07	18.4414
1508.34	-6.0105
1508.6	34.049
1508.86	3.71228
1509.13	29.8352
1509.39	45.8411
1509.66	-7.73511
1509.92	19.3191
1510.18	42.558
1510.45	-2.81628
1510.71	65.2091
1510.98	34.4747
1511.24	34.9076
1511.5	31.2222
1511.77	9.19067
1512.03	37.2581
1512.29	9.99609
1512.56	-13.1655
1512.82	24.099
1513.08	1.37866
1513.35	-33.3248
1513.61	24.4103
1513.88	-19.0488
1514.14	15.3688
1514.4	42.0537
1514.67	18.99
1514.93	6.58105
1515.2	-6.03259
1515.46	15.4231
1515.72	-0.246216
1515.99	-6.96667
1516.25	5.38513
1516.51	-0.161133
1516.78	-9.51111
1517.04	13.2622
1517.3	30.0404
1517.57	22.8274
1517.83	14.6954
1518.09	-13.3911
1518.36	3.84497
1518.62	65.9836
1518.88	16.8279
1519.15	42.8727
1519.41	33.8666
1519.67	67.98
1519.94	-5.3114
1520.2	20.5894
1520.47	16.2634
1520.73	55.1105
1520.99	16.9565
1521.26	42.078
1521.52	44.1111
1521.78	-6.13757
1522.05	-3.3457
1522.31	29.4557
1522.57	13.0526
1522.84	30.7413
1523.1	12.3511
1523.36	-12.1665
1523.62	8.1958
1523.89	10.3254
1524.15	33.7344
1524.41	19.1748
1524.68	43.7419
1524.94	30.2852
1525.2	22.3428
1525.47	48.3246
1525.73	1.1803
1525.99	-3.70374
1526.26	1.50488
1526.52	37.9257
1526.78	42.1769
1527.05	0.083374
1527.31	14.9315
1527.57	27.5538
1527.84	47.3323
1528.1	26.9879
1528.36	2.64148
1528.63	45.3584
1528.89	30.9883
1529.15	12.6436
1529.41	28.4331
1529.68	20.2416
1529.94	36.0007
1530.2	9.51807
1530.47	26.3147
1530.73	20.3346
1530.99	36.5963
1531.25	31.826
1531.52	0.905762
1531.78	12.8276
1532.04	-7.47864
1532.31	26.4955
1532.57	-11.9695
1532.83	13.1534
1533.09	23.526
1533.36	-6.02795
1533.62	62.6001
1533.88	16.5831
1534.15	18.5958
1534.41	33.4817
1534.67	24.2053
1534.94	11.8784
1535.2	39.6204
1535.46	46.3268
1535.72	6.72107
1535.99	-7.37427
1536.25	59.049
1536.51	27.4249
1536.77	26.6364
1537.04	25.7947
1537.3	17.0321
1537.56	8.62402
1537.82	15.0532
1538.09	48.9359
1538.35	-1.59717
1538.61	26.6724
1538.87	4.34717
1539.14	-5.97278
1539.4	63.3724
1539.66	-12.7114
1539.92	41.5414
1540.19	22.317
1540.45	23.9639
1540.71	21.6287
1540.97	38.0386
1541.24	43.1199
1541.5	43.1936
1541.76	49.9742
1542.02	46.3049
1542.29	-14.4227
1542.55	54.085
1542.81	30.4327
1543.07	18.8394
1543.34	24.2793
1543.6	-50.377
1543.86	29.9214
1544.12	24.1409
1544.39	27.0791
1544.65	-7.95776
1544.91	68.3088
1545.17	12.7068
1545.43	26.9829
1545.7	6.55811
1545.96	9.82007
1546.22	47.9783
1546.48	24.0017
1546.74	16.7344
1547.01	31.7037
1547.27	22.7566
1547.53	20.832
1547.79	-4.16516
1548.06	50.3877
1548.32	44.2472
1548.58	44.0984
1548.84	9.00488
1549.1	59.4916
1549.37	25.5604
1549.63	2.48108
1549.89	19.9174
1550.15	29.8185
1550.42	18.6196
1550.68	-8.77563
1550.94	49.3108
1551.2	42.9797
1551.46	51.5988
1551.73	72.7264
1551.99	47.0963
1552.25	8.21936
1552.51	11.9169
1552.77	45.683
1553.03	25.2052
1553.3	53.6359
1553.56	36.048
1553.82	47.6384
1554.08	38.3058
1554.34	21.7312
1554.61	57.1414
1554.87	35.3073
1555.13	1.42944
1555.39	50.1335
1555.65	58.877
1555.91	59.7212
1556.18	32.6478
1556.44	27.5127
1556.7	19.0665
1556.96	22.949
1557.22	21.9238
1557.48	5.85864
1557.75	-14.2916
1558.01	9.50208
1558.27	20.0309
1558.53	48.3285
1558.79	16.6736
1559.06	36.9064
1559.32	37.1807
1559.58	43.5284
1559.84	12.9708
1560.1	19.4928
1560.36	54.0626
1560.63	11.7383
1560.89	27.4318
1561.15	36.1656
1561.41	56.985
1561.67	3.00513
1561.93	0.20105
1562.19	-1.43628
1562.46	53.9788
1562.72	18.8446
1562.98	11.6057
1563.24	-13.6945
1563.5	6.24915
1563.76	15.92
1564.02	11.6608
1564.29	45.1804
1564.55	34.7651
1564.81	5.83118
1565.07	23.5682
1565.33	25.3596
1565.59	25.8964
1565.85	37.1169
1566.11	55.462
1566.38	-0.714966
1566.64	-3.6217
1566.9	-11.7174
1567.16	24.8706
1567.42	7.26733
1567.68	15.783
1567.94	0.195923
1568.2	35.7306
1568.47	19.8165
1568.73	26.9314
1568.99	-2.08118
1569.25	24.5902
1569.51	-3.23901
1569.77	-6.78601
1570.03	37.0504
1570.29	-4.91968
1570.55	43.9459
1570.82	10.8445
1571.08	37.6425
1571.34	37.4097
1571.6	49.0809
1571.86	-17.309
1572.12	29.1648
1572.38	-5.00647
1572.64	39.5547
1572.9	43.0304
1573.17	50.5903
1573.43	-1.74048
1573.69	21.7589
1573.95	5.37537
1574.21	48.1827
1574.47	4.45959
1574.73	22.7137
1574.99	46.9857
1575.25	7.3656
1575.51	-3.32312
1575.78	11.8593
1576.04	12.7999
1576.3	-13.4656
1576.56	33.3184
1576.82	19.9648
1577.08	46.193
1577.34	20.345
1577.6	45.4666
1577.86	-4.23755
1578.12	0.00976563
1578.38	19.2485
1578.64	-18.1392
1578.9	27.4607
1579.17	3.36584
1579.43	21.1464
1579.69	40.9537
1579.95	29.948
1580.21	41.0436
1580.47	28.0703
1580.73	30.9495
1580.99	-7.17041
1581.25	30.3551
1581.51	46.8511
1581.77	46.4498
1582.03	60.8634
1582.29	22.4401
1582.55	17.1696
1582.81	3.93738
1583.07	40.4991
1583.33	-27.4945
1583.59	8.15881
1583.85	68.7195
1584.11	-5.32336
1584.38	-12.4485
1584.64	-7.45605
1584.9	47.304
1585.16	14.361
1585.42	25.1506
1585.68	37.8448
1585.94	9.75842
1586.2	-33.3972
1586.46	9.83643
1586.72	4.24573
1586.98	2.76477
1587.24	48.1429
1587.5	36.8425
1587.76	11.655
1588.02	23.3517
1588.28	26.201
1588.54	27.2006
1588.8	41.1998
1589.06	46.3081
1589.32	18.5244
1589.58	58.437
1589.84	3.71008
1590.1	-8.32043
1590.36	27.3677
1590.62	31.354
1590.88	23.4613
1591.14	14.5261
1591.4	-9.57922
1591.66	37.0652
1591.92	26.829
1592.18	35.4446
1592.44	32.8777
1592.7	34.1145
1592.96	25.5587
1593.22	3.23181
1593.48	58.0835
1593.74	10.4457
1594	48.2662
1594.26	57.5555
1594.52	49.1986
1594.78	30.1783
1595.04	0.454834
1595.3	22.5428
1595.56	19.6681
1595.82	-16.2531
1596.08	58.238
1596.34	8.38623
1596.6	25.1189
1596.86	55.7761
1597.12	54.7065
1597.38	18.9326
1597.64	24.9114
1597.9	9.02991
1598.16	-9.04834
1598.42	48.2408
1598.68	38.8086
1598.94	37.1475
1599.2	19.6552
1599.46	48.9265
1599.72	21.657
1599.98	9.2793
1600.24	-15.9917
1600.5	61.9097
1600.76	-10.0148
1601.02	27.0497
1601.28	-11.3534
1601.54	24.537
1601.8	36.6462
1602.06	21.1265
1602.32	25.5294
1602.58	-7.65137
1602.84	44.2437
1603.1	24.83
1603.36	48.9865
1603.62	11.8877
1603.88	10.5098
1604.14	6.2478
1604.4	21.8741
1604.66	44.498
1604.92	33.5293
1605.17	36.3684
1605.43	17.4749
1605.69	44.0955
1605.95	52.016
1606.21	24.4
1606.47	37.3607
1606.73	28.559
1606.99	27.6218
1607.25	13.7025
1607.51	38.9465
1607.77	28.738
1608.03	1.63257
1608.29	9.07617
1608.55	10.1006
1608.81	60.147
1609.07	22.0723
1609.32	49.1797
1609.58	22.9928
1609.84	0.750122
1610.1	-7.40063
1610.36	-13.3326
1610.62	25.9868
1610.88	-3.95789
1611.14	4.91541
1611.4	20.0479
1611.66	47.265
1611.92	42.6995
1612.18	17.7468
1612.44	44.0428
1612.69	6.45813
1612.95	0.585327
1613.21	32.0016
1613.47	6.62683
1613.73	19.9935
1613.99	-6.41858
1614.25	-2.19641
1614.51	49.0396
1614.77	-1.80518
1615.03	14.5287
1615.29	4.77271
1615.54	34.953
1615.8	18.9156
1616.06	22.1923
1616.32	7.82446
1616.58	9.8446
1616.84	28.6239
1617.1	8.93127
1617.36	24.7969
1617.62	-1.83325
1617.88	15.4905
1618.13	7.48572
1618.39	7.26135
1618.65	28.8013
1618.91	39.566
1619.17	0.0761719
1619.43	4.08801
1619.69	42.8687
1619.95	24.0737
1620.2	28.8514
1620.46	11.7963
1620.72	15.5568
1620.98	-9.60486
1621.24	-29.7847
1621.5	0.830688
1621.76	39.1736
1622.02	19.5687
1622.27	29.4426
1622.53	22.6068
1622.79	28.9207
1623.05	21.1232
1623.31	22.8878
1623.57	20.8022
1623.83	18.575
1624.09	25.8865
1624.34	17.4736
1624.6	10.885
1624.86	2.39783
1625.12	5.92578
1625.38	-8.94263
1625.64	-2.46326
1625.9	12.4402
1626.15	37.8326
1626.41	24.9606
1626.67	9.3927
1626.93	7.79163
1627.19	6.06885
1627.45	9.16443
1627.7	22.9664
1627.96	19.7842
1628.22	17.6294
1628.48	32.8361
1628.74	18.5742
1629	22.693
1629.26	26.1235
1629.51	23.1582
1629.77	30.3789
1630.03	19.3143
1630.29	-6.71057
1630.55	-8.88477
1630.81	15.0867
1631.06	-1.58948
1631.32	10.4691
1631.53	53.6874
1631.79	-1.31824
1632.05	15.6567
1632.31	30.6388
1632.57	29.4065
1632.84	29.8198
1633.1	8.00854
1633.36	44.6146
1633.62	4.01343
1633.88	3.64673
1634.14	54.0381
1634.4	39.4348
1634.66	17.7113
1634.93	2.83508
1635.19	29.2755
1635.45	2.44128
1635.71	-11.6205
1635.97	32.4218
1636.23	4.48108
1636.49	26.7545
1636.75	41.1392
1637.02	26.931
1637.28	16.6155
1637.54	-3.58533
1637.8	28.5797
1638.06	-11.0161
1638.32	-20.1985
1638.58	54.2698
1638.84	25.4272
1639.1	20.3856
1639.37	25.1702
1639.63	58.4751
1639.89	-4.67969
1640.15	38.4565
1640.41	33.3198
1640.67	27.3328
1640.93	-1.9635
1641.19	33.6116
1641.46	1.05273
1641.72	29.3275
1641.98	-6.47742
1642.24	39.5118
1642.5	26.4658
1642.76	36.08
1643.02	26.006
1643.28	-1.76587
1643.54	33.48
1643.8	-7.06909
1644.06	19.2009
1644.33	12.9341
1644.59	32.1587
1644.85	7.15601
1645.11	8.9165
1645.37	52.2203
1645.63	-0.783936
1645.89	-35.2172
1646.15	30.6034
1646.41	9.59802
1646.67	23.9757
1646.93	5.91516
1647.19	-3.20886
1647.46	6.28223
1647.72	-3.91174
1647.98	22.3204
1648.24	2.46863
1648.5	-0.544312
1648.76	2.61389
1649.02	-10.9141
1649.28	22.4209
1649.54	42.3695
1649.8	-37.73
1650.06	15.0642
1650.32	26.7245
1650.58	27.1835
1650.85	26.5457
1651.11	18.9012
1651.37	-1.54114
1651.63	28.1399
1651.89	51.7644
1652.15	24.0447
1652.41	8.14465
1652.67	-17.536
1652.93	43.2246
1653.19	2.4436
1653.45	-1.74304
1653.71	16.845
1653.97	2.02173
1654.23	33.6174
1654.49	14.8888
1654.75	-13.7472
1655.01	16.8055
1655.27	-13.6323
1655.53	-12.3861
1655.8	7.77649
1656.06	32.0348
1656.32	0.807495
1656.57	20.724
1656.84	-1.93591
1657.1	3.94373
1657.36	27.4436
1657.62	30.0935
1657.88	24.8002
1658.14	2.82178
1658.4	-2.39661
1658.66	-22.4801
1658.92	2.75708
1659.18	-0.630371
1659.44	47.2643
1659.7	31.052
1659.96	6.95251
1660.22	-10.3751
1660.48	-24.1478
1660.74	19.3533
1661	-13.9965
1661.26	19.7577
1661.52	29.8657
1661.78	7.45532
1662.04	22.2937
1662.3	14.4205
1662.56	-3.31726
1662.82	6.23523
1663.08	43.7853
1663.34	1.01929
1663.6	13.5067
1663.86	13.8522
1664.12	4.6604
1664.38	-11.1295
1664.64	14.8942
1664.9	38.6365
1665.16	14.824
1665.42	21.0262
1665.68	30.5646
1665.94	30.5145
1666.2	-29.6567
1666.46	-26.3981
1666.72	28.634
1666.98	38.5115
1667.24	-15.173
1667.5	-20.3308
1667.76	-7.07324
1668.02	-2.59949
1668.28	4.95776
1668.54	-19.1847
1668.8	-32.0936
1669.06	19.988
1669.32	6.18481
1669.58	19.114
1669.84	5.20056
1670.1	-3.74487
1670.36	12.7104
1670.62	11.5938
1670.88	-3.30627
1671.14	-10.6777
1671.4	-11.9991
1671.66	-30.0748
1671.92	36.9172
1672.18	5.24939
1672.44	17.1572
1672.69	25.9929
1672.95	28.8207
1673.21	-5.91492
1673.47	-6.9751
1673.73	50.3192
1673.99	-8.98792
1674.25	28.6674
1674.51	10.0267
1674.77	-6.66589
1675.03	34.0212
1675.29	16.4717
1675.55	26.5498
1675.81	19.6746
1676.07	-6.15381
1676.33	8.53235
1676.59	-5.38135
1676.85	-3.42383
1677.11	-4.48364
1677.37	49.7954
1677.63	-5.86816
1677.89	6.68945
1678.14	67.6259
1678.4	14.6688
1678.66	9.16089
1678.92	-13.0837
1679.18	36.9408
1679.44	26.6812
1679.7	28.3624
1679.96	-14.4729
1680.22	-8.87109
1680.48	-13.1
1680.74	2.38135
1681	-23.6383
1681.26	23.4847
1681.52	34.1293
1681.78	10.2578
1682.03	4.18787
1682.29	4.06128
1682.55	20.7496
1682.81	38.4521
1683.07	40.2192
1683.33	15.3403
1683.59	13.2159
1683.85	20.0044
1684.11	-30.5549
1684.37	-24.8773
1684.63	-6.53772
1684.89	26.7478
1685.14	7.75745
1685.4	7.56775
1685.66	5.43176
1685.92	-1.61279
1686.18	30.8665
1686.44	17.9534
1686.7	-51.1328
1686.96	-4.43091
1687.22	17.3865
1687.48	-13.3154
1687.73	6.16895
1687.99	33.4701
1688.25	-25.1528
1688.51	11.078
1688.77	10.738
1689.03	-13.3717
1689.29	-3.05786
1689.55	0.43103
1689.81	29.5598
1690.06	-24.2302
1690.32	14.6583
1690.58	29.2053
1690.84	-6.94409
1691.1	9.96753
1691.36	4.10828
1691.62	10.0145
1691.88	23.9259
1692.13	3.2616
1692.39	-30.4094
1692.65	-4.97815
1692.91	-11.3096
1693.17	5.94958
1693.43	-12.3776
1693.69	-11.0604
1693.95	-30.5038
1694.2	-15.2493
1694.46	13.8054
1694.72	14.2518
1694.98	-35.4102
1695.24	19.6051
1695.5	-35.557
1695.76	7.7821
1696.01	-7.98022
1696.27	-30.6195
1696.53	28.6619
1696.79	12.9689
1697.05	11.8517
1697.31	4.64893
1697.57	-0.766113
1697.82	-4.34692
1698.08	-7.94421
1698.34	15.1475
1698.6	-12.8783
1698.86	25.062
1699.12	-9.7699
1699.38	28.3456
1699.63	43.9225
1699.89	-25.9418
1700.15	43.8286
1700.41	15.2122
1700.67	-8.88477
1700.92	16.4928
1701.18	-0.434814
1701.44	58.3606
1701.7	-4.88721
1701.96	20.2448
1702.22	8.91565
1702.47	-1.3877
1702.73	22.6749
1702.99	4.50269
1703.25	27.858
1703.51	-8.66687
1703.77	-23.6467
1704.02	12.4053
1704.28	23.9623
1704.54	19.1238
1704.8	3.56152
1705.06	-21.0526
1705.32	20.0123
1705.57	28.6196
1705.83	4.92737
1706.09	-31.5367
1706.35	52.5333
1706.61	50.0205
1706.86	24.8788
1707.12	-1.26208
1707.38	36.4105
1707.64	-17.1272
1707.9	9.69971
1708.16	17.7794
1708.41	12.1279
1708.67	19.2227
1708.93	4.66064
1709.19	-10.7902
1709.44	-45.6238
1709.7	12.7179
1709.96	-17.8768
1710.22	16.2469
1710.48	1.49524
1710.73	-2.4646
1710.99	36.7585
1711.25	27.1671
1711.51	25.2953
1711.77	31.2465
1712.02	-16.7002
1712.28	-4.03955
1712.54	6.40796
1712.8	5.73926
1713.06	5.7865
1713.31	-35.2935
1713.57	12.7123
1713.83	41.2039
1714.09	-2.66724
1714.34	32.0314
1714.6	11.1582
1714.86	-8.66858
1715.12	30.1815
1715.38	23.2061
1715.63	-3.89905
1715.89	-37.7583
1716.15	-22.2408
1716.41	9.73315
1716.66	-0.426147
1716.92	-1.9325
1717.18	13.9973
1717.44	17.0897
1717.69	-26.7913
1717.95	12.105
1718.21	24.7673
1718.47	-5.33862
1718.72	22.1461
1718.98	16.7278
1719.24	24.1647
1719.5	-10.0513
1719.75	30.7201
1720.01	6.16504
1720.27	-3.52234
1720.53	-29.8263
1720.78	0.0617676
1721.04	32.6959
1721.3	29.1257
1721.56	-23.9436
1721.81	-12.7672
1722.07	-23.0424
1722.33	-1.27063
1722.59	14.6387
1722.84	2.36914
1723.1	35.7987
1723.36	-26.9015
1723.62	-17.627
1723.87	-1.44434
1724.13	13.0042
1724.39	-9.59485
1724.64	6.71423
1724.9	-7.2981
1725.16	10.5193
1725.42	4.78271
1725.67	37.9132
1725.93	10.8699
1726.19	17.0663
1726.45	14.7903
1726.7	-2.59753
1726.96	55.3021
1727.22	21.9591
1727.47	38.5798
1727.73	-0.305542
1727.99	8.80322
1728.24	10.5223
1728.5	18.808
1728.76	58.6119
1729.02	1.51953
1729.27	-30.6324
1729.53	6.74805
1729.79	-11.4905
1730.05	9.74622
1730.3	-0.179321
1730.56	8.15955
1730.82	2.69165
1731.07	31.3691
1731.33	7.49878
1731.59	38.4744
1731.84	-11.8292
1732.1	47.9574
1732.36	11.9939
1732.61	-11.4821
1732.87	8.50354
1733.13	3.28198
1733.39	34.6388
1733.64	-1.79407
1733.9	37.8593
1734.16	10.8669
1734.41	10.1674
1734.67	66.334
1734.93	31.8451
1735.18	1.22498
1735.44	17.8369
1735.7	-6.89221
1735.95	8.00879
1736.21	27.8306
1736.47	20.8203
1736.72	17.6425
1736.98	21.1384
1737.24	22.704
1737.49	7.89551
1737.75	31.5872
1738.01	9.12695
1738.26	-1.88696
1738.52	-18.7366
1738.78	2.86853
1739.03	21.5853
1739.29	11.4095
1739.55	41.4775
1739.8	11.8237
1740.06	-6.4436
1740.32	-17.9296
1740.57	44.5214
1740.83	-1.25696
1741.09	9.66992
1741.34	8.18066
1741.6	31.6013
1741.86	2.37524
1742.11	23.0302
1742.37	4.54749
1742.63	-10.0094
1742.88	19.4321
1743.14	6.69922
1743.4	22.7677
1743.65	0.623291
1743.91	-18.7947
1744.16	-3.96765
1744.42	18.5687
1744.68	20.105
1744.93	9.36328
1745.19	2.59009
1745.45	25.5068
1745.7	40.7389
1745.96	21.4288
1746.22	14.406
1746.47	24.4426
1746.73	17.1503
1746.98	25.0688
1747.24	11.1461
1747.5	13.3616
1747.75	51.0189
1748.01	6.54895
1748.27	-3.30042
1748.52	-17.7351
1748.78	-22.5522
1749.03	29.9633
1749.29	6.16687
1749.55	34.976
1749.8	57.2058
1750.06	12.6559
1750.32	20.6943
1750.57	13.4606
1750.83	23.3867
1751.08	31.1329
1751.34	15.0519
1751.6	25.5594
1751.85	9.93689
1752.11	0.688721
1752.36	-9.54553
1752.62	50.0974
1752.88	-6.74963
1753.13	1.32239
1753.39	-1.10461
1753.64	43.301
1753.9	29.5258
1754.15	-7.11951
1754.41	0.954102
1754.67	10.9325
1754.92	16.2775
1755.18	20.6946
1755.43	-14.8693
1755.69	27.7009
1755.95	-1.29175
1756.2	27.7502
1756.46	1.46826
1756.71	-5.80029
1756.97	-7.46631
1757.23	-7.21973
1757.48	10.2114
1757.74	7.04919
1757.99	50.4906
1758.25	31.5382
1758.5	-4.06396
1758.76	13.1948
1759.02	8.42725
1759.27	-36.3285
1759.53	-14.4713
1759.78	1.75208
1760.04	-2.14355
1760.3	28.0968
1760.55	-31.1257
1760.81	13.3438
1761.06	26.3687
1761.32	26.9353
1761.57	4.59717
1761.83	-21.4905
1762.08	-19.8906
1762.34	32.1844
1762.6	-2.172
1762.85	-18.993
1763.11	33.4734
1763.36	26.8082
1763.62	-4.70862
1763.87	24.7797
1764.13	26.7789
1764.38	36.454
1764.64	25.4146
1764.89	-2.41553
1765.15	-6.90454
1765.4	-0.974609
1765.66	17.2535
1765.92	45.9045
1766.17	23.0819
1766.43	35.4152
1766.68	32.4431
1766.94	40.7997
1767.19	51.077
1767.45	-22.2981
1767.7	38.4054
1767.96	22.8452
1768.21	16.7782
1768.47	15.5436
1768.73	8.66028
1768.98	57.9326
1769.24	15.1893
1769.49	41.5736
1769.75	10.0636
1770	20.7126
1770.26	5.53442
1770.51	35.4133
1770.77	7.38525
1771.02	-16.3719
1771.28	21.7363
1771.53	5.13623
1771.79	9.63037
1772.04	32.6709
1772.3	38.4489
1772.55	26.3849
1772.81	12.4945
1773.06	2.30383
1773.32	23.4473
1773.57	-34.4065
1773.83	40.9547
1774.08	79.1875
1774.34	27.9103
1774.59	-4.37915
1774.85	7.10388
1775.1	38.776
1775.36	48.4253
1775.61	4.94397
1775.87	14.4088
1776.12	50.1714
1776.38	47.5443
1776.63	41.8654
1776.89	15.993
1777.14	26.1837
1777.4	22.9333
1777.65	37.9226
1777.91	-1.54688
1778.16	-2.89697
1778.42	0.502197
1778.67	8.67285
1778.93	-13.6943
1779.18	26.666
1779.44	-21.5178
1779.69	3.8053
1779.95	31.3284
1780.2	26.1775
1780.46	11.0656
1780.71	34.0251
1780.97	25.6091
1781.22	21.0253
1781.47	14.374
1781.73	-29.363
1781.98	13.6329
1782.24	5.31531
1782.49	5.61438
1782.75	36.5509
1783	1.58374
1783.26	10.3718
1783.51	31.5355
1783.77	-17.7886
1784.02	32.0188
1784.28	16.084
1784.53	19.2874
1784.79	49.3557
1785.04	39.16
1785.29	-1.72009
1785.55	31.6473
1785.8	0.9823
1786.06	-8.79456
1786.31	-23.345
1786.57	50.1129
1786.82	24.5092
1787.08	-1.89844
1787.33	11.8733
1787.58	6.68652
1787.84	-0.206421
1788.09	27.7487
1788.35	33.8328
1788.6	10.2483
1788.86	21.625
1789.11	-16.3389
1789.37	24.3365
1789.62	-9.3988
1789.87	30.3826
1790.13	23.921
1790.38	37.5869
1790.64	25.3783
1790.89	34.9661
1791.15	1.2981
1791.4	26.6975
1791.65	-3.31714
1791.91	-11.1738
1792.16	0.100586
1792.42	10.6421
1792.67	7.83716
1792.93	-23.6775
1793.18	-32.0563
1793.43	15.0381
1793.69	-23.2468
1793.94	19.8694
1794.2	-7.66223
1794.45	1.02588
1794.7	29.7189
1794.96	8.3103
1795.21	-0.709473
1795.47	-26.9578
1795.72	42.1963
1795.97	7.21118
1796.23	27.6849
1796.48	30.9287
1796.74	33.2296
1796.99	4.80908
1797.25	-25.5352
1797.5	21.9187
1797.75	20.3168
1798.01	17.6946
1798.26	-16.6962
1798.51	27.7095
1798.77	7.63025
1799.02	24.9446
1799.28	29.6265
1799.53	37.0828
1799.78	13.6775
1800.04	4.61523
1800.29	13.8438
1800.55	29.8722
1800.8	-4.96558
1801.05	9.25171
1801.31	-3.36792
1801.56	-3.44263
1801.81	-15.9382
1802.07	19.6655
1802.32	5.38757
1802.58	-8.83289
1802.83	-15.2991
1803.08	17.7068
1803.34	10.4187
1803.59	35.851
1803.84	-19.5641
1804.1	4.65796
1804.35	-26.0126
1804.61	-4.59827
1804.86	21.7542
1805.11	-25.981
1805.37	21.6243
1805.62	5.76831
1805.87	-10.1062
1806.13	25.001
1806.38	17.658
1806.64	36.2877
1806.89	33.676
1807.14	5.90674
1807.4	-31.6127
1807.65	44.5452
1807.9	0.21521
1808.16	-5.54492
1808.41	21.478
1808.66	-1.60535
1808.92	1.34814
1809.17	-7.25317
1809.42	1.50195
1809.68	-10.9598
1809.93	11.3014
1810.18	27.7778
1810.44	3.74524
1810.69	18.2302
1810.94	-16.5782
1811.2	9.35217
1811.45	-9.95813
1811.7	-46.6349
1811.96	0.578003
1812.21	16.9927
1812.46	19.0232
1812.72	13.464
1812.97	-15.1749
1813.22	-28.3154
1813.48	-39.5977
1813.73	-16.3196
1813.98	7.12781
1814.24	23.9945
1814.49	22.6207
1814.74	8.71765
1815	31.6152
1815.25	29.1229
1815.5	18.8236
1815.76	-5.1571
1816.01	18.1521
1816.26	33.7195
1816.52	9.67078
1816.77	28.1832
1817.02	-15.163
1817.27	-28.8069
1817.53	19.2383
1817.78	-7.79565
1818.03	-26.8162
1818.29	-29.6078
1818.54	-27.3083
1818.79	6.09705
1819.05	9.32764
1819.3	-41.9851
1819.55	21.9561
1819.8	26.0787
1820.06	-51.0009
1820.31	13.9646
1820.56	-16.7246
1820.82	-5.80225
1821.07	18.6108
1821.32	5.27441
1821.58	-1.20679
1821.83	-26.9938
1822.08	21.693
1822.33	-11.9271
1822.59	-10.7595
1822.84	1.00769
1823.09	24.3685
1823.34	-26.8239
1823.6	-4.58289
1823.85	23.33
1824.1	-14.6108
1824.36	-1.09949
1824.61	43.6038
1824.86	13.7952
1825.11	-6.34253
1825.37	0.652344
1825.62	30.9065
1825.87	-27.0308
1826.12	9.82654
1826.38	4.02283
1826.63	5.04773
1826.88	-19.0907
1827.14	4.21997
1827.39	11.147
1827.64	41.3893
1827.89	-18.4274
1828.15	19.578
1828.4	16.703
1828.65	-6.61426
1828.9	-1.94922
1829.16	9.40564
1829.41	-14.9796
1829.66	22.7357
1829.91	6.21155
1830.17	-1.6333
1830.42	-30.9001
1830.67	29.8915
1830.92	4.5238
1831.18	18.106
1831.43	-1.97693
1831.68	10.9081
1831.93	5.40137
1832.19	-19.5031
1832.44	25.3396
1832.69	-1.47681
1832.94	39.658
1833.2	16.715
1833.45	34.2269
1833.7	3.28064
1833.95	-14.9247
1834.2	41.423
1834.46	0.868408
1834.71	-17.0758
1834.96	9.01709
1835.21	-6.48621
1835.47	-36.4269
1835.72	8.48413
1835.97	-46.2126
1836.22	38.9059
1836.48	15.2467
1836.73	-10.4413
1836.98	-8.72681
1837.23	-14.3184
1837.48	5.10535
1837.74	19.1877
1837.99	-10.1245
1838.24	-5.37244
1838.49	-48.1282
1838.74	9.61951
1839	0.47876
1839.25	2.94727
1839.5	-21.4585
1839.75	4.04993
1840	25.6766
1840.26	28.1563
1840.51	1.1228
1840.76	-15.7439
1841.01	-14.9722
1841.27	-14.9894
1841.52	16.9478
1841.77	-13.8719
1842.02	-12.7202
1842.27	-11.4924
1842.53	25.4824
1842.78	-8.91956
1843.03	-13.3572
1843.28	-3.87878
1843.53	-28.6969
1843.78	-12.2961
1844.04	35.0049
1844.29	6.849
1844.54	10.7281
1844.79	-2.48962
1845.04	7.23291
1845.3	16.5763
1845.55	-8.38757
1845.8	31.2117
1846.05	14.7275
1846.3	3.10669
1846.55	22.2902
1846.81	21.8345
1847.06	11.074
1847.31	10.1238
1847.56	24.0698
1847.81	-8.33435
1848.07	25.4352
1848.32	-5.27539
1848.57	-11.0439
1848.82	-14.9261
1849.07	-3.87
1849.32	-7.61987
1849.57	-53.2217
1849.83	-13.328
1850.08	8.20959
1850.33	17.2684
1850.58	-16.1453
1850.83	8.29346
1851.09	-19.1016
1851.34	23.7385
1851.59	15.7079
1851.84	19.292
1852.09	0.879028
1852.34	14.2676
1852.59	17.1703
1852.84	17.217
1853.1	28.7755
1853.35	27.7982
1853.6	12.3477
1853.85	5.44617
1854.1	18.5308
1854.35	-1.18604
1854.6	27.9387
1854.86	-25.3463
1855.11	57.8068
1855.36	-15.3278
1855.61	17.6781
1855.86	-13.6062
1856.11	10.969
1856.36	-39.9355
1856.61	13.6429
1856.87	34.7609
1857.12	-32.2532
1857.37	13.6772
1857.62	-5.60986
1857.87	-10.5896
1858.12	1.65759
1858.37	-15.8431
1858.63	-36.2998
1858.88	14.9689
1859.13	16.4569
1859.38	-2.16455
1859.63	15.5349
1859.88	-17.2802
1860.13	-15.3682
1860.38	13.3712
1860.63	-14.1799
1860.89	-26.1835
1861.14	-8.57007
1861.39	17.605
1861.64	10.3844
1861.89	-3.59448
1862.14	0.392456
1862.39	-8.27319
1862.64	37.402
1862.9	11.1843
1863.15	-18.8927
1863.4	11.2793
1863.65	34.7622
1863.9	-3.85681
1864.15	37.847
1864.4	42.2993
1864.65	9.51367
1864.9	9.20435
1865.15	34.6167
1865.4	-2.12805
1865.66	14.499
1865.91	34.8622
1866.16	12.1986
1866.41	20.9359
1866.66	14.3997
1866.91	28.842
1867.16	-16.7031
1867.41	-18.4196
1867.66	-22.9242
1867.91	-6.33862
1868.16	-25.6492
1868.41	25.5201
1868.67	7.37341
1868.92	-22.0068
1869.17	-9.48499
1869.42	27.6328
1869.67	-18.9993
1869.92	16.1049
1870.17	2.73755
1870.42	-16.3181
1870.67	-20.1619
1870.92	23.5352
1871.17	36.8495
1871.42	39.728
1871.67	19.682
1871.92	-11.8464
1872.17	24.9219
1872.42	1.93738
1872.68	3.69592
1872.93	-24.156
1873.18	6.83057
1873.43	12.3112
1873.68	-25.6921
1873.93	-14.3993
1874.18	5.31165
1874.43	-17.7825
1874.68	0.808716
1874.93	13.6473
1875.18	10.3441
1875.43	17.4351
1875.68	-22.877
1875.93	0.158325
1876.18	-16.9902
1876.43	0.319702
1876.68	22.4766
1876.93	-40.3875
1877.18	17.0918
1877.43	8.57751
1877.68	-16.2024
1877.93	-5.20557
1878.18	34.2748
1878.44	-22.6749
1878.69	-25.3855
1878.93	-1.61023
1879.19	7.65894
1879.44	14.3783
1879.69	5.90662
1879.94	2.51807
1880.19	15.226
1880.44	-3.74426
1880.69	2.81531
1880.94	-10.8678
1881.19	-4.62231
1881.44	-17.9087
1881.69	-5.42078
1881.94	-14.859
1882.19	-5.39404
1882.44	-14.9045
1882.69	-1.82703
1882.94	10.0505
1883.19	0.110229
1883.44	23.223
1883.69	40.5864
1883.94	33.6624
1884.19	19.9117
1884.44	-33.5792
1884.69	-12.5293
1884.94	-7.86877
1885.19	12.7567
1885.44	-13.4827
1885.69	1.97046
1885.94	5.13208
1886.19	40.1835
1886.44	21.8528
1886.69	34.5223
1886.94	26.8336
1887.19	29.8271
1887.44	7.73596
1887.69	13
1887.94	-3.46008
1888.19	21.562
1888.44	-45.8802
1888.69	9.02612
1888.94	29.1226
1889.19	2.17712
1889.44	12.927
1889.69	21.1333
1889.94	26.7844
1890.19	-4.30017
1890.44	18.5566
1890.69	32.2789
1890.94	-41.576
1891.19	22.6868
1891.43	17.9784
1891.68	33.88
1891.94	-42.3638
1892.18	7.49438
1892.43	39.481
1892.68	10.2932
1892.93	-14.3993
1893.18	-10.0275
1893.43	21.3271
1893.68	17.4524
1893.93	-39.8585
1894.18	-20.2828
1894.43	-15.1802
1894.68	12.3636
1894.93	5.50439
1895.18	-36.8467
1895.43	-15.1021
1895.68	9.55591
1895.93	18.302
1896.18	10.1665
1896.43	2.9917
1896.68	3.40234
1896.93	37.7246
1897.18	5.24451
1897.42	15.9366
1897.68	14.3306
1897.92	22.0326
1898.17	-10.8169
1898.42	23.0061
1898.67	-7.24475
1898.92	37.6262
1899.17	9.98022
1899.42	-14.8896
1899.67	-19.884
1899.92	9.11755
1900.17	10.8217
1900.42	-2.50171
1900.67	-2.48596
1900.92	3.2998
1901.16	-14.26
1901.41	14.347
1901.66	-9.5802
1901.91	-8.16235
1902.16	45.9241
1902.41	7.93884
1902.66	-6.58997
1902.91	-14.9443
1903.16	-6.56165
1903.41	7.4259
1903.66	9.15259
1903.91	41.9738
1904.16	11.8398
1904.41	6.19238
1904.65	17.501
1904.9	40.0818
1905.15	-2.24512
1905.4	11.8639
1905.65	17.5641
1905.9	-41.6824
1906.15	21.7571
1906.4	-8.91199
1906.65	-18.4906
1906.9	6.7218
1907.14	-14.9918
1907.39	16.8821
1907.64	18.8724
1907.89	-28.8116
1908.14	-9.67737
1908.39	3.00269
1908.64	11.7188
1908.89	0.651733
1909.14	1.89417
1909.39	-10.8522
1909.63	17.8444
1909.88	15.6281
1910.13	3.15918
1910.38	7.67932
1910.63	53.6533
1910.88	31.7883
1911.13	-40.1674
1911.38	28.9904
1911.62	15.158
1911.87	21.9285
1912.12	28.6017
1912.37	3.12512
1912.62	-8.22034
1912.87	-16.6455
1913.12	4.16565
1913.37	18.3956
1913.61	26.0991
1913.86	-22.4816
1914.11	9.2804
1914.36	46.7754
1914.61	8.69324
1914.86	22.4102
1915.11	-0.633057
1915.36	12.123
1915.6	5.90466
1915.85	0.460083
1916.1	-12.7004
1916.35	-10.8798
1916.6	-1.45386
1916.85	25.717
1917.1	33.8739
1917.34	34.5576
1917.59	-42.9559
1917.84	19.1624
1918.09	33.2787
1918.34	2.32129
1918.59	6.47229
1918.83	23.993
1919.08	11.4301
1919.33	33.8386
1919.58	4.38684
1919.83	50.6508
1920.08	37.3083
1920.33	10.3966
1920.57	4.92017
1920.82	1.00977
1921.07	-0.643311
1921.32	6.58594
1921.57	8.16272
1921.81	16.1361
1922.06	13.683
1922.31	20.5862
1922.56	-16.1935
1922.81	44.2782
1923.06	16.6469
1923.31	10.7877
1923.55	9.75146
1923.8	-4.48596
1924.05	-30.0892
1924.3	56.681
1924.55	38.4636
1924.79	15.6437
1925.04	25.1161
1925.29	7.35095
1925.54	23.7803
1925.79	8.245
1926.04	4.23621
1926.28	-15.9081
1926.53	-3.94189
1926.78	9.01294
1927.03	-10.1261
1927.28	21.6333
1927.52	25.8344
1927.77	-20.1775
1928.02	15.2216
1928.27	16.5081
1928.52	-24.8501
1928.76	18.9762
1929.01	49.6678
1929.26	14.9778
1929.51	4.98169
1929.76	-8.68909
1930	-30.7239
1930.25	10.6741
1930.5	3.80176
1930.75	3.44568
1931	12.6344
1931.24	20.4915
1931.49	14.9586
1931.74	14.9141
1931.99	-23.209
1932.24	42.1268
1932.48	7.78552
1932.73	6.66931
1932.98	-38.1239
1933.23	-12.4871
1933.47	-22.1285
1933.72	-18.1014
1933.97	30.0242
1934.22	-7.80713
1934.46	-4.50208
1934.71	3.07397
1934.96	-15.0975
1935.21	-26.8528
1935.46	44.0291
1935.7	25.1177
1935.95	14.4607
1936.2	-2.00427
1936.45	33.1713
1936.69	-32.6049
1936.94	-3.20129
1937.19	-18.7421
1937.44	20.8923
1937.68	-7.98059
1937.93	3.14063
1938.18	-16.1484
1938.43	12.1117
1938.68	25.5319
1938.92	-23.1635
1939.17	10.5105
1939.42	7.12158
1939.67	41.8586
1939.91	-5.39539
1940.16	11.2427
1940.41	9.53479
1940.66	-17.5039
1940.9	5.01709
1941.15	-10.7229
1941.4	32.1403
1941.64	5.53308
1941.89	22.5659
1942.14	-8.55713
1942.39	30.4094
1942.63	7.41736
1942.88	-5.6991
1943.13	17.7997
1943.38	-9.69409
1943.62	36.3921
1943.87	-5.42639
1944.12	13.0817
1944.37	-4.62207
1944.61	16.9235
1944.86	19.3688
1945.11	22.8112
1945.35	-33.8885
1945.6	0.152466
1945.85	1.7135
1946.1	6.09277
1946.34	-24.9669
1946.59	13.6989
1946.84	-28.9976
1947.09	14.2791
1947.33	23.9196
1947.58	-34.4727
1947.83	6.56311
1948.07	6.6344
1948.32	-31.514
1948.57	-3.6814
1948.82	43.1298
1949.06	-29.3239
1949.31	3.66467
1949.56	-17.8148
1949.8	-6.75427
1950.05	-9.96228
1950.3	-6.45093
1950.54	13.6544
1950.79	-17.8857
1951.04	19.3552
1951.29	7.79004
1951.53	-11.4136
1951.78	7.69312
1952.03	12.2577
1952.27	31.0173
1952.52	-20.4119
1952.77	-29.5774
1953.01	-10.3229
1953.26	20.8959
1953.51	-3.45496
1953.76	5.72375
1954	18.5355
1954.25	-5.65784
1954.49	25.9672
1954.74	19.2777
1954.99	24.2354
1955.24	2.0365
1955.48	-12.28
1955.73	-33.9587
1955.98	-17.9753
1956.22	6.96533
1956.47	-11.6577
1956.72	-28.2517
1956.96	-8.29578
1957.21	-9.7489
1957.46	4.28528
1957.7	2.90527
1957.95	10.1326
1958.2	1.8938
1958.44	-15.0773
1958.69	8.255
1958.94	2.71692
1959.18	31.5143
1959.43	15.8743
1959.68	3.30957
1959.92	8.16272
1960.17	4.14038
1960.42	-21.0233
1960.66	26.8252
1960.91	13.1675
1961.16	-13.0042
1961.4	16.5297
1961.65	23.0665
1961.9	15.3124
1962.14	16.4634
1962.39	-13.0475
1962.63	-23.4033
1962.88	10.4033
1963.13	8.69421
1963.37	-3.57837
1963.62	-3.38171
1963.87	-30.0625
1964.11	4.72192
1964.36	13.7362
1964.61	-4.16455
1964.85	7.45215
1965.1	11.2642
1965.35	-12.5729
1965.59	10.5249
1965.84	3.01355
1966.08	9.1012
1966.33	8.65259
1966.58	19.7932
1966.82	-10.3821
1967.07	-6.10327
1967.32	-13.4117
1967.56	-0.848511
1967.81	-8.39233
1968.05	23.6326
1968.3	22.879
1968.55	-21.1263
1968.79	17.4189
1969.04	2.9447
1969.29	0.804199
1969.53	15.8198
1969.78	13.399
1970.02	11.9359
1970.27	5.7926
1970.52	25.667
1970.76	18.7955
1971.01	-28.4401
1971.25	-0.782104
1971.5	-13.3486
1971.75	38.3867
1971.99	28.7693
1972.24	28.0857
1972.48	-5.16553
1972.73	-3.9729
1972.98	-2.9043
1973.22	31.5884
1973.47	9.32544
1973.71	-25.5023
1973.96	3.03149
1974.21	-1.89282
1974.45	8.61316
1974.7	3.87537
1974.94	-5.56982
1975.19	-8.24255
1975.44	28.4799
1975.68	-16.1921
1975.93	14.9247
1976.17	11.4857
1976.42	2.23083
1976.66	-22.4462
1976.91	-10.7323
1977.16	43.1292
1977.4	-5.7196
1977.65	-23.9431
1977.89	12.4146
1978.14	37.1707
1978.39	8.21375
1978.63	27.2493
1978.88	-32.2642
1979.12	16.6294
1979.37	29.218
1979.61	-7.96802
1979.86	32.4352
1980.1	0.0579834
1980.35	0.224487
1980.6	0.168213
1980.84	19.1176
1981.09	-8.86963
1981.33	12.1725
1981.58	14.8988
1981.82	-24.4565
1982.07	22.476
1982.31	-8.11023
1982.56	12.0604
1982.81	21.4585
1983.05	-1.71899
1983.3	-18.3167
1983.54	18.5652
1983.79	20.1792
1984.03	15.3375
1984.28	-14.3251
1984.52	30.5731
1984.77	-6.79626
1985.02	19.947
1985.26	-24.2335
1985.51	-16.9553
1985.75	-6.55054
1986	26.0891
1986.24	2.45276
1986.49	24.8464
1986.73	17.6663
1986.98	41.8754
1987.22	2.73181
1987.47	33.6133
1987.71	-26.8267
1987.96	16.7129
1988.21	-13.4314
1988.45	27.9988
1988.7	17.7123
1988.94	-17.6925
1989.19	29.0063
1989.43	-1.18494
1989.68	-20.3213
1989.92	2.19446
1990.17	8.24951
1990.41	5.56006
1990.66	-10.6
1990.9	8.99048
1991.15	23.5111
1991.39	-13.3951
1991.64	18.9451
1991.88	22.9257
1992.13	-14.0537
1992.37	18.0292
1992.62	8.06067
1992.86	16.3933
1993.11	29.5635
1993.35	2.52063
1993.6	0.705322
1993.84	35.4583
1994.09	-12.1632
1994.33	52.1748
1994.58	12.7125
1994.82	1.95422
1995.07	14.5355
1995.31	12.3344
1995.56	33.7693
1995.8	-11.0526
1996.05	28.6896
1996.29	-16.2664
1996.54	-4.87183
1996.78	18.566
1997.03	-16.4155
1997.27	19.4078
1997.52	-6.07324
1997.76	24.5055
1998.01	14.8522
1998.25	29.1746
1998.5	25.8783
1998.74	12.1152
1998.99	10.3782
1999.23	1.46863
1999.48	11.5219
1999.72	9.99255
1999.97	-1.94385
2000.21	0.473145
2000.46	-0.578003
2000.7	15.3561
2000.95	22.4034
2001.19	20.5204
2001.43	34.0483
2001.68	24.241
2001.92	24.3208
2002.17	25.8004
2002.41	17.3948
2002.66	9.84143
2002.9	14.3185
2003.15	-2.22668
2003.39	22.1002
2003.64	21.7778
2003.88	26.5006
2004.13	30.2861
2004.37	22.5156
2004.61	10.6355
2004.86	11.8154
2005.1	33.2856
2005.35	19.4198
2005.59	15.3672
2005.84	34.774
2006.08	9.94421
2006.33	8.91968
2006.57	26.9279
2006.81	6.29431
2007.06	13.8784
2007.3	24.4437
2007.55	39.1633
2007.79	30.0908
2008.04	30.11
2008.28	22.2101
2008.53	35.1425
2008.77	7.99915
2009.01	13.5344
2009.26	28.8093
2009.5	22.5151
2009.75	16.3723
2009.99	8.36829
2010.24	47.8508
2010.48	32.0847
2010.73	45.1959
2010.97	26.1415
2011.21	38.4858
2011.46	29.619
2011.7	42.1262
2011.95	31.1738
2012.19	24.0878
2012.43	24.1105
2012.68	47.6226
2012.92	27.8362
2013.17	30.3827
2013.42	9.11865
2013.67	30.8406
2013.91	45.4447
2014.16	-1.2157
2014.41	14.0243
2014.66	30.0149
2014.9	0.12146
2015.15	-5.62769
2015.4	21.8151
2015.64	35.3656
2015.89	18.9539
2016.14	34.3541
2016.39	-40.8285
2016.63	-9.21008
2016.88	29.9681
2017.13	-6.2572
2017.37	21.9587
2017.62	24.6133
2017.87	38.3776
2018.11	5.96753
2018.36	41.9585
2018.61	-24.4257
2018.86	21.9048
2019.1	1.62268
2019.35	-16.8348
2019.6	16.3258
2019.84	20.7671
2020.09	-13.0962
2020.34	1.87927
2020.58	27.2643
2020.83	25.4365
2021.08	28.3074
2021.33	14.5125
2021.57	28.8279
2021.82	31.7886
2022.07	2.80017
2022.31	57.0771
2022.56	61.6133
2022.81	0.514038
2023.05	17.9583
2023.3	10.9882
2023.55	29.4164
2023.8	-19.52
2024.04	11.0533
2024.29	6.08813
2024.54	2.10742
2024.78	4.40662
2025.03	30.9548
2025.27	-9.72266
2025.52	43.009
2025.77	28.5574
2026.02	13.2285
2026.26	4.28113
2026.51	17.6758
2026.76	23.2236
2027	33.0332
2027.25	26.2933
2027.5	44.9843
2027.74	20.0009
2027.99	16.1366
2028.23	-22.3774
2028.48	18.941
2028.73	33.2349
2028.98	-9.86475
2029.22	26.5148
2029.47	-4.46301
2029.72	36.8438
2029.96	-16.9913
2030.21	12.7749
2030.45	19.0623
2030.7	49.8779
2030.95	6.43555
2031.19	-5.97412
2031.44	35.4606
2031.69	-2.95349
2031.93	-29.8539
2032.18	-34.3174
2032.43	8.39075
2032.67	22.257
2032.92	26.8685
2033.17	-12.5032
2033.41	22.7252
2033.66	3.65112
2033.91	18.4053
2034.15	22.5757
2034.4	-9.15881
2034.64	24.2277
2034.89	19.5449
2035.14	8.91394
2035.38	15.499
2035.63	-22.8868
2035.87	17.5952
2036.12	-6.99255
2036.37	25.0228
2036.61	35.3712
2036.86	24.1952
2037.11	48.7059
2037.35	2.58533
2037.6	24.22
2037.84	35.4884
2038.09	16.7418
2038.34	9.16467
2038.58	29.5931
2038.83	-43.465
2039.08	48.8771
2039.32	22.5436
2039.57	13.0072
2039.81	25.8915
2040.06	34.933
2040.31	-15.891
2040.55	7.0498
2040.8	15.0826
2041.04	-7.63098
2041.29	12.6252
2041.54	22.6841
2041.78	-3.43225
2042.03	16.1702
2042.27	3.93115
2042.52	-12
2042.77	15.6919
2043.01	-7.60901
2043.26	35.3877
2043.5	36.6451
2043.75	19.6254
2044	-26.054
2044.24	23.4055
2044.49	18.2611
2044.73	29.5094
2044.98	-5.32837
2045.23	-12.5879
2045.47	7.25171
2045.72	-19.1005
2045.96	-24.8816
2046.21	12.5875
2046.45	17.8237
2046.7	20.963
2046.95	0.521362
2047.19	40.2974
2047.44	27.4623
2047.68	17.6931
2047.93	19.0609
2048.17	22.5197
2048.42	34.8739
2048.67	35.1216
2048.91	7.4353
2049.16	33.8978
2049.4	-3.67407
2049.65	-9.63672
2049.89	32.1333
2050.14	18.0764
2050.39	-33.5267
2050.63	5.46716
2050.88	5.93079
2051.12	4.31531
2051.37	-4.06445
2051.61	5.96509
2051.86	26.0839
2052.11	-26.0718
2052.35	3.06714
2052.6	10.0581
2052.84	3.7594
2053.09	21.8944
2053.33	14.8933
2053.58	26.6525
2053.82	34.7936
2054.07	5.96887
2054.31	-15.0197
2054.56	57.421
2054.8	-18.1295
2055.05	22.2047
2055.3	14.7723
2055.54	-45.074
2055.79	-2.36072
2056.03	25.6215
2056.28	7.91626
2056.52	-37.9248
2056.77	-4.32666
2057.01	-10.8414
2057.26	-19.1125
2057.5	13.8518
2057.75	15.0957
2058	-0.397949
2058.24	-24.2578
2058.49	-1.36169
2058.73	31.083
2058.98	-0.124268
2059.22	-10.7914
2059.47	18.6843
2059.71	6.79382
2059.96	33.2719
2060.2	20.3643
2060.45	-23.7241
2060.69	22.9385
2060.94	8.84387
2061.18	9.23547
2061.43	-3.42908
2061.67	-3.07373
2061.92	42.1101
2062.16	-11.0583
2062.41	-16.4486
2062.65	8.19299
2062.9	10.4323
2063.14	0.56604
2063.39	7.63379
2063.63	22.1742
2063.88	1.98071
2064.12	26.7236
2064.37	25.1752
2064.61	25.4944
2064.86	31.5084
2065.1	14.1433
2065.35	22.264
2065.59	23.0217
2065.84	15.2828
2066.08	33.7543
2066.33	-2.3103
2066.57	2.81445
2066.82	-10.0894
2067.06	28.7828
2067.31	22.593
2067.55	-2.43823
2067.8	31.8013
2068.04	-8.1167
2068.29	-2.98779
2068.53	-7.32007
2068.78	14.575
2069.02	20.671
2069.27	51.879
2069.51	-30.0271
2069.76	-13.5011
2070	7.42139
2070.25	33.5459
2070.49	-14.9471
2070.73	-15.8591
2070.98	21.941
2071.22	-11.6819
2071.47	33.484
2071.71	0.146973
2071.96	-35.1189
2072.2	17.6158
2072.45	-33.2145
2072.69	4.46997
2072.94	27.168
2073.18	6.44543
2073.43	28.2568
2073.67	44.316
2073.92	24.7942
2074.16	19.3723
2074.4	36.5979
2074.65	-9.16272
2074.89	18.6783
2075.14	10.8818
2075.38	25.8584
2075.63	36.3254
2075.87	-13.4106
2076.12	11.0421
2076.36	18.1747
2076.6	27.8252
2076.85	12.9707
2077.09	-8.79041
2077.34	-1.47571
2077.58	-1.75562
2077.83	23.9193
2078.07	8.76978
2078.31	38.4038
2078.56	19.1853
2078.8	-10.6667
2079.05	57.6012
2079.29	25.025
2079.54	2.05872
2079.78	29.5759
2080.03	-12.3677
2080.27	29.6984
2080.51	-8.56091
2080.76	33.4347
2081	-4.17395
2081.25	-16.4919
2081.49	13.7711
2081.74	11.0426
2081.98	29.1362
2082.22	11.276
2082.47	-13.9193
2082.71	25.1339
2082.96	42.4205
2083.2	21.8353
2083.45	11.5717
2083.69	26.7747
2083.93	54.2633
2084.18	10.9648
2084.42	-1.12878
2084.67	-4.76587
2084.91	0.154419
2085.15	69.3665
2085.4	4.34326
2085.64	11.1169
2085.89	-2.88428
2086.13	-7.30835
2086.37	-0.0300293
2086.62	8.32043
2086.86	24.0708
2087.11	13.0806
2087.35	-13.0056
2087.59	28.1689
2087.84	-15.9531
2088.08	-10.0935
2088.32	13.7643
2088.57	-1.1593
2088.81	-35.9248
2089.06	17.348
2089.3	27.0742
2089.54	7.6665
2089.79	0.587524
2090.03	-7.25562
2090.28	-10.6963
2090.52	18.9364
2090.76	16.4025
2091.01	-1.25098
2091.25	12.3965
2091.5	27.9438
2091.74	-19.0701
2091.98	-13.6688
2092.23	37.321
2092.47	-8.3634
2092.72	11.4049
2092.96	15.0962
2093.2	42.3763
2093.45	38.2899
2093.69	-19.9406
2093.93	55.7684
2094.18	36.3887
2094.42	-5.85388
2094.66	21.0498
2094.91	-7.3075
2095.15	18.4382
2095.39	10.8612
2095.64	-20.6614
2095.88	35.2245
2096.13	8.50977
2096.37	17.0067
2096.61	-17.1687
2096.86	12.3784
2097.1	23.8679
2097.34	7.62683
2097.59	3.61316
2097.83	26.1833
2098.07	43.2782
2098.32	26.2543
2098.56	-36.3234
2098.8	23.3683
2099.05	24.49
2099.29	-0.0664063
2099.53	2.83618
2099.78	25.6963
2100.02	39.1171
2100.27	32.6625
2100.51	13.9136
2100.75	48.3577
2101	36.3864
2101.24	-2.83789
2101.48	38.5419
2101.73	13.3156
2101.97	6.00989
2102.21	20.4288
2102.45	26.251
2102.7	30.2332
2102.94	50.2338
2103.18	34.8928
2103.43	16.6238
2103.67	-14.7483
2103.92	7.20325
2104.16	1.56934
2104.4	11.2697
2104.64	48.6299
2104.89	5.42957
2105.13	3.04102
2105.37	-6.01465
2105.62	30.5923
2105.86	37.8555
2106.1	25.0983
2106.35	39.7433
2106.59	0.190552
2106.83	5.21692
2107.08	16.882
2107.32	4.87427
2107.56	12.7179
2107.8	19.3328
2108.05	46.699
2108.29	15.0074
2108.53	34.5979
2108.78	-7.54578
2109.02	-7.77612
2109.26	17.8761
2109.51	20.0311
2109.75	41.5956
2109.99	-0.57959
2110.23	10.0649
2110.48	15.9449
2110.72	23.7151
2110.96	15.3348
2111.21	-7.2865
2111.45	12.8185
2111.69	10.9611
2111.93	44.1135
2112.18	29.8414
2112.42	35.5977
2112.66	14.8701
2112.91	34.2299
2113.15	13.7103
2113.39	15.0642
2113.63	3.36206
2113.88	-4.62341
2114.12	33.7571
2114.36	11.9575
2114.61	1.50818
2114.85	81.4727
2115.09	10.4614
2115.33	22.0881
2115.58	-4.45105
2115.82	-41.5009
2116.06	26.9441
2116.31	28.8573
2116.55	-2.70593
2116.79	10.4006
2117.03	0.901855
2117.28	59.8561
2117.52	0.126587
2117.76	36.4675
2118	25.0514
2118.25	23.0254
2118.49	18.1353
2118.73	-4.02295
2118.97	36.3861
2119.22	10.5106
2119.46	-3.94226
2119.7	25.2245
2119.94	6.99438
2120.19	-0.761841
2120.43	15.2476
2120.67	17.2183
2120.91	16.5046
2121.16	17.0007
2121.4	9.77686
2121.64	35.9808
2121.88	15.7742
2122.13	-22.5088
2122.37	-13.4006
2122.61	-0.534912
2122.85	10.375
2123.1	52.5748
2123.34	26.4012
2123.58	-5.53748
2123.82	45.0347
2124.07	23.2256
2124.31	14.646
2124.55	15.4475
2124.79	-7.6416
2125.03	-6.31677
2125.28	19.4996
2125.52	25.4613
2125.76	-8.17322
2126	24.5686
2126.25	17.559
2126.49	34.2731
2126.73	-10.4286
2126.97	30.9771
2127.21	36.4139
2127.46	-11.0906
2127.7	37.1434
2127.94	-4.3772
2128.18	-4.31165
2128.43	27.8071
2128.67	17.4669
2128.91	19.5454
2129.15	20.6813
2129.39	4.71533
2129.64	0.962402
2129.88	-13.1628
2130.12	6.77979
2130.36	32.3831
2130.6	5.04431
2130.85	14.5287
2131.09	-18.545
2131.33	2.18921
2131.57	12.4811
2131.81	37.8615
2132.06	16.9957
2132.3	-7.55786
2132.54	-6.64771
2132.78	1.65857
2133.02	17.5323
2133.27	-0.39856
2133.51	51.6555
2133.75	-10.3616
2133.99	21.9797
2134.23	1.42053
2134.48	23.3943
2134.72	4.76184
2134.96	50.1953
2135.2	8.79773
2135.44	34.4055
2135.68	4.29468
2135.93	15.611
2136.17	26.7856
2136.41	-3.79602
2136.65	28.8192
2136.89	25.8918
2137.14	-1.17981
2137.38	-5.63086
2137.62	23.8173
2137.86	7.23816
2138.1	38.9558
2138.34	43.7073
2138.59	-19.8258
2138.83	28.9755
2139.07	-8.19714
2139.31	47.2924
2139.55	18.6888
2139.79	9.43726
2140.03	42.829
2140.28	-40.2427
2140.52	19.958
2140.76	-30.9688
2141	32.1235
2141.24	2.01831
2141.49	-11.1316
2141.73	12.6257
2141.97	18.0758
2142.21	-9.46606
2142.45	-20.7396
2142.69	39.691
2142.93	-5.87939
2143.18	14.376
2143.42	8.57947
2143.66	44.7534
2143.9	20.3707
2144.14	5.51282
2144.38	1.35522
2144.62	12.5475
2144.87	-1.66101
2145.11	-9.56299
2145.35	0.827026
2145.59	3.99341
2145.83	4.26672
2146.07	-22.9177
2146.31	-15.3644
2146.55	42.0071
2146.8	34.5183
2147.04	14.8137
2147.28	-19.9619
2147.52	19.4312
2147.76	9.96729
2148	11.7993
2148.24	21.1838
2148.48	6.12231
2148.73	25.8113
2148.97	16.3608
2149.21	-4.39819
2149.45	5.73108
2149.69	12.9788
2149.93	-0.756958
2150.17	-33.8254
2150.42	7.11243
2150.66	-11.8287
2150.9	-8.08118
2151.14	-1.36719
2151.38	-4.76746
2151.62	-2.38684
2151.86	-20.7572
2152.1	27.5509
2152.34	22.245
2152.58	10.5138
2152.83	12.2972
2153.07	15.9723
2153.31	13.9392
2153.55	22.2507
2153.79	16.6566
2154.03	10.1125
2154.27	23.1042
2154.51	-12.7706
2154.75	10.1957
2154.99	25.4979
2155.24	1.53748
2155.48	-25.3062
2155.72	-1.3949
2155.96	22.5386
2156.2	-9.52734
2156.44	-16.2317
2156.68	-26.5111
2156.92	6.29456
2157.16	-18.7826
2157.4	16.9164
2157.64	0.432373
2157.89	27.0487
2158.13	-3.24646
2158.37	3.79199
2158.61	1.26233
2158.85	-6.03491
2159.09	-21.8145
2159.33	4.38586
2159.57	-11.5435
2159.81	-2.31042
2160.05	30.2009
2160.29	-27.0431
2160.53	1.63147
2160.77	-24.7266
2161.01	60.9677
2161.25	46.9506
2161.5	44.2424
2161.74	7.8689
2161.98	-8.90955
2162.22	30.3998
2162.46	12.8629
2162.7	-7.45862
2162.94	30.0209
2163.18	19.7886
2163.42	10.406
2163.66	-18.5166
2163.9	1.07166
2164.14	17.8464
2164.38	-3.62512
2164.62	25.0637
2164.86	-18.1034
2165.11	-17.2758
2165.35	12.8097
2165.59	-6.37415
2165.83	23.666
2166.07	-8.72339
2166.31	0.811523
2166.55	-0.141968
2166.79	-8.53235
2167.03	-9.54504
2167.27	-3.19995
2167.51	4.17029
2167.75	20.6908
2167.99	15.6708
2168.23	-12.025
2168.47	-8.93262
2168.71	10.4973
2168.95	-6.08191
2169.19	17.4664
2169.43	19.7766
2169.67	-44.7423
2169.91	8.99707
2170.15	-22.7283
2170.39	-2.26233
2170.63	1.14978
2170.87	-7.79871
2171.11	-6.79614
2171.35	20.9701
2171.59	-6.92957
2171.83	-7.47754
2172.07	8.15918
2172.31	3.94788
2172.56	-31.5244
2172.79	-13.0573
2173.04	43.5684
2173.28	-2.73987
2173.51	23.4452
2173.76	10.6136
2174	32.3196
2174.24	-4.40491
2174.48	-14.2529
2174.72	-5.60278
2174.96	-16.5288
2175.2	26.4109
2175.44	20.0736
2175.68	9.00024
2175.92	-2.06909
2176.16	-2.86023
2176.4	-8.33081
2176.64	1.93787
2176.88	3.70679
2177.12	3.79053
2177.36	-32.2295
2177.6	-26.4043
2177.84	-2.01575
2178.08	0.936157
2178.32	-15.5123
2178.55	-18.2719
2178.8	-14.8483
2179.03	-1.08716
2179.28	13.9236
2179.52	6.78223
2179.75	-4.12659
2180	-19.6863
2180.23	12.0801
2180.47	3.91431
2180.71	14.2788
2180.95	-23.7013
2181.19	27.4457
2181.43	18.3156
2181.67	5.40759
2181.91	5.39075
2182.15	-8.53577
2182.39	26.8358
2182.63	11.9508
2182.87	14.7616
2183.11	-21.3883
2183.35	52.665
2183.59	-8.76306
2183.83	-30.4167
2184.07	-30.5968
2184.31	44.3854
2184.55	4.47339
2184.79	7.3739
2185.03	5.78967
2185.27	-15.1334
2185.51	42.6711
2185.75	9.6604
2185.99	-14.0006
2186.23	-7.92151
2186.47	-2.74341
2186.7	11.7024
2186.95	32.8527
2187.18	15.9963
2187.42	13.9722
2187.66	0.795288
2187.9	26.4822
2188.14	7.29077
2188.38	-1.98486
2188.62	3.47839
2188.86	3.32825
2189.1	-4.28638
2189.34	17.7511
2189.58	8.17334
2189.82	-5.21045
2190.06	8.39722
2190.3	12.9973
2190.54	-21.1663
2190.78	6.89441
2191.01	28.5874
2191.25	-9.98621
2191.49	23.6044
2191.73	-0.182617
2191.97	8.52917
2192.21	-1.29224
2192.45	-12.0457
2192.69	14.2877
2192.93	24.8735
2193.17	16.1207
2193.41	7.37793
2193.65	-6.95374
2193.89	30.8053
2194.13	0.243896
2194.36	23.6495
2194.6	-0.62439
2194.84	16.6514
2195.08	-14.8438
2195.32	-10.1971
2195.56	25.1497
2195.8	-7.45251
2196.04	18.3811
2196.28	-2.36548
2196.52	16.7078
2196.76	-5.02234
2197	13.2997
2197.23	5.7373
2197.47	39.0377
2197.71	13.0034
2197.95	-0.683594
2198.19	10.7159
2198.43	-7.42114
2198.67	-2.12793
2198.91	-10.728
2199.15	34.597
2199.38	3.88354
2199.62	16.7152
2199.86	19.4061
2200.1	24.8854
2200.34	7.39758
2200.58	15.1162
2200.82	23.646
2201.06	24.6223
2201.3	37.5046
2201.54	54.0299
2201.77	6.88708
2202.01	24.7651
2202.25	8.04395
2202.49	13.0428
2202.73	30.2114
2202.97	27.156
2203.21	10.23
2203.45	8.99829
2203.68	-11.6221
2203.92	11.5859
2204.16	7.47375
2204.4	34.34
2204.64	19.4955
2204.88	-5.15112
2205.12	38.5557
2205.36	30.5918
2205.59	65.6217
2205.83	19.2223
2206.07	21.9523
2206.31	16.6353
2206.55	10.7708
2206.79	-5.68579
2207.03	13.3807
2207.26	8.1377
2207.5	35.598
2207.74	34.3075
2207.98	-15.3158
2208.22	1.11389
2208.46	19.4103
2208.7	-4.19226
2208.93	-11.0875
2209.17	-25.5009
2209.41	0.0539551
2209.65	18.0857
2209.89	60.2302
2210.13	-15.0365
2210.36	17.8494
2210.6	16.4469
2210.84	12.2773
2211.08	34.229
2211.32	11.4583
2211.56	-2.01782
2211.8	14.3612
2212.03	3.79553
2212.27	23.9989
2212.51	-3.48096
2212.75	17.4041
2212.99	11.9078
2213.23	10.0818
2213.46	25.986
2213.7	5.40234
2213.94	30.478
2214.18	0.0390625
2214.42	41.6583
2214.66	-0.262573
2214.89	-7.73059
2215.13	1.09265
2215.37	2.41125
2215.61	44.7687
2215.85	18.9398
2216.08	-18.1323
2216.32	14.782
2216.56	2.84668
2216.8	-8.17908
2217.04	1.302
2217.28	17.3279
2217.51	-16.9899
2217.75	-17.627
2217.99	40.5715
2218.23	30.5239
2218.47	22.3276
2218.7	-36.1868
2218.94	-18.0383
2219.18	-6.35046
2219.42	39.0376
2219.66	9.71582
2219.9	21.3617
2220.13	-23.0349
2220.37	-11.4104
2220.61	37.3757
2220.85	12.2902
2221.09	-27.7301
2221.32	-1.51807
2221.56	7.62305
2221.8	-3.84314
2222.04	34.2728
2222.27	9.87805
2222.51	8.01111
2222.75	18.4583
2222.99	-21.3202
2223.23	7.17944
2223.46	16.0845
2223.7	10.0891
2223.94	28.5052
2224.18	33.0148
2224.42	12.3163
2224.65	-10.3051
2224.89	-9.62573
2225.13	-8.06311
2225.37	0.980835
2225.6	2.59827
2225.84	9.9043
2226.08	10.5439
2226.32	1.79285
2226.56	37.084
2226.79	30.1078
2227.03	-36.746
2227.27	-12.7332
2227.51	8.41443
2227.74	8.86719
2227.98	-28.2866
2228.22	8.47583
2228.46	0.132446
2228.69	-10.079
2228.93	-39.0328
2229.17	20.1716
2229.41	1.55835
2229.64	28.0385
2229.88	42.6461
2230.12	-17.5968
2230.36	5.58752
2230.6	12.7164
2230.83	-15.7921
2231.07	19.5408
2231.31	13.5914
2231.55	30.2168
2231.78	-16.0682
2232.02	6.12354
2232.26	6.72253
2232.5	-3.02295
2232.73	-7.13232
2232.97	-21.6122
2233.21	-16.3344
2233.45	4.9198
2233.68	-32.1465
2233.92	24.8867
2234.16	8.44226
2234.39	20.1779
2234.63	-11.6868
2234.87	0.641235
2235.11	1.60352
2235.34	19.3958
2235.58	-35.5662
2235.82	14.0582
2236.06	16.2168
2236.29	23.114
2236.53	-26.3912
2236.77	13.4484
2237	29.7498
2237.24	-26.3506
2237.48	-0.289429
2237.72	-9.08044
2237.95	-0.62561
2238.19	-1.51917
2238.43	-5.30469
2238.67	35.9572
2238.9	-3.85815
2239.14	29.9298
2239.38	17.627
2239.61	4.78357
2239.85	-3.62305
2240.09	13.3514
2240.33	11.2009
2240.56	9.11755
2240.8	-4.9928
2241.04	12.0419
2241.27	-8.73132
2241.51	-7.43164
2241.75	1.41846
2241.99	14.0674
2242.22	-24.2705
2242.46	10.1028
2242.7	-15.8876
2242.93	-0.31897
2243.17	31.1125
2243.41	31.2831
2243.64	-15.9126
2243.88	17.0934
2244.12	20.9707
2244.36	40.0342
2244.59	34.6746
2244.83	-37.4855
2245.07	-12.1787
2245.3	23.7368
2245.54	-19.7684
2245.78	8.29614
2246.01	9.83838
2246.25	9.51758
2246.49	-15.4102
2246.72	1.21594
2246.96	-23.9047
2247.2	12.5592
2247.43	31.0553
2247.67	-24.3517
2247.91	27.0803
2248.14	-5.82715
2248.38	11.3594
2248.62	-13.1121
2248.85	34.3347
2249.09	-15.6726
2249.33	7.18079
2249.56	-0.218872
2249.8	25.8872
2250.04	1.74609
2250.27	25.6317
2250.51	-22.6155
2250.75	-17.0348
2250.98	4.60242
2251.22	6.31201
2251.46	-15.5197
2251.69	-21.2023
2251.93	-3.09167
2252.17	48.2765
2252.4	-17.4691
2252.64	-21.6776
2252.88	-22.9678
2253.11	24.2031
2253.35	-2.03027
2253.59	31.0964
2253.82	-6.96167
2254.06	24.9777
2254.3	9.44238
2254.53	11.9326
2254.77	-20.7633
2255.01	37.3542
2255.24	-43.1639
2255.48	-27.6636
2255.72	20.9509
2255.95	5.14587
2256.19	-18.2388
2256.42	1.27771
2256.66	-20.9045
2256.9	-11.8148
2257.13	24.7797
2257.37	-14.5327
2257.61	0.240967
2257.84	-10.6274
2258.08	20.1985
2258.32	-24.0815
2258.55	-0.966797
2258.79	4.14783
2259.02	-33.4277
2259.26	14.5671
2259.5	12.2351
2259.73	5.05371
2259.97	40.6124
2260.2	24.9133
2260.44	12.9962
2260.68	-15.0989
2260.91	5.28223
2261.15	-18.916
2261.39	-15.2561
2261.62	18.6655
2261.86	-19.0603
2262.1	27.921
2262.33	14.0459
2262.57	-5.53625
2262.8	-5.98987
2263.04	1.2981
2263.28	-3.76904
2263.51	25.5238
2263.75	-59.4271
2263.98	-23.312
2264.22	17.6787
2264.46	3.34387
2264.69	22.3413
2264.93	18.3392
2265.16	-4.84778
2265.4	-29.0635
2265.64	8.74976
2265.87	26.2528
2266.11	12.2498
2266.34	21.9115
2266.58	-25.9806
2266.81	-2.27087
2267.05	9.95178
2267.29	-5.45911
2267.52	11.676
2267.76	-10.2806
2267.99	-20.8002
2268.23	-7.58508
2268.47	10.485
2268.7	-1.76831
2268.94	7.12354
2269.17	10.4795
2269.41	34.004
2269.65	-8.20422
2269.88	10.6831
2270.12	7.64661
2270.35	-23.0005
2270.59	11.2382
2270.82	-0.589233
2271.06	-34.5188
2271.3	6.25916
2271.53	-2.73303
2271.77	22.6052
2272	-12.2732
2272.24	-6.90735
2272.47	25.0972
2272.71	5.29834
2272.95	13.2888
2273.18	27.031
2273.42	-4.18542
2273.65	9.55725
2273.89	23.3033
2274.12	-16.5392
2274.36	5.81567
2274.6	5.19482
2274.83	-0.202759
2275.07	-3.67944
2275.3	-40.6372
2275.54	7.58142
2275.77	13.6959
2276.01	-3.34143
2276.24	0.0467529
2276.48	-3.11084
2276.72	45.484
2276.95	-12.319
2277.18	-3.08643
2277.42	-10.1063
2277.66	21.4119
2277.89	19.4578
2278.13	-34.2998
2278.36	-6.42395
2278.6	26.7491
2278.83	-32.4106
2279.07	19.7292
2279.3	-3.13208
2279.54	18.1375
2279.78	-27.057
2280.01	-12.2228
2280.24	11.51
2280.48	7.45117
2280.72	15.9264
2280.95	-16.7643
2281.19	-17.7196
2281.42	-10.9257
2281.66	-12.8097
2281.89	-12.7197
2282.13	47.1566
2282.36	18.7855
2282.6	0.120483
2282.83	12.2305
2283.07	10.9838
2283.3	5.88831
2283.54	5.68567
2283.77	59.4447
2284.01	24.0446
2284.24	1.02576
2284.48	-5.58264
2284.71	15.3376
2284.95	10.9916
2285.19	18.3929
2285.42	27.707
2285.65	6.92798
2285.89	21.6736
2286.12	-1.54211
2286.36	-25.993
2286.59	2.10059
2286.83	-17.7101
2287.06	11.6921
2287.3	11.8092
2287.54	3.12805
2287.77	17.1304
2288	-39.2455
2288.24	33.7385
2288.47	4.96594
2288.71	34.8192
2288.94	-25.8656
2289.18	-41.3245
2289.41	45.0503
2289.65	28.2789
2289.88	0.0313721
2290.12	0.526123
2290.35	3.41943
2290.59	-10.9198
2290.82	-11.6158
2291.06	1.17627
2291.29	24.7675
2291.53	-8.16895
2291.76	8.06409
2292	-0.902832
2292.23	4.47156
2292.47	-31.5493
2292.7	-6.88843
2292.94	-6.2179
2293.17	20.4369
2293.41	33.532
2293.64	-5.45227
2293.88	0.783203
2294.11	4.99976
2294.34	-4.51086
2294.58	-26.6221
2294.81	7.0957
2295.05	-21.8787
2295.28	18.5912
2295.52	-12.2122
2295.75	-9.31006
2295.99	-0.626465
2296.22	6.16431
2296.46	-19.9727
2296.69	-16.5668
2296.93	4.76099
2297.16	-14.0775
2297.39	22.0315
2297.63	-13.9569
2297.86	-23.8948
2298.1	-31.8186
2298.33	-0.150513
2298.57	1.45483
2298.8	-5.74646
2299.04	-20.5642
2299.27	7.13599
2299.51	8.73865
2299.74	10.2732
2299.97	20.3528
2300.21	-1.59998
2300.44	4.45886
2300.68	3.71155
2300.91	9.96423
2301.15	-6.84387
2301.38	5.21997
2301.61	11.4692
2301.85	33.0863
2302.08	14.0829
2302.32	15.2543
2302.55	-15.5277
2302.79	7.77905
2303.02	-8.32471
2303.25	-5.20789
2303.49	17.1534
2303.72	-4.80811
2303.96	-1.61902
2304.19	23.9077
2304.43	29.2972
2304.66	-24.2303
2304.89	-13.1544
2305.13	17.295
2305.36	35.2788
2305.6	-4.83398
2305.83	13.8718
2306.07	9.44666
2306.3	-23.8915
2306.53	-36.9498
2306.77	3.01575
2307	-32.4498
2307.24	25.7837
2307.47	-5.90601
2307.7	10.6294
2307.94	-21.2155
2308.17	12.7388
2308.41	13.8073
2308.64	6.19519
2308.87	13.2183
2309.11	2.93335
2309.34	26.6488
2309.58	16.5792
2309.81	-1.08923
2310.04	24.8623
2310.28	1.32104
2310.51	5.62378
2310.75	-6.63928
2310.98	23.5638
2311.21	-7.3103
2311.45	0.290771
2311.68	-11.0616
2311.92	-21.5594
2312.15	-0.654175
2312.38	-11.4438
2312.62	22.3506
2312.85	-1.8186
2313.08	-3.70911
2313.32	8.1084
2313.55	-11.6898
2313.79	-2.21704
2314.02	-9.97461
2314.25	22.6735
2314.49	-5.53564
2314.72	4.92017
2314.95	23.2383
2315.19	12.4857
2315.42	-6.30029
2315.66	4.15149
2315.89	-21.1549
2316.12	8.73804
2316.36	9.50525
2316.59	14.6243
2316.82	-30.0273
2317.06	3.79431
2317.29	3.05603
2317.52	19.8287
2317.76	15.3649
2317.99	-16.7488
2318.23	-5.55127
2318.46	15.3817
2318.69	17.2916
2318.93	10.5692
2319.16	15.3895
2319.39	-9.72986
2319.63	18.2715
2319.86	7.73291
2320.09	-17.2142
2320.33	20.6914
2320.56	-10.8372
2320.79	-2.86279
2321.03	-24.6267
2321.26	-16.3849
2321.5	16.9885
2321.73	17.58
2321.96	0.840088
2322.2	-22.5565
2322.43	42.9858
2322.66	43.7124
2322.9	-9.01196
2323.13	-29.1224
2323.36	-4.60815
2323.6	29.6261
2323.83	12.5923
2324.06	-16.9955
2324.3	29.7419
2324.53	-8.74207
2324.76	7.88525
2325	21.2678
2325.23	17.1354
2325.46	9.05896
2325.7	16.653
2325.93	32.0327
2326.16	30.0269
2326.4	31.8684
2326.63	45.2736
2326.86	46.1266
2327.09	115.469
2327.33	192.494
2327.56	219.334
2327.79	284.874
2328.03	332.04
2328.26	319.55
2328.49	227.39
2328.73	77.3105
2328.96	76.6613
2329.19	79.4664
2329.43	67.8279
2329.66	15.6093
2329.89	25.3488
2330.13	15.9109
2330.36	48.1959
2330.59	17.5193
2330.82	19.574
2331.06	0.424805
2331.29	-5.1427
2331.52	3.91345
2331.76	7.32666
2331.99	15.5897
2332.22	7.60266
2332.46	-17.6417
2332.69	19.8605
2332.92	-21.5278
2333.16	-10.8949
2333.39	25.7388
2333.62	-18.4902
2333.85	14.3236
2334.09	10.5859
2334.32	-7.66284
2334.55	25.0403
2334.79	4.66431
2335.02	-10.7083
2335.25	-16.3792
2335.48	10.7632
2335.72	-24.6388
2335.95	-1.2196
2336.18	6.86609
2336.41	32.0905
2336.65	-22.6289
2336.88	2.5387
2337.11	-19.3754
2337.34	-9.55127
2337.58	18.5215
2337.81	-9.15503
2338.04	-0.370117
2338.28	-5.01843
2338.51	-19.2383
2338.74	31.8983
2338.97	-7.28308
2339.21	8.43555
2339.44	21.2484
2339.67	18.6357
2339.91	-37.8496
2340.14	22.8434
2340.37	15.2216
2340.6	-16.4972
2340.84	-3.05676
2341.07	8.37097
2341.3	36.9812
2341.53	-24.7284
2341.77	-6.85168
2342	34.1893
2342.23	4.42444
2342.46	-18.5944
2342.7	50.4625
2342.93	11.2421
2343.16	-22.1329
2343.39	-18.051
2343.63	-44.5941
2343.86	17.9172
2344.09	14.2927
2344.32	17.4738
2344.56	-30.0583
2344.79	-19.1724
2345.02	16.5293
2345.25	1.36353
2345.49	-0.448975
2345.72	-1.39929
2345.95	-17.8428
2346.18	-7.33044
2346.41	16.5797
2346.65	-3.37097
2346.88	-2.22327
2347.11	-16.3862
2347.34	-13.3781
2347.58	0.179077
2347.81	16.7052
2348.04	19.8992
2348.27	4.01453
2348.5	3.54504
2348.74	-1.78113
2348.97	-6.29041
2349.2	9.16113
2349.43	36.9308
2349.67	-20.9335
2349.9	11.1694
2350.13	11.5635
2350.36	19.4448
2350.59	28.9985
2350.83	-19.6586
2351.06	1.86096
2351.29	7.6676
2351.52	-5.40125
2351.75	20.5533
2351.99	21.1965
2352.22	7.1842
2352.45	-0.964111
2352.68	-4.28577
2352.91	-19.3243
2353.15	-9.10364
2353.38	-15.705
2353.61	-16.8942
2353.84	-2.45837
2354.07	-9.1554
2354.31	14.0194
2354.54	1.86389
2354.77	-2.19019
2355	-3.4043
2355.23	20.658
2355.47	4.64526
2355.7	-35.226
2355.93	5.8772
2356.16	-36.8884
2356.39	-30.212
2356.63	2.88049
2356.86	-13.7972
2357.09	-0.810669
2357.32	-2.75769
2357.55	-6.55298
2357.79	-13.1841
2358.02	25.842
2358.25	-16.8708
2358.48	10.8132
2358.71	3.37573
2358.94	14.7156
2359.18	-0.359253
2359.41	-30.5757
2359.64	16.1722
2359.87	-3.67725
2360.1	9.63208
2360.33	-6.57043
2360.57	-6.65466
2360.8	6.54663
2361.03	-16.308
2361.26	20.5972
2361.49	40.4028
2361.72	24.1635
2361.96	17.4065
2362.19	-16.8436
2362.42	-4.68689
2362.65	16.9591
2362.88	21.6177
2363.11	19.6887
2363.34	31.0486
2363.58	3.64819
2363.81	-5.70862
2364.04	19.9604
2364.27	4.92908
2364.5	11.6178
2364.73	-5.35291
2364.97	-10.0197
