#Acq. time (s)=	60
#Accumulations=	2
#Range (cm-¹)=	1220...2360
#Windows=	3
#Auto scanning=	Off
#Autofocus=	Off
#Macrospot=	Off
#AutoExposure=	Off
#Spike filter=	Multiple accum.
#Delay time (s)=	2
#Binning=	1
#Readout mode=	Signal
#DeNoise=	Off
#ICS correction=	On
#Dark correction=	Off
#Inst. Process=	Off
#Detector Gain=	Best Dynamic
#Detector ADC=	50 kHz HS
#Detector temperature (°C)=	-60.09
#Instrument=	LabRAM HR Evol
#Detector=	SIN-EM FIVIS
#Objective=	x100_VIS_LWD
#Grating=	1800 (450-850nm)
#ND Filter=	100%
#Laser=	532nm_Edge
#Hole=	49.98
#Temperature=	0
#Range=	Visible
#StageXY=	75x50mm Scan+
#StageZ=	Z motor
#X (µm)=	0
#Y (µm)=	0
#Z (µm)=	-27
#Full time(mm:ss)=	6:18
#Project=	21_05_28
#Sample=	BU19w
#Site=	
#Title=	BU19w-FF07b-FI06-V_1800 (450-850nm)_532nm_Edge_100%_x100_VIS_LWD_H50um_60sX2
#Remark=	
#Date=	28.05.2021 16:25
#Acquired=	28.05.2021 16:25:46
#Base:Fit=	16.12.2021 17:39:50
#Base:Fit=	16.12.2021 17:58:48
#Base:Sub=	16.12.2021 17:58:49
1220.15	3.48888
1220.43	1.93544
1220.7	-4.91861
1220.98	-12.8325
1221.26	-3.7827
1221.54	-21.2321
1221.81	-1.58965
1222.09	-11.6322
1222.37	-0.49173
1222.64	-12.6456
1222.92	-23.7179
1223.2	-12.5662
1223.48	-4.5827
1223.75	-2.92569
1224.03	-1.2616
1224.31	-0.628571
1224.58	-12.6496
1224.86	1.74052
1225.14	-8.12422
1225.41	-10.5667
1225.69	0.717407
1225.97	-10.1581
1226.25	-12.6134
1226.52	12.3885
1226.8	0.421036
1227.08	9.57744
1227.35	4.95253
1227.63	16.0632
1227.91	-3.3006
1228.19	11.0473
1228.46	2.17375
1228.74	14.3791
1229.02	15.1764
1229.29	16.4511
1229.57	13.4101
1229.85	39.3425
1230.12	17.8291
1230.4	48.0728
1230.68	52.0726
1230.95	47.4768
1231.23	53.1461
1231.51	49.8209
1231.78	62.2197
1232.06	71.466
1232.34	71.2423
1232.61	92.0589
1232.89	84.5044
1233.17	106.361
1233.44	93.577
1233.72	87.1225
1234	88.0356
1234.27	104.718
1234.55	86.7454
1234.83	76.132
1235.1	77.0631
1235.38	65.389
1235.66	75.8022
1235.93	63.0794
1236.21	59.7983
1236.49	62.8055
1236.76	42.6846
1237.04	48.832
1237.32	41.2982
1237.59	35.8704
1237.87	31.5013
1238.15	23.9904
1238.42	18.5888
1238.7	35.2362
1238.98	17.3006
1239.25	29.7857
1239.53	25.5069
1239.81	16.0003
1240.08	7.55348
1240.36	25.3217
1240.63	26.3299
1240.91	20.0096
1241.19	12.6406
1241.46	15.7306
1241.74	21.9531
1242.01	20.8576
1242.29	15.6028
1242.57	30.2688
1242.84	29.2413
1243.12	20.8712
1243.4	21.9096
1243.67	26.1048
1243.95	34.508
1244.23	41.847
1244.5	38.6973
1244.78	26.1098
1245.05	26.0783
1245.33	51.1901
1245.61	47.9866
1245.88	61.5491
1246.16	61.5499
1246.43	57.3778
1246.71	71.0277
1246.99	65.8286
1247.26	88.8769
1247.54	93.1086
1247.82	76.3826
1248.09	83.6564
1248.37	84.7157
1248.64	98.3615
1248.92	105.768
1249.19	104.811
1249.47	117.408
1249.75	134.208
1250.02	133.244
1250.3	141.614
1250.57	136.385
1250.85	138.491
1251.13	137.471
1251.4	139.596
1251.68	156.348
1251.95	151.16
1252.23	128.225
1252.51	105.301
1252.78	150.227
1253.06	124.183
1253.33	137.831
1253.61	117.08
1253.88	116.202
1254.16	110.114
1254.44	101.942
1254.71	114.617
1254.99	89.6837
1255.26	80.4326
1255.54	80.5613
1255.81	83.8162
1256.09	68.3001
1256.36	63.2363
1256.64	54.0089
1256.92	46.848
1257.19	55.3331
1257.47	42.9147
1257.74	51.3972
1258.02	35.8662
1258.29	53.7497
1258.57	54.917
1258.85	33.1049
1259.12	18.6503
1259.4	29.2691
1259.67	12.7698
1259.95	20.3074
1260.22	24.6
1260.5	30.9771
1260.77	21.6817
1261.05	18.6762
1261.32	18.8191
1261.6	34.6915
1261.88	35.0664
1262.15	26.126
1262.43	52.5091
1262.7	34.573
1262.98	44.9293
1263.25	58.6258
1263.53	66.3423
1263.8	104.324
1264.08	80.7475
1264.35	79.9633
1264.63	69.5514
1264.9	45.6558
1265.18	38.5379
1265.45	32.4379
1265.73	25.2906
1266	15.0415
1266.28	12.1234
1266.56	-6.45885
1266.83	-9.35794
1267.1	-8.06917
1267.38	-10.9542
1267.66	8.13255
1267.93	8.40317
1268.21	3.4624
1268.48	-5.69327
1268.76	-14.8761
1269.03	-1.01656
1269.31	-8.1172
1269.58	9.89474
1269.86	-4.59497
1270.13	-5.47847
1270.41	2.03625
1270.68	-18.7212
1270.96	-1.78044
1271.23	-7.84785
1271.51	-7.6488
1271.78	5.1501
1272.06	1.23225
1272.33	-8.96358
1272.61	-4.48277
1272.88	-17.8344
1273.16	-11.2793
1273.43	2.61932
1273.71	-8.63847
1273.98	-15.7085
1274.25	-9.16035
1274.53	-0.531143
1274.81	-1.35399
1275.08	-16.8531
1275.35	-10.3062
1275.63	-10.0447
1275.9	1.76202
1276.18	-14.7564
1276.45	-1.89288
1276.73	-7.92654
1277	-7.66364
1277.28	3.11917
1277.55	9.70256
1277.83	-0.526093
1278.1	-7.61139
1278.38	-11.5457
1278.65	-0.746033
1278.93	10.042
1279.2	12.4096
1279.47	13.6938
1279.75	5.50613
1280.02	25.7121
1280.3	33.3142
1280.57	29.3663
1280.85	52.774
1281.12	61.4943
1281.4	74.4353
1281.67	119.967
1281.95	145.474
1282.22	233.13
1282.49	332.368
1282.77	440.935
1283.04	619.67
1283.32	864.197
1283.59	1165.75
1283.87	1496.87
1284.14	1685.97
1284.42	1587.14
1284.69	1233.64
1284.96	776.453
1285.24	482.428
1285.51	282.451
1285.79	187.97
1286.06	116.675
1286.34	80.0477
1286.61	58.1495
1286.88	53.1304
1287.16	43.8881
1287.43	30.4196
1287.71	24.3215
1287.98	8.76689
1288.25	25.8534
1288.53	12.4264
1288.8	26.3703
1289.08	7.70053
1289.35	10.0825
1289.63	1.93829
1289.9	-1.99249
1290.17	15.1336
1290.45	8.00108
1290.72	-4.40836
1291	-7.3269
1291.27	4.50316
1291.54	3.69595
1291.82	4.98825
1292.09	-4.23862
1292.37	10.7645
1292.64	-7.96204
1292.91	-0.351959
1293.19	-3.2554
1293.46	-2.95123
1293.74	0.514862
1294.01	-5.49835
1294.28	-6.30371
1294.56	-0.782104
1294.83	1.55746
1295.11	6.05872
1295.38	-4.17862
1295.65	4.59372
1295.93	-9.83841
1296.2	-8.49168
1296.47	0.217789
1296.75	-9.05005
1297.02	-8.82631
1297.3	-2.26981
1297.57	-6.28423
1297.84	3.42949
1298.12	4.68567
1298.39	-5.60593
1298.66	-4.32922
1298.94	12.7794
1299.21	-9.17157
1299.48	0.543121
1299.76	11.3412
1300.03	-9.5049
1300.31	-0.808273
1300.58	0.486374
1300.85	-11.9543
1301.13	9.39317
1301.4	1.19337
1301.67	-0.657837
1301.95	4.88052
1302.22	-3.32535
1302.5	2.19403
1302.77	-2.85817
1303.04	1.59006
1303.32	-0.308212
1303.59	-1.15462
1303.86	5.40808
1304.14	8.8105
1304.41	0.592422
1304.68	-1.29355
1304.96	6.30679
1305.23	0.174927
1305.5	7.75766
1305.78	-2.60098
1306.05	-16.1198
1306.32	-14.8618
1306.6	-0.934937
1306.87	11.9472
1307.14	-2.58141
1307.42	-4.46481
1307.69	5.24979
1307.96	7.58266
1308.24	8.86287
1308.51	4.86023
1308.78	-8.62102
1309.06	15.8845
1309.33	3.46417
1309.6	-5.79367
1309.88	-7.67752
1310.15	-2.18893
1310.42	10.6849
1310.69	2.45979
1310.97	-9.98123
1311.24	12.4026
1311.52	-9.53929
1311.79	-7.20193
1312.06	2.53413
1312.33	6.98907
1312.61	-4.40694
1312.88	-2.09508
1313.15	9.70731
1313.43	8.85892
1313.7	-6.78073
1313.97	5.02901
1314.25	-2.14984
1314.52	5.45457
1314.79	-2.77107
1315.06	-7.82745
1315.34	8.231
1315.61	4.22861
1315.88	7.61679
1316.16	-0.639923
1316.43	2.72247
1316.7	1.86116
1316.97	7.33765
1317.25	-5.13255
1317.52	7.75859
1317.79	1.63029
1318.07	12.3999
1318.34	2.03635
1318.61	8.57248
1318.88	-1.79715
1319.16	14.2385
1319.43	17.5957
1319.7	-0.17337
1319.98	4.2507
1320.25	7.61139
1320.52	7.79066
1320.79	11.1256
1321.07	-0.334305
1321.34	2.98167
1321.61	17.905
1321.89	3.28917
1322.16	4.49536
1322.43	-7.9961
1322.7	1.66257
1322.97	15.5302
1323.25	6.2054
1323.52	10.6183
1323.79	13.9669
1324.06	3.60167
1324.34	5.88652
1324.61	9.22797
1324.88	13.6235
1325.15	9.58075
1325.43	4.44447
1325.7	6.66434
1325.97	17.2822
1326.25	10.001
1326.52	8.03316
1326.79	20.8284
1327.06	14.749
1327.34	4.46922
1327.61	1.52237
1327.88	9.11282
1328.15	5.11662
1328.42	10.6051
1328.7	13.9752
1328.97	9.91791
1329.24	10.0774
1329.51	28.1841
1329.79	8.29292
1330.06	13.7171
1330.33	8.58352
1330.6	17.1532
1330.87	6.73296
1331.15	6.85029
1331.42	9.05979
1331.69	17.5842
1331.96	10.3244
1332.24	19.9137
1332.51	12.6572
1332.78	9.60602
1333.05	13.9171
1333.33	17.1773
1333.6	9.93021
1333.87	16.3438
1334.14	4.90199
1334.41	27.0648
1334.69	6.18244
1334.96	19.9449
1335.23	5.37233
1335.5	19.1304
1335.77	21.3474
1336.05	18.3198
1336.32	19.4894
1336.59	9.12664
1336.86	15.5426
1337.13	10.4276
1337.4	11.6026
1337.68	15.9155
1337.95	7.63038
1338.22	26.5966
1338.49	21.4737
1338.76	4.82715
1339.04	12.2795
1339.31	10.3146
1339.58	25.1137
1339.85	7.4489
1340.12	30.6181
1340.4	20.2813
1340.67	20.4124
1340.94	25.7707
1341.21	20.6547
1341.48	14.4859
1341.75	22.97
1342.03	18.8817
1342.3	11.6471
1342.57	34.7516
1342.84	10.7751
1343.11	20.2952
1343.38	19.3591
1343.66	18.4284
1343.93	24.8203
1344.2	20.7571
1344.47	17.7347
1344.74	19.9256
1345.01	21.0607
1345.29	12.7786
1345.56	15.9835
1345.83	31.7335
1346.1	12.9913
1346.37	27.6501
1346.64	23.544
1346.91	25.6963
1347.19	21.5887
1347.46	8.10583
1347.73	26.955
1348	14.5357
1348.27	10.461
1348.54	22.017
1348.82	21.0546
1349.09	5.50411
1349.36	21.2053
1349.63	15.0323
1349.9	9.90237
1350.17	27.6759
1350.44	4.84776
1350.72	23.6456
1350.99	12.2664
1351.26	19.6189
1351.53	14.4855
1351.8	28.0891
1352.07	28.1844
1352.34	14.7766
1352.61	24.2616
1352.88	23.3468
1353.16	21.401
1353.43	23.6971
1353.7	25.9307
1353.97	17.5349
1354.24	12.2392
1354.51	22.6264
1354.78	35.1967
1355.05	22.8075
1355.33	15.5666
1355.6	22.9174
1355.87	19.9418
1356.14	15.8488
1356.41	24.2192
1356.68	22.2087
1356.95	23.3149
1357.22	21.3017
1357.49	18.2457
1357.76	28.683
1358.04	31.8485
1358.31	29.8219
1358.58	23.6474
1358.85	23.6908
1359.12	27.8889
1359.39	21.7198
1359.66	23.8482
1359.93	25.9498
1360.2	28.054
1360.47	30.1559
1360.75	22.952
1361.02	24.0478
1361.29	18.9355
1361.56	24.1737
1361.83	31.4817
1362.1	24.2772
1362.37	17.0805
1362.64	29.5556
1362.91	20.2987
1363.18	28.6561
1363.45	21.4959
1363.72	30.8913
1363.99	36.1501
1364.27	32.0564
1364.54	46.6062
1364.81	37.3239
1365.08	36.3162
1365.35	38.4093
1365.62	44.6394
1365.89	35.3471
1366.16	42.6102
1366.43	35.3867
1366.7	36.429
1366.97	28.1635
1367.24	34.4011
1367.51	38.5761
1367.78	35.55
1368.05	44.9112
1368.32	41.8685
1368.6	41.9261
1368.87	51.2881
1369.14	72.0277
1369.41	103.099
1369.68	96.9123
1369.95	75.2263
1370.22	40.1024
1370.49	40.1093
1370.76	20.5022
1371.03	33.9462
1371.3	41.1743
1371.57	37.0332
1371.84	38.0479
1372.11	42.1589
1372.38	31.8369
1372.65	43.1825
1372.92	39.0732
1373.19	37.03
1373.46	41.1715
1373.73	24.7059
1374	46.3681
1374.27	28.8773
1374.54	37.144
1374.81	33.0435
1375.08	36.1556
1375.35	34.1379
1375.62	41.3925
1375.89	34.2135
1376.16	32.1782
1376.43	35.2629
1376.71	39.3724
1376.97	45.5213
1377.24	47.5698
1377.51	42.4771
1377.78	61.0802
1378.05	44.7
1378.33	33.4726
1378.6	44.8999
1378.87	50.0959
1379.13	50.1094
1379.4	43.9275
1379.67	65.5707
1379.94	53.1848
1380.21	50.0221
1380.49	50.966
1380.76	55.0241
1381.03	59.1356
1381.29	60.1888
1381.56	52.9556
1381.83	51.8691
1382.1	52.8386
1382.37	72.3023
1382.64	70.1971
1382.91	76.3106
1383.18	77.2971
1383.45	86.4976
1383.72	87.5015
1383.99	99.805
1384.26	102.904
1384.53	118.325
1384.8	153.251
1385.07	162.59
1385.34	202.717
1385.61	235.665
1385.88	346.617
1386.15	468.917
1386.42	690.876
1386.69	1046.34
1386.96	1710.82
1387.23	2763.79
1387.5	3735.1
1387.77	3533.85
1388.04	2308.53
1388.31	1204.34
1388.58	672.047
1388.85	431.764
1389.12	274.82
1389.39	219.454
1389.66	164
1389.93	145.403
1390.2	139.019
1390.46	98.0269
1390.73	81.5517
1391	77.404
1391.27	84.5745
1391.54	88.6457
1391.81	66.0603
1392.08	70.1133
1392.35	56.7661
1392.62	49.5736
1392.89	65.9324
1393.16	60.7951
1393.43	53.6128
1393.7	51.5503
1393.97	45.396
1394.24	52.5466
1394.51	49.4646
1394.78	48.434
1395.04	38.225
1395.31	31.0781
1395.58	35.1836
1395.85	42.347
1396.12	41.3106
1396.39	38.2202
1396.66	33.079
1396.93	35.1014
1397.2	45.2954
1397.47	45.2641
1397.74	40.1328
1398.01	43.1961
1398.27	36.0408
1398.54	38.0944
1398.81	43.2105
1399.08	31.9591
1399.35	38.1124
1399.62	34.0239
1399.89	35.0467
1400.16	48.3471
1400.43	31.9847
1400.7	38.1476
1400.97	38.1463
1401.23	22.7752
1401.5	36.0879
1401.77	39.1632
1402.04	37.1625
1402.31	38.2597
1402.58	28.0699
1402.85	37.3471
1403.12	34.2924
1403.39	40.4534
1403.66	34.271
1403.92	39.3389
1404.19	30.045
1404.46	45.4288
1404.73	46.4241
1405	47.4126
1405.27	41.2153
1405.54	51.4255
1405.81	56.5075
1406.07	59.5429
1406.34	56.4339
1406.61	42.0618
1406.88	67.6776
1407.15	69.7238
1407.42	75.8703
1407.69	94.3173
1407.96	107.64
1408.23	127.115
1408.49	153.772
1408.76	200.948
1409.03	187.623
1409.3	196.86
1409.57	155.831
1409.84	122.998
1410.11	82.9553
1410.37	79.8147
1410.64	66.4104
1410.91	55.0651
1411.18	48.8613
1411.45	40.6174
1411.72	46.7261
1411.98	41.5862
1412.25	32.3695
1412.52	39.572
1412.79	27.3737
1413.06	33.6611
1413.33	22.3573
1413.6	24.2201
1413.86	27.1847
1414.13	17.9876
1414.4	33.447
1414.67	21.1292
1414.94	19.0502
1415.21	30.3216
1415.47	30.2977
1415.74	25.1467
1416.01	26.16
1416.28	38.4707
1416.55	28.1894
1416.82	32.2879
1417.08	31.2516
1417.35	21.996
1417.62	14.7891
1417.89	20.9329
1418.16	28.1016
1418.43	38.3612
1418.69	34.2248
1418.96	13.6505
1419.23	20.8134
1419.5	16.6572
1419.77	16.6044
1420.04	10.39
1420.3	11.3667
1420.57	19.5268
1420.84	32.8171
1421.11	13.2638
1421.38	22.4687
1421.64	17.3225
1421.91	15.2877
1422.18	21.4543
1422.45	14.2893
1422.72	21.53
1422.98	15.4644
1423.25	21.6997
1423.52	19.0128
1423.79	32.3811
1424.06	14.8389
1424.32	11.6144
1424.59	20.8977
1424.86	29.0382
1425.13	17.9218
1425.4	23.9205
1425.66	19.8729
1425.93	20.8694
1426.2	18.7784
1426.47	18.7159
1426.74	33.007
1427	17.5602
1427.27	27.7393
1427.54	9.20644
1427.81	17.3406
1428.07	23.4371
1428.34	17.2596
1428.61	17.2335
1428.88	16.1876
1429.15	20.2645
1429.41	21.2746
1429.68	8.97326
1429.95	7.9462
1430.22	12.0477
1430.48	9.98834
1430.75	10.0023
1431.02	22.3395
1431.29	18.2387
1431.55	20.2741
1431.82	4.8392
1432.09	18.1186
1432.36	22.1616
1432.62	9.80251
1432.89	16.9024
1433.16	6.57201
1433.43	16.7342
1433.7	21.7778
1433.96	6.36195
1434.23	13.5005
1434.5	11.4914
1434.76	21.7132
1435.03	8.36368
1435.3	14.4793
1435.57	16.4924
1435.83	15.4289
1436.1	23.5853
1436.37	13.2977
1436.64	6.08249
1436.9	9.11209
1437.17	17.2658
1437.44	10.0592
1437.71	24.351
1437.97	7.93157
1438.24	20.202
1438.51	13.017
1438.77	18.1156
1439.04	17.0639
1439.31	12.9453
1439.58	3.71315
1439.84	10.885
1440.11	23.1836
1440.38	15.9871
1440.65	15.9607
1440.91	2.60159
1441.18	6.67182
1441.45	25.0833
1441.72	14.78
1441.98	13.7272
1442.25	20.8896
1442.52	1.38612
1442.78	16.7457
1443.05	12.5934
1443.32	9.46552
1443.58	17.6199
1443.85	-2.92382
1444.12	11.3957
1444.39	5.23212
1444.65	9.33394
1444.92	14.4672
1445.19	9.3238
1445.45	8.25536
1445.72	12.3165
1445.99	6.11993
1446.26	6.07883
1446.52	7.06407
1446.79	13.1769
1447.05	12.1094
1447.32	19.2413
1447.59	15.0937
1447.85	5.82738
1448.12	15.0321
1448.39	8.87527
1448.66	5.78609
1448.92	8.83575
1449.19	-2.48227
1449.46	17.9862
1449.72	4.6064
1449.99	11.7323
1450.26	3.48547
1450.52	16.7708
1450.79	11.6053
1451.06	2.34129
1451.32	3.32518
1451.59	3.28307
1451.86	11.4394
1452.12	-0.893051
1452.39	5.22227
1452.66	4.17068
1452.92	11.3233
1453.19	17.4565
1453.46	12.3108
1453.72	13.3019
1453.99	3.01637
1454.26	8.10762
1454.52	-0.118996
1454.79	17.2715
1455.06	6.98866
1455.32	14.1259
1455.59	10.0133
1455.86	2.82823
1456.12	-7.44402
1456.39	10.9728
1456.66	-9.56792
1456.92	-4.49236
1457.19	0.589882
1457.45	3.62718
1457.72	1.54288
1457.99	9.7086
1458.25	8.65751
1458.52	9.65987
1458.79	6.56577
1459.05	12.6899
1459.32	10.6188
1459.59	3.4185
1459.85	5.43423
1460.12	3.35011
1460.39	8.43651
1460.65	3.27721
1460.92	10.4054
1461.18	3.19467
1461.45	6.22446
1461.72	-11.225
1461.98	9.20337
1462.25	9.15367
1462.51	1.93987
1462.78	-4.25003
1463.05	10.0171
1463.31	2.80402
1463.58	9.91422
1463.84	6.83428
1464.11	3.79894
1464.38	-2.32021
1464.64	2.81264
1464.91	9.00207
1465.18	4.62963
1465.44	7.52421
1465.71	-2.77629
1465.97	7.4432
1466.24	11.5272
1466.51	4.31545
1466.77	-0.864655
1467.04	0.152664
1467.3	2.16611
1467.57	3.15423
1467.84	-6.05749
1468.1	3.09744
1468.37	-2.02734
1468.63	1.00675
1468.9	1.99455
1469.17	1.95899
1469.43	6.00055
1469.7	-1.1872
1469.96	-1.2349
1470.23	-9.42735
1470.49	-6.40479
1470.76	-1.34442
1471.03	4.74209
1471.29	-9.56487
1471.56	10.7635
1471.82	9.71149
1472.09	3.57533
1472.35	1.51468
1472.62	-0.545067
1472.89	-0.569435
1473.15	11.6153
1473.42	-3.69518
1473.68	-2.71177
1473.95	-2.74345
1474.22	6.39132
1474.48	2.30536
1474.75	-6.85957
1475.01	4.32056
1475.28	9.39085
1475.54	0.205276
1475.81	-10.003
1476.08	-9.0184
1476.34	10.2871
1476.61	-8.0563
1476.87	-7.07687
1477.14	3.06107
1477.4	6.089
1477.67	-5.11796
1477.93	1.97855
1478.2	-0.0911179
1478.46	4.95386
1478.73	-3.21126
1478.99	-3.24522
1479.26	-1.24921
1479.53	-4.33572
1479.79	-6.40665
1480.06	-3.40604
1480.32	1.61644
1480.59	7.66143
1480.85	-5.56252
1481.12	10.6417
1481.38	-1.55348
1481.65	-3.58281
1481.91	5.55533
1482.18	7.5947
1482.44	-2.54846
1482.71	6.58458
1482.98	-5.60614
1483.24	-5.60887
1483.51	2.50575
1483.77	5.53757
1484.04	-0.592148
1484.3	3.39999
1484.57	-10.9035
1484.83	1.10957
1485.1	-2.04556
1485.36	2.92091
1485.63	1.99126
1485.89	-4.95953
1486.16	0.138229
1486.42	-2.95666
1486.69	1.05454
1486.95	0.0708771
1487.22	0.0514374
1487.48	6.0882
1487.75	0.991684
1488.01	-0.0483322
1488.28	5.99463
1488.54	0.89547
1488.81	-0.151176
1489.07	2.85818
1489.34	-8.292
1489.6	-7.29772
1489.87	-9.33356
1490.13	2.79745
1490.4	8.85083
1490.66	-2.30333
1490.93	-0.311882
1491.19	6.74147
1491.46	2.68153
1491.72	-0.361839
1491.99	-4.40961
1492.25	-7.4492
1492.52	-6.44975
1492.78	-0.395538
1493.05	-3.4356
1493.31	-5.46828
1493.58	0.584717
1493.84	10.6858
1494.1	-7.51024
1494.37	-6.49485
1494.63	1.59046
1494.9	9.66133
1495.16	-1.48943
1495.43	2.50878
1495.69	-2.5845
1495.96	8.49269
1496.22	-0.617416
1496.49	1.38371
1496.75	3.38136
1497.02	3.37095
1497.28	2.35857
1497.55	9.41531
1497.81	0.32476
1498.08	-0.687431
1498.34	-3.71554
1498.6	8.39658
1498.87	-5.73061
1499.13	-5.72637
1499.4	0.33744
1499.66	-3.6908
1499.93	-6.71377
1500.19	5.40195
1500.46	-0.65947
1500.72	4.38498
1500.98	0.340416
1501.25	5.3644
1501.51	5.35088
1501.78	5.34647
1502.04	4.33408
1502.31	-4.75297
1502.57	-4.77056
1502.83	-3.78712
1503.1	2.25344
1503.36	-9.86889
1503.63	4.23928
1503.89	-0.790955
1504.16	11.32
1504.42	3.25837
1504.68	-9.85076
1504.95	-4.81448
1505.21	-1.80081
1505.48	1.20557
1505.74	10.2272
1506	-12.9605
1506.27	-2.8862
1506.53	-1.87901
1506.8	-2.86329
1507.06	7.2237
1507.33	1.18891
1507.59	9.2581
1507.85	0.188156
1508.12	-5.86185
1508.38	5.22618
1508.65	1.20599
1508.91	1.21503
1509.17	-6.84032
1509.44	-0.791458
1509.7	0.226357
1509.97	16.3831
1510.23	6.29169
1510.49	4.2621
1510.76	3.23537
1511.02	7.24209
1511.29	1.16905
1511.55	-7.9372
1511.81	0.0566711
1512.08	1.01456
1512.34	-6.07095
1512.61	-3.08111
1512.87	7.94643
1513.13	-7.13115
1513.4	1.89423
1513.66	6.92478
1513.93	3.9809
1514.19	-11.0484
1514.45	3.01741
1514.72	-7.03465
1514.98	3.98663
1515.24	0.95945
1515.51	3.94583
1515.77	5.92634
1516.04	-8.1393
1516.3	6.90178
1516.56	-0.115776
1516.83	5.90249
1517.09	-9.13101
1517.35	-1.09823
1517.62	-1.08135
1517.88	-12.0834
1518.15	6.9972
1518.41	4.00837
1518.67	-7.00439
1518.94	-13.0021
1519.2	5.07775
1519.46	-0.920769
1519.73	-4.91901
1519.99	8.13036
1520.25	-1.89719
1520.52	2.12943
1520.78	8.1728
1521.04	-0.83075
1521.31	3.20469
1521.57	5.22572
1521.83	-1.79051
1522.1	10.252
1522.36	-1.78442
1522.63	7.24564
1522.89	6.24185
1523.15	4.22366
1523.42	-10.8367
1523.68	-0.834732
1523.94	-2.84859
1524.21	-0.850227
1524.47	0.149117
1524.73	-2.83871
1525	7.2017
1525.26	-2.7906
1525.52	0.242874
1525.79	-0.72171
1526.05	1.327
1526.31	-10.6545
1526.57	5.41615
1526.84	-12.6053
1527.1	15.4683
1527.36	2.4458
1527.63	6.46448
1527.89	-12.5652
1528.15	-1.53502
1528.42	-0.52639
1528.68	9.49945
1528.94	0.49588
1529.21	8.52571
1529.47	-2.47704
1529.73	3.53828
1530	7.55294
1530.26	4.57346
1530.52	-2.39763
1530.78	6.66255
1531.05	-0.308014
1531.31	3.73077
1531.57	-8.27596
1531.84	3.76977
1532.1	-3.23135
1532.36	0.79995
1532.63	7.86091
1532.89	-2.10178
1533.15	1.97051
1533.41	8.0357
1533.68	13.0878
1533.94	-8.95492
1534.2	-2.9169
1534.47	8.13266
1534.73	-3.89127
1534.99	1.13676
1535.25	3.15102
1535.52	-7.89746
1535.78	-1.90231
1536.04	9.11362
1536.31	-4.91904
1536.57	-1.93092
1536.83	11.0626
1537.09	7.06081
1537.36	-1.94378
1537.62	9.07796
1537.88	-12.9142
1538.15	12.0776
1538.41	1.08524
1538.67	9.09263
1538.93	-0.863525
1539.2	1.21438
1539.46	8.32661
1539.72	-9.59952
1539.98	3.49741
1540.25	7.58649
1540.51	-3.37469
1540.77	1.69236
1541.04	-4.32974
1541.3	1.6971
1541.56	-1.30572
1541.82	5.70695
1542.09	-2.30922
1542.35	-2.30944
1542.61	5.70189
1542.87	-1.3041
1543.14	11.7085
1543.4	0.695313
1543.66	-6.32192
1543.92	-5.30038
1544.19	1.73328
1544.45	-1.22154
1544.71	4.8443
1544.97	-7.11074
1545.23	11.98
1545.5	-1.97478
1545.76	5.08276
1546.02	-1.88181
1546.28	0.148384
1546.55	14.2027
1546.81	15.2473
1547.07	-2.74243
1547.33	-3.69714
1547.6	0.336014
1547.86	4.30959
1548.12	7.33141
1548.38	5.35087
1548.64	4.43607
1548.91	3.39965
1549.17	3.2985
1549.43	7.26192
1549.69	11.3304
1549.95	4.45482
1550.22	4.66782
1550.48	-3.19933
1550.74	1.01247
1551	6.00645
1551.27	-4.00507
1551.53	-1.97001
1551.79	3.02836
1552.05	6.10124
1552.31	8.20992
1552.58	8.23853
1552.84	4.24439
1553.1	2.17802
1553.36	5.18626
1553.62	5.21107
1553.89	16.2586
1554.15	12.2471
1554.41	4.22437
1554.67	-2.80453
1554.93	15.2423
1555.2	0.238976
1555.46	12.2896
1555.72	5.31673
1555.98	3.35815
1556.24	11.3855
1556.51	8.41128
1556.77	4.44589
1557.03	8.49548
1557.29	3.52621
1557.55	3.55794
1557.82	12.5965
1558.08	-0.428238
1558.34	3.58688
1558.6	-0.419914
1558.86	-1.42086
1559.12	4.58442
1559.39	5.59231
1559.65	5.60555
1559.91	8.62183
1560.17	0.647362
1560.43	10.6679
1560.69	3.69919
1560.96	9.72768
1561.22	8.7671
1561.48	1.82577
1561.74	-0.112183
1562	0.964325
1562.26	3.01064
1562.52	12.0452
1562.79	6.07167
1563.05	9.11089
1563.31	6.14138
1563.57	4.16666
1563.83	6.2291
1564.09	14.3168
1564.36	4.37426
1564.62	9.41732
1564.88	12.4179
1565.14	9.29392
1565.4	7.06393
1565.66	-0.107155
1565.92	8.20991
1566.19	2.51639
1566.45	3.55678
1566.71	7.50556
1566.97	1.58997
1567.23	18.7416
1567.49	12.7961
1567.76	-0.242523
1568.02	4.78104
1568.28	12.834
1568.54	0.885635
1568.8	10.9213
1569.06	11.9226
1569.32	2.93276
1569.58	8.96011
1569.84	17.0014
1570.11	1.05474
1570.37	6.09274
1570.63	7.13026
1570.89	10.1633
1571.15	16.1894
1571.41	5.22051
1571.67	11.2318
1571.93	20.2536
1572.19	18.2832
1572.46	16.3018
1572.72	5.33756
1572.98	22.3327
1573.24	3.38534
1573.5	6.40039
1573.76	11.4256
1574.02	9.48505
1574.28	-0.433014
1574.54	15.6096
1574.81	8.68935
1575.07	4.76205
1575.33	10.8217
1575.59	15.8702
1575.85	7.90943
1576.11	7.94656
1576.37	1.98322
1576.63	5.99068
1576.89	8.98419
1577.16	7.98253
1577.42	10.9748
1577.68	12.9711
1577.94	20.9511
1578.2	-6.95568
1578.46	1.05054
1578.72	23.021
1578.98	8.10614
1579.24	7.14972
1579.5	16.1665
1579.76	14.2299
1580.02	14.2821
1580.28	9.34126
1580.54	8.38244
1580.81	6.41814
1581.07	16.4109
1581.33	11.4513
1581.59	15.457
1581.85	5.50472
1582.11	17.4892
1582.37	-0.41127
1582.63	13.5676
1582.89	3.63934
1583.15	10.6482
1583.41	9.69157
1583.67	6.73309
1583.93	1.79006
1584.2	0.843185
1584.46	16.8292
1584.72	11.8962
1584.98	18.9112
1585.24	6.9926
1585.5	21.9716
1585.76	17.0249
1586.02	8.07887
1586.28	3.11281
1586.54	14.0806
1586.8	2.16152
1587.06	10.1507
1587.32	7.1957
1587.58	13.1991
1587.84	7.26894
1588.1	16.2724
1588.36	14.3359
1588.62	22.3567
1588.88	0.516632
1589.14	7.54031
1589.4	12.5718
1589.66	13.6154
1589.92	16.6423
1590.18	9.72105
1590.44	19.7329
1590.71	5.84753
1590.97	1.9034
1591.23	8.91602
1591.49	16.9176
1591.75	13.9619
1592.01	2.03416
1592.27	14.98
1592.53	7.0277
1592.79	10.0397
1593.05	13.0262
1593.31	7.05669
1593.57	14.9978
1593.83	12.0221
1594.09	16.0153
1594.35	20.0246
1594.61	13.1226
1594.87	6.23396
1595.13	9.27193
1595.39	17.2806
1595.65	7.32841
1595.91	21.2649
1596.17	14.3528
1596.43	8.43494
1596.69	15.4319
1596.95	12.5007
1597.21	2.61749
1597.47	13.5989
1597.73	17.6143
1597.99	7.71213
1598.25	10.7165
1598.51	9.7339
1598.77	13.716
1599.03	24.6515
1599.29	7.79932
1599.55	11.7901
1599.81	5.85828
1600.07	8.85711
1600.33	18.7945
1600.59	5.91782
1600.85	9.89034
1601.11	16.8295
1601.37	11.8766
1601.63	11.8832
1601.89	6.94787
1602.15	21.8148
1602.4	9.95345
1602.66	12.9343
1602.92	1.07749
1603.18	15.9315
1603.44	11.9996
1603.7	17.9608
1603.96	12.0643
1604.22	16.0606
1604.48	18.0827
1604.74	17.1356
1605	13.2231
1605.26	21.1776
1605.52	26.169
1605.78	4.46777
1606.04	11.4458
1606.3	9.52286
1606.56	15.5119
1606.82	14.5739
1607.08	6.70343
1607.34	7.7328
1607.6	8.75861
1607.86	15.7224
1608.12	21.6971
1608.38	13.8199
1608.63	13.8532
1608.89	12.8792
1609.15	12.8839
1609.41	5.97288
1609.67	18.83
1609.93	18.8306
1610.19	15.8724
1610.45	17.8596
1610.71	9.97608
1610.97	6.04504
1611.23	9.02427
1611.49	6.09743
1611.75	9.09625
1612.01	6.18453
1612.27	12.1583
1612.53	14.1742
1612.79	22.1074
1613.04	24.1221
1613.3	16.2645
1613.56	15.3044
1613.82	12.3626
1614.08	11.4003
1614.34	9.46254
1614.6	19.3748
1614.86	22.3757
1615.12	15.4968
1615.38	22.4273
1615.64	14.5671
1615.9	15.5902
1616.16	21.5569
1616.41	12.7285
1616.67	9.81537
1616.93	4.92183
1617.19	15.8107
1617.45	9.92227
1617.71	11.9264
1617.97	17.8773
1618.23	16.9272
1618.49	13.0105
1618.74	15.0007
1619	23.8927
1619.26	17.995
1619.52	27.8733
1619.78	20.9947
1620.04	25.9479
1620.3	23.0197
1620.56	15.1688
1620.82	9.29397
1621.08	15.2526
1621.33	23.1883
1621.59	16.335
1621.85	7.50684
1622.11	18.3924
1622.37	21.3937
1622.63	11.4917
1622.89	16.2631
1623.15	18.9686
1623.4	12.8689
1623.66	12.0209
1623.92	17.9541
1624.18	10.4371
1624.44	19.2653
1624.7	11.0171
1624.96	12.1356
1625.21	8.54466
1625.47	9.42452
1625.73	17.9533
1625.99	12.579
1626.25	15.2955
1626.51	16.7347
1626.77	3.12173
1627.03	10.5832
1627.29	7.10789
1627.54	8.69603
1627.8	4.24561
1628.06	12.1277
1628.32	17.6021
1628.58	11.7789
1628.84	9.3781
1629.09	9.95738
1629.35	5.14474
1629.61	2.37505
1629.87	8.77249
1630.13	5.16926
1630.39	10.0938
1630.64	4.85643
1630.9	7.18661
1631.16	11.8331
1631.42	15.5338
1631.68	9.80871
1631.94	10.4474
1632.2	3.44485
1632.46	9.29763
1632.71	8.79545
1632.97	10.6542
1633.23	6.39033
1633.49	12.4877
1633.75	8.09096
1634	5.10434
1634.26	12.3464
1634.52	1.72695
1634.78	4.51034
1635.04	8.5135
1635.29	1.88438
1635.55	8.85093
1635.81	6.77822
1636.07	4.45837
1636.33	10.3729
1636.59	8.47844
1636.84	3.7542
1637.1	6.21928
1637.36	7.88809
1637.62	2.48672
1637.88	7.59789
1638.14	6.80946
1638.39	10.7897
1638.65	7.09061
1638.91	-0.259758
1639.17	2.68085
1639.42	4.45073
1639.68	6.78824
1639.94	5.91956
1640.2	5.73596
1640.46	6.57827
1640.71	8.23549
1640.97	3.61929
1641.23	3.95115
1641.49	6.76252
1641.75	4.61968
1642.01	0.506416
1642.26	-6.03443
1642.52	-7.96477
1642.78	-3.6195
1643.04	-3.80437
1643.29	-1.31494
1643.55	-0.717491
1643.81	4.67927
1644.07	-6.1847
1644.33	3.83318
1644.58	6.62502
1644.84	3.38237
1645.1	-4.36803
1645.36	-3.97635
1645.61	-4.83526
1645.87	-3.95006
1646.12	-13.2358
1646.38	0.556488
1646.64	1.55846
1646.9	-2.35344
1647.16	0.613045
1647.42	2.59879
1647.68	-6.2338
1647.94	4.61274
1648.2	-3.22292
1648.47	2.72734
1648.73	-1.15972
1648.99	-10.9152
1649.25	-1.0431
1649.51	-0.0394745
1649.77	-1.00997
1650.03	-5.89993
1650.29	-4.85254
1650.55	-4.80875
1650.81	4.10371
1651.07	-0.776733
1651.33	2.21752
1651.59	6.18968
1651.85	8.18644
1652.12	1.31512
1652.38	-3.58118
1652.64	9.23994
1652.9	5.31265
1653.16	-0.577103
1653.42	0.435188
1653.68	5.39294
1653.94	-1.46768
1654.2	7.43184
1654.46	-7.32156
1654.72	3.55241
1654.98	2.60642
1655.24	-3.26159
1655.5	0.738312
1655.76	4.7456
1656.02	-1.12877
1656.28	4.83144
1656.54	-0.0720291
1656.8	7.8522
1657.07	2.93583
1657.33	-2.97241
1657.59	3.9493
1657.85	-7.87599
1658.11	4.96754
1658.37	-2.91481
1658.63	5.97277
1658.89	1.04826
1659.15	6.9732
1659.41	1.06354
1659.67	7.97044
1659.93	3.04848
1660.19	7.02392
1660.45	10.0186
1660.71	1.18323
1660.97	-0.749298
1661.23	-7.61404
1661.49	-3.62949
1661.75	10.2198
1662.01	0.343117
1662.27	-0.633316
1662.53	-3.40476
1662.79	-0.362488
1663.05	-1.37402
1663.31	11.4931
1663.57	0.540718
1663.83	1.44175
1664.09	-4.37683
1664.35	4.54432
1664.61	-10.2243
1664.87	-0.280693
1665.13	9.60841
1665.39	1.57314
1665.65	15.4583
1665.91	3.82766
1666.17	1.87072
1666.43	-9.96295
1666.69	-3.32541
1666.95	4.53963
1667.21	0.793686
1667.47	2.76406
1667.73	4.74369
1667.99	1.78711
1668.25	-4.12801
1668.51	-2.12584
1668.77	0.912422
1669.03	10.847
1669.29	5.93373
1669.55	2.99114
1669.81	10.9149
1670.07	4.98544
1670.33	0.0823669
1670.59	4.11264
1670.85	0.189079
1671.11	3.16028
1671.37	7.12447
1671.63	3.18269
1671.89	-7.66406
1672.15	5.20834
1672.41	5.22762
1672.67	5.24143
1672.93	3.28126
1673.19	1.32323
1673.45	2.33202
1673.71	-4.56522
1673.97	2.38264
1674.23	5.3793
1674.49	-6.46259
1674.75	-4.45634
1675.01	1.51492
1675.27	-1.42632
1675.53	4.53365
1675.79	10.4848
1676.05	4.55964
1676.31	2.60006
1676.56	1.62943
1676.82	-3.30349
1677.08	5.61508
1677.34	1.66304
1677.6	0.676758
1677.86	2.65315
1678.12	0.666847
1678.38	-5.27582
1678.64	1.64316
1678.9	1.64287
1679.16	1.64379
1679.42	-2.30566
1679.68	-0.326927
1679.94	7.58216
1680.2	-2.29617
1680.46	10.5511
1680.72	-2.29234
1680.98	7.59118
1681.23	13.5262
1681.49	0.693161
1681.75	4.65546
1682.01	5.65469
1682.27	6.65493
1682.53	3.70273
1682.79	0.745544
1683.05	4.70529
1683.31	0.763321
1683.57	5.71214
1683.83	7.69404
1684.09	2.75583
1684.35	-2.18585
1684.61	-0.208237
1684.87	2.75937
1685.13	4.74088
1685.38	-0.188576
1685.64	-2.15437
1685.9	-2.14419
1686.16	7.74345
1686.42	-3.0983
1686.68	-1.0973
1686.94	1.8829
1687.2	-0.0852509
1687.46	12.7557
1687.72	5.83703
1687.97	1.88361
1688.23	6.81915
1688.49	-2.07159
1688.75	1.868
1689.01	4.81685
1689.27	6.78026
1689.53	-1.12465
1689.79	0.834808
1690.05	5.75182
1690.31	-0.149651
1690.57	1.84789
1690.82	3.83947
1691.08	8.78762
1691.34	0.904289
1691.6	-2.0359
1691.86	-0.0507813
1692.12	1.92739
1692.38	-3.00837
1692.64	2.90028
1692.89	0.913376
1693.15	2.86723
1693.41	4.81603
1693.67	-1.12458
1693.93	-5.07653
1694.19	3.77593
1694.45	-2.15085
1694.71	4.73726
1694.96	8.68526
1695.22	-0.16877
1695.48	-4.10019
1695.74	3.79157
1696	3.80347
1696.26	1.85237
1696.52	3.83358
1696.78	4.81875
1697.03	5.7952
1697.29	5.77651
1697.55	-1.14252
1697.81	0.805084
1698.07	3.7421
1698.33	0.775101
1698.58	0.762077
1698.84	-0.231171
1699.1	8.62151
1699.36	3.70369
1699.62	7.64759
1699.88	-0.221939
1700.14	2.72926
1700.4	10.5846
1700.65	3.69651
1700.91	0.741867
1701.17	4.67153
1701.43	11.5465
1701.69	-2.23922
1701.95	1.67604
1702.2	6.57391
1702.46	7.53724
1702.72	9.48811
1702.98	-0.342842
1703.24	5.54948
1703.5	10.4547
1703.75	-8.22093
1704.01	6.51496
1704.27	8.49133
1704.53	-2.30722
1704.79	-7.22033
1705.05	-0.347427
1705.3	14.3866
1705.56	1.61319
1705.82	1.60713
1706.08	8.46521
1706.34	-0.398483
1706.6	-0.423126
1706.85	-0.449028
1707.11	1.48978
1707.37	-1.47841
1707.63	7.32068
1707.89	9.24666
1708.14	-1.57191
1708.4	9.17284
1708.66	-2.62266
1708.92	10.0784
1709.18	4.1795
1709.44	-3.66722
1709.69	-2.69559
1709.95	1.21743
1710.21	5.13273
1710.47	6.11295
1710.73	2.20641
1710.98	5.15368
1711.24	3.20137
1711.5	4.18632
1711.76	3.20995
1712.01	0.26577
1712.27	1.22551
1712.53	-3.70764
1712.79	5.05684
1713.05	9.89754
1713.3	4.96734
1713.56	8.82879
1713.82	3.90819
1714.08	-0.0201111
1714.34	-0.0363083
1714.59	-1.02522
1714.85	11.6621
1715.11	11.6578
1715.37	10.708
1715.63	6.80602
1715.88	-0.0428009
1716.14	-2.01193
1716.4	-2.03354
1716.66	16.4929
1716.91	12.547
1717.17	-0.186935
1717.43	-0.236778
1717.69	5.5561
1717.95	5.51062
1718.2	9.35954
1718.46	12.2446
1718.72	-1.41486
1718.98	4.41177
1719.23	1.48592
1719.49	7.31773
1719.75	8.27718
1720.01	-1.45015
1720.26	2.43472
1720.52	1.44057
1720.78	1.41277
1721.04	0.401863
1721.29	5.24285
1721.55	5.21237
1721.81	9.07031
1722.07	-2.63112
1722.32	3.16792
1722.58	5.07782
1722.84	5.04598
1723.1	5.98825
1723.35	4.99286
1723.61	4.97533
1723.87	-1.83011
1724.13	3.00578
1724.38	2.0207
1724.64	4.90281
1724.9	1.95139
1725.16	3.84163
1725.41	9.61485
1725.67	2.78213
1725.93	13.4135
1726.18	13.3977
1726.44	3.70385
1726.7	4.65128
1726.96	8.49539
1727.21	-13.821
1727.47	-0.262962
1727.73	2.64993
1727.99	9.40852
1728.24	9.37276
1728.5	6.38229
1728.76	4.28416
1729.01	11.8686
1729.27	-1.66685
1729.53	3.20731
1729.79	4.21072
1730.04	9.03335
1730.3	-1.65222
1730.56	13.7617
1730.81	3.1703
1731.07	1.30047
1731.33	10.9592
1731.59	9.01537
1731.84	6.10098
1732.1	8.01434
1732.36	2.19474
1732.61	11.832
1732.87	8.90376
1733.13	3.07088
1733.39	-2.76811
1733.64	2.00417
1733.9	4.84967
1734.16	-1.94474
1734.41	2.83271
1734.67	1.82355
1734.93	2.74203
1735.18	-0.191444
1735.44	0.734314
1735.7	7.44109
1735.95	0.677765
1736.21	5.46848
1736.47	8.33004
1736.72	5.41649
1736.98	12.1234
1737.24	2.47447
1737.5	8.22008
1737.75	7.2298
1738.01	10.0803
1738.27	11.0047
1738.52	7.12409
1738.78	1.32222
1739.04	-0.63842
1739.29	1.23814
1739.55	8.86123
1739.81	1.12234
1740.06	3.94536
1740.32	5.81144
1740.58	4.80952
1740.83	11.4798
1741.09	6.6498
1741.35	3.73949
1741.6	11.3659
1741.86	8.46346
1742.12	5.56757
1742.37	1.71882
1742.63	3.60782
1742.89	1.66874
1743.14	4.52155
1743.4	-0.281212
1743.66	11.1726
1743.91	7.30454
1744.17	2.49236
1744.42	3.41716
1744.68	5.31387
1744.94	0.516518
1745.19	3.37323
1745.45	4.31262
1745.71	3.33287
1745.96	-0.524117
1746.22	-1.51817
1746.48	-7.2962
1746.73	7.94839
1746.99	-0.68718
1747.25	-2.6442
1747.5	-0.769089
1747.76	3.01014
1748.02	2.03455
1748.27	10.6088
1748.53	5.82267
1748.78	3.90271
1749.04	-0.878387
1749.3	0.0736694
1749.55	-1.83487
1749.81	3.90073
1750.06	-2.77962
1750.32	8.6944
1750.58	-6.59657
1750.83	5.81982
1751.09	-1.8339
1751.35	9.61791
1751.6	7.6684
1751.86	4.75153
1752.11	-0.0709229
1752.37	8.48576
1752.63	3.67111
1752.88	-1.14265
1753.14	6.45466
1753.4	4.50973
1753.65	5.42934
1753.91	3.48495
1754.16	9.16655
1754.42	6.26698
1754.68	10.0477
1754.93	3.34311
1755.19	5.21971
1755.44	8.0459
1755.7	10.8666
1755.96	3.20275
1756.21	-0.65062
1756.47	-0.69754
1756.72	0.20446
1756.98	5.86423
1757.24	2.01821
1757.49	8.6455
1757.75	-3.74179
1758	9.57413
1758.26	2.91898
1758.51	9.5682
1758.77	8.60055
1759.03	3.82591
1759.28	-2.85004
1759.54	1.89209
1759.79	-0.0338898
1760.05	9.455
1760.3	1.81544
1760.56	4.64043
1760.82	-2.05054
1761.07	1.717
1761.33	1.67879
1761.59	3.54562
1761.84	-0.285622
1762.1	-4.11449
1762.35	4.42944
1762.61	3.47566
1762.86	7.26794
1763.12	4.39442
1763.37	-0.379143
1763.63	3.41046
1763.88	-6.10875
1764.14	11.0028
1764.4	5.31374
1764.65	1.51527
1764.91	2.46352
1765.16	5.31204
1765.42	3.39792
1765.67	2.43264
1765.93	2.41579
1766.19	1.44347
1766.44	1.41882
1766.7	1.38956
1766.95	-5.29482
1767.21	-0.559486
1767.46	8.92863
1767.72	3.18083
1767.97	-0.655525
1768.23	6.9203
1768.48	14.5136
1768.74	0.200363
1769	-5.57886
1769.25	1.00573
1769.51	1.87804
1769.76	2.79876
1770.02	-9.5585
1770.27	4.70802
1770.53	-4.80579
1770.78	5.62848
1771.04	4.67068
1771.29	3.74413
1771.55	-0.999939
1771.8	-3.87049
1772.06	1.82616
1772.31	5.6314
1772.57	-2.92985
1772.82	7.5303
1773.08	11.33
1773.34	9.41952
1773.59	2.74807
1773.84	-2.022
1774.1	1.77317
1774.36	10.3272
1774.61	10.3162
1774.87	6.50236
1775.12	-0.172974
1775.38	7.4578
1775.63	5.57764
1775.89	2.71795
1776.14	7.4738
1776.4	-0.17289
1776.65	-0.201485
1776.91	4.52888
1777.16	9.2578
1777.42	1.60036
1777.67	0.60865
1777.93	-0.382339
1778.18	-2.32561
1778.44	-0.460793
1778.69	7.11065
1778.95	-4.35906
1779.2	1.3068
1779.46	4.13098
1779.71	3.17226
1779.97	6.98004
1780.22	0.305222
1780.48	5.05254
1780.73	8.85034
1780.98	-0.682274
1781.24	-1.65132
1781.5	9.76018
1781.75	4.9919
1782	6.89255
1782.26	2.13158
1782.51	2.13206
1782.77	-6.44955
1783.02	-1.69375
1783.28	8.78244
1783.53	-8.38119
1783.79	4.95889
1784.04	7.81659
1784.3	-3.62364
1784.55	-0.761238
1784.81	5.90977
1785.06	0.169701
1785.32	1.10128
1785.57	-2.74321
1785.83	2.94888
1786.08	4.83196
1786.33	1.00143
1786.59	0.0402451
1786.84	-1.86908
1787.1	3.86237
1787.35	-2.80795
1787.61	3.90894
1787.86	1.08768
1788.12	4.96291
1788.37	5.00219
1788.63	0.225082
1788.88	0.224243
1789.13	14.6067
1789.39	4.08519
1789.64	0.251144
1789.9	11.7454
1790.15	1.19839
1790.41	6.9379
1790.66	-2.67233
1790.92	2.09848
1791.17	14.4686
1791.42	1.01019
1791.68	2.89336
1791.93	-4.79144
1792.19	-0.0185318
1792.44	3.79467
1792.7	-4.83274
1792.95	-1.01085
1793.2	-8.68657
1793.46	-0.0892334
1793.71	-1.05222
1793.97	1.80731
1794.22	2.75378
1794.48	-1.11557
1794.73	2.689
1794.98	0.830421
1795.24	3.75799
1795.49	2.81866
1795.75	0.897316
1796	3.77666
1796.26	7.61842
1796.51	-1.02402
1796.76	-2.94379
1797.02	8.58766
1797.27	2.82175
1797.53	-1.02676
1797.78	1.85022
1798.03	3.76507
1798.29	9.52356
1798.54	0.854813
1798.8	2.75611
1799.05	1.76624
1799.3	0.771873
1799.56	-0.227516
1799.81	-1.22945
1800.07	10.2657
1800.32	0.624229
1800.57	4.43665
1800.83	6.33048
1801.08	-3.29852
1801.34	3.40403
1801.59	1.46607
1801.84	-0.468391
1802.1	-0.478706
1802.35	12.0041
1802.61	-2.41091
1802.86	-1.44985
1803.11	13.9342
1803.37	-0.482391
1803.62	-6.25695
1803.87	2.3854
1804.13	2.37408
1804.38	-4.35938
1804.64	-2.43431
1804.89	-3.39578
1805.14	-16.8657
1805.4	8.17165
1805.65	-0.488106
1805.9	0.477119
1806.16	8.1835
1806.41	-3.38103
1806.67	-7.24252
1806.92	-1.47243
1807.17	-8.23551
1807.43	4.27618
1807.68	9.07771
1807.93	-5.39597
1808.19	7.11813
1808.44	5.17548
1808.69	1.30553
1808.95	5.14752
1809.2	-3.5423
1809.46	0.299721
1809.71	1.25064
1809.96	-4.54794
1810.22	6.04246
1810.47	5.05874
1810.72	-4.60629
1810.98	-6.55547
1811.23	-4.64641
1811.48	-6.59421
1811.74	2.06457
1811.99	-7.59089
1812.24	-5.67175
1812.5	1.07305
1812.75	6.86006
1813	6.86284
1813.26	2.03
1813.51	1.05894
1813.76	4.92142
1814.02	-9.5457
1814.27	0.116096
1814.52	-2.76107
1814.78	10.7709
1815.03	1.11273
1815.28	-6.62351
1815.54	-8.56689
1815.79	-0.847664
1816.04	-3.75774
1816.3	-2.80459
1816.55	-7.64104
1816.8	4.90359
1817.06	5.85317
1817.31	-0.970085
1817.56	-9.73184
1817.82	-7.82252
1818.07	4.72985
1818.32	1.84101
1818.58	-3.94018
1818.83	9.56475
1819.08	1.82201
1819.34	-3.98233
1819.59	-2.0508
1819.84	-1.0913
1820.09	-5.9305
1820.35	6.63769
1820.6	6.63694
1820.85	-3.0419
1821.11	9.52937
1821.36	0.824905
1821.61	0.826057
1821.87	-1.11115
1822.12	-0.148254
1822.37	5.65263
1822.62	-7.90891
1822.88	5.63461
1823.13	-5.02592
1823.38	0.758743
1823.64	-4.10567
1823.89	-8.00288
1824.14	2.63531
1824.4	-5.1133
1824.65	8.43347
1824.9	-4.15733
1825.15	-0.288025
1825.41	-3.19713
1825.66	-2.23939
1825.91	0.651253
1826.17	9.35226
1826.42	1.59453
1826.67	-0.354996
1826.92	-1.33393
1827.18	-5.21339
1827.43	-0.373657
1827.68	-5.22007
1827.93	9.30634
1828.19	2.50461
1828.44	-0.421249
1828.69	-0.450081
1828.94	5.33389
1829.2	-0.497345
1829.45	3.36005
1829.7	5.27764
1829.95	-9.27047
1830.21	3.28985
1830.46	6.17033
1830.71	-1.59634
1830.97	1.30342
1831.22	6.14623
1831.47	0.337524
1831.72	2.2759
1831.98	-4.50488
1832.23	-5.47302
1832.48	1.31376
1832.73	6.16781
1832.99	6.16324
1833.24	4.21178
1833.49	-4.51839
1833.74	2.26404
1833.99	-0.652695
1834.25	-3.57903
1834.5	-1.69904
1834.75	-1.76804
1835	3.0118
1835.26	-3.81636
1835.51	10.6563
1835.76	1.91974
1836.02	-9.70516
1836.27	-1.81282
1836.52	8.19336
1836.77	8.97574
1837.02	-0.830284
1837.28	1.04619
1837.53	-0.0117493
1837.78	-5.90981
1838.03	-8.90849
1838.28	-3.15376
1838.54	3.68432
1838.79	2.85937
1839.04	8.70509
1839.29	-4.84248
1839.55	0.00379181
1839.8	-6.77098
1840.05	0.935776
1840.3	1.79686
1840.55	0.752487
1840.81	-15.7539
1841.06	-2.27788
1841.31	1.52847
1841.56	4.36946
1841.82	-2.43974
1842.07	0.408623
1842.32	1.32743
1842.57	-5.44021
1842.82	-0.62294
1843.08	2.26146
1843.33	1.29245
1843.58	0.316673
1843.83	-5.48671
1844.08	6.07254
1844.34	4.14168
1844.59	0.281006
1844.84	5.08507
1845.09	2.17643
1845.34	-1.68855
1845.6	11.8349
1845.85	8.01613
1846.1	-1.602
1846.35	-4.44894
1846.6	1.33463
1846.86	-3.61631
1847.11	0.0651932
1847.36	2.85229
1847.61	7.64293
1847.86	-5.80991
1848.11	-2.87664
1848.37	3.84138
1848.62	4.75554
1848.87	4.73955
1849.12	-3.94544
1849.37	1.79576
1849.62	0.792366
1849.88	2.67675
1850.13	-5.06445
1850.38	5.47083
1850.63	2.54833
1850.88	-10.9342
1851.14	-3.27695
1851.39	6.30335
1851.64	-3.32121
1851.89	3.38631
1852.14	5.29766
1852.39	-1.43073
1852.65	-1.4376
1852.9	-2.40593
1853.15	1.42213
1853.4	-10.1144
1853.65	5.22292
1853.9	4.22807
1854.15	2.26828
1854.41	5.10227
1854.66	5.0736
1854.91	1.22066
1855.16	7.89941
1855.41	0.185547
1855.66	0.152122
1855.91	-4.65319
1856.17	1.07977
1856.42	-7.54776
1856.67	-1.80517
1856.92	2.01662
1857.17	4.87746
1857.42	2.94322
1857.67	0.0526123
1857.92	-6.66888
1858.18	-6.6928
1858.43	-5.763
1858.68	-3.87833
1858.93	6.61481
1859.18	-6.80727
1859.43	-3.01126
1859.68	1.75601
1859.94	2.71072
1860.19	2.70631
1860.44	-4.9309
1860.69	3.69389
1860.94	7.53075
1861.19	1.80579
1861.44	1.82268
1861.7	-0.0847397
1861.95	-8.70298
1862.2	-2.01997
1862.45	1.7821
1862.7	-2.07266
1862.95	3.63595
1863.2	-0.217255
1863.45	1.66713
1863.7	-2.18059
1863.95	-2.20303
1864.21	3.5064
1864.46	-3.20133
1864.71	3.4598
1864.96	6.29513
1865.21	4.35106
1865.46	-10.9527
1865.71	10.946
1865.96	5.17527
1866.21	-3.45168
1866.46	-0.640274
1866.72	5.02628
1866.97	-2.63644
1867.22	0.174774
1867.47	-3.66721
1867.72	0.111496
1867.97	-2.75574
1868.22	-0.865379
1868.47	2.93337
1868.72	-2.7669
1868.97	2.93844
1869.22	1.03069
1869.47	1.9734
1869.73	2.916
1869.98	3.85946
1870.23	0.0509186
1870.48	-1.85577
1870.73	-7.56239
1870.98	0.0381165
1871.23	-1.86808
1871.48	0.0208282
1871.73	-1.89565
1871.98	1.8876
1872.23	7.57575
1872.48	-3.83815
1872.73	11.3331
1872.99	5.61688
1873.24	4.65875
1873.49	-5.7893
1873.74	-2.95399
1873.99	-3.92077
1874.24	0.801582
1874.49	5.519
1874.74	8.33549
1874.99	-1.17525
1875.24	-6.89091
1875.49	0.657059
1875.74	6.28894
1875.99	4.34418
1876.24	-4.20622
1876.49	-4.23264
1876.74	6.15495
1876.99	2.33473
1877.25	-7.17862
1877.5	7.83654
1877.75	-6.32387
1878	-0.37748
1878.25	-1.24403
1878.5	-3.25607
1878.75	4.29953
1879	-6.99902
1879.25	1.59936
1879.5	3.49126
1879.75	5.34974
1880	-3.18518
1880.25	11.9602
1880.5	7.24177
1880.75	-2.22943
1881	-2.24068
1881.25	-0.373779
1881.5	3.36218
1881.75	-3.3091
1882	6.09024
1882.25	1.30729
1882.5	-8.19966
1882.75	1.19573
1883	2.08128
1883.25	2.5259
1883.5	1.53397
1883.75	2.11797
1884	4.86011
1884.25	3.97119
1884.5	-5.46835
1884.75	-7.34392
1885	-5.40649
1885.25	4.0592
1885.51	-4.41441
1885.75	6.95499
1886	-3.3913
1886.26	7.96523
1886.5	7.02338
1886.75	2.27079
1887.01	1.30042
1887.26	-1.55064
1887.5	1.25892
1887.76	0.293159
1888.01	-2.55958
1888.25	4.00514
1888.5	-1.68339
1888.76	6.76571
1889	-0.799881
1889.25	8.5955
1889.51	-2.69958
1889.75	2.94556
1890	1.07346
1890.25	-5.49023
1890.5	-3.57305
1890.75	3.03701
1891	-3.55052
1891.25	-8.26575
1891.5	2.09921
1891.75	7.74914
1892	1.1553
1892.25	7.75298
1892.5	-0.729141
1892.75	4.90694
1893	10.53
1893.25	1.06511
1893.5	9.47401
1893.75	7.55994
1894	13.2546
1894.25	5.69251
1894.5	-3.71908
1894.75	-0.905777
1895	0.0421524
1895.25	0.995865
1895.5	11.3495
1895.75	-0.845963
1896	6.69324
1896.25	7.65765
1896.5	1.10667
1896.75	3.01501
1897	2.09766
1897.25	3.05792
1897.5	9.65724
1897.75	2.14137
1897.99	3.08521
1898.24	7.78535
1898.49	2.13294
1898.74	4.93913
1898.99	3.0382
1899.24	3.02176
1899.49	8.65646
1899.74	7.71307
1899.99	1.1277
1900.24	-3.56567
1900.49	-0.738014
1900.74	3.03802
1900.99	1.183
1901.24	5.91508
1901.49	2.18514
1901.74	3.15743
1901.99	-2.45339
1902.23	1.34785
1902.49	11.7116
1902.73	-3.33893
1902.98	-1.45735
1903.23	-1.46124
1903.48	-15.5665
1903.73	4.18262
1903.98	-4.27528
1904.23	10.7744
1904.48	-1.44112
1904.73	9.84529
1904.98	-2.37187
1905.23	2.33748
1905.47	10.8046
1905.73	2.3363
1905.97	6.05683
1906.22	-2.40305
1906.47	9.80504
1906.72	1.35086
1906.97	1.35313
1907.22	7.93385
1907.47	-6.13294
1907.72	3.27667
1907.97	-2.32407
1908.22	-1.36263
1908.47	3.3513
1908.71	5.25129
1908.96	5.27901
1909.21	-0.32814
1909.46	12.8708
1909.71	8.21445
1909.96	-1.14419
1910.21	0.785805
1910.46	7.42308
1910.71	-4.77857
1910.95	14.0872
1911.2	6.57746
1911.45	2.82812
1911.7	5.66634
1911.95	9.44131
1912.2	7.55946
1912.45	1.91761
1912.7	3.81293
1912.95	-1.8252
1913.2	10.4335
1913.44	1.98108
1913.69	2.96361
1913.94	3.0118
1914.19	-11.0887
1914.44	9.6881
1914.69	6.89707
1914.94	6.93288
1915.18	2.24657
1915.43	10.7613
1915.68	15.4924
1915.93	0.399834
1916.18	6.06615
1916.43	1.35265
1916.68	6.05867
1916.93	-1.4931
1917.18	2.27624
1917.42	0.391502
1917.67	3.22586
1917.92	1.35364
1918.17	-2.39199
1918.42	6.13033
1918.67	9.00302
1918.92	1.50191
1919.16	-1.28185
1919.41	-3.11674
1919.66	-3.06171
1919.91	13.0382
1920.16	4.55772
1920.41	2.67427
1920.66	6.46478
1920.9	-1.05489
1921.15	8.44109
1921.4	5.64096
1921.65	4.72372
1921.9	-1.86912
1922.15	-1.85241
1922.39	2.8849
1922.64	12.341
1922.89	0.0466309
1923.14	4.77699
1923.39	4.78304
1923.64	3.84309
1923.88	7.62474
1924.13	1.95081
1924.38	10.4535
1924.63	3.84892
1924.88	0.0872574
1925.13	5.78304
1925.37	4.87472
1925.62	-1.69634
1925.87	-0.704781
1926.12	6.90475
1926.37	11.6812
1926.62	1.32173
1926.86	10.8296
1927.11	8.97031
1927.36	6.16142
1927.61	7.13876
1927.86	7.16786
1928.1	0.565102
1928.35	6.2739
1928.6	-3.17259
1928.85	-4.0905
1929.1	5.41842
1929.34	6.40494
1929.59	6.45336
1929.84	1.7578
1930.09	4.65087
1930.34	10.3903
1930.59	3.79118
1930.83	12.3667
1931.08	3.84167
1931.33	4.80236
1931.58	1.00848
1931.83	-4.6842
1932.07	9.55435
1932.32	7.65738
1932.57	-4.67697
1932.82	8.61423
1933.07	1.97897
1933.31	8.63673
1933.56	6.78292
1933.81	7.79875
1934.06	9.78481
1934.3	7.04392
1934.55	4.30347
1934.8	3.45174
1935.05	16.8784
1935.3	8.37818
1935.54	-0.146431
1935.79	4.59428
1936.04	8.39329
1936.29	10.3116
1936.53	4.5985
1936.78	13.1702
1937.03	10.3023
1937.28	6.48557
1937.53	10.2886
1937.77	2.66902
1938.02	2.6655
1938.27	13.1458
1938.52	-2.98855
1938.77	3.7128
1939.01	5.64982
1939.26	14.2576
1939.51	6.67126
1939.76	7.65907
1940	8.63781
1940.25	9.63033
1940.5	5.86387
1940.74	3.08186
1940.99	6.01169
1941.24	4.12991
1941.49	4.13627
1941.74	7.93694
1941.98	0.26693
1942.23	4.1136
1942.48	2.31973
1942.73	10.0214
1942.97	9.09222
1943.22	4.30286
1943.47	4.27277
1943.72	12.8357
1943.96	11.9492
1944.21	11.0506
1944.46	1.54452
1944.71	-0.323059
1944.95	7.36209
1945.2	7.40801
1945.45	11.2761
1945.69	-3.01748
1945.94	5.62534
1946.19	5.66126
1946.44	-0.0453491
1946.68	7.63203
1946.93	0.955246
1947.18	-2.8592
1947.43	12.4496
1947.67	6.72632
1947.92	7.70013
1948.17	4.84936
1948.41	0.0801849
1948.66	2.0136
1948.91	11.6122
1949.16	5.91477
1949.4	7.86994
1949.65	9.83004
1949.9	3.17791
1950.15	13.7723
1950.39	10.0116
1950.64	-0.469513
1950.89	5.34158
1951.13	13.0779
1951.38	3.54639
1951.63	9.35882
1951.88	9.40244
1952.12	8.47908
1952.37	18.1201
1952.62	12.3767
1952.86	11.4513
1953.11	5.73347
1953.36	12.4576
1953.61	1.87196
1953.85	12.3858
1954.1	9.46106
1954.35	7.50312
1954.59	13.2201
1954.84	1.71996
1955.09	4.60747
1955.33	-3.98595
1955.58	10.4317
1955.83	8.57937
1956.07	8.67161
1956.32	9.69047
1956.57	-5.61408
1956.81	4.98621
1957.06	2.14857
1957.31	-0.691261
1957.55	7.03392
1957.8	7.07004
1958.05	5.17935
1958.29	6.16803
1958.54	15.8056
1958.79	-0.521324
1959.03	7.16772
1959.28	7.1745
1959.53	11.993
1959.78	6.23271
1960.02	6.2349
1960.27	2.3962
1960.52	6.23914
1960.76	13.919
1961.01	7.19829
1961.26	15.8382
1961.5	8.16711
1961.75	9.14773
1962	2.45522
1962.24	1.51904
1962.49	9.22153
1962.74	11.1655
1962.98	2.55027
1963.23	8.33321
1963.47	4.51654
1963.72	14.1412
1963.97	11.2936
1964.21	5.56459
1964.46	0.782722
1964.71	5.59516
1964.95	-3.98618
1965.2	1.79098
1965.45	11.4134
1965.69	15.284
1965.94	4.75939
1966.19	3.84185
1966.43	10.6114
1966.68	12.5714
1966.93	6.83981
1967.17	4.93456
1967.42	5.91502
1967.66	4.98198
1967.91	7.8905
1968.16	9.83691
1968.4	11.7785
1968.65	14.6722
1968.9	11.7893
1969.14	4.09418
1969.39	4.08122
1969.64	3.1061
1969.88	8.85769
1970.13	-4.58482
1970.37	15.5737
1970.62	7.89721
1970.87	2.1424
1971.11	5.02724
1971.36	11.7503
1971.6	8.8829
1971.85	2.19263
1972.1	8.93742
1972.34	5.12556
1972.59	10.9007
1972.84	7.07411
1973.08	4.19882
1973.33	8.98985
1973.57	6.11133
1973.82	1.32233
1974.07	8.04158
1974.31	3.26323
1974.56	3.28199
1974.8	7.13856
1975.05	11
1975.3	13.9091
1975.54	-2.35573
1975.79	15.8979
1976.03	1.54266
1976.28	8.28302
1976.53	7.34703
1976.77	4.48904
1977.02	10.2606
1977.26	18.9049
1977.51	0.688507
1977.75	10.2812
1978	-1.22362
1978.25	8.36742
1978.49	-2.17017
1978.74	4.55087
1978.99	-1.1824
1979.23	10.341
1979.48	9.40219
1979.72	1.75593
1979.97	8.48676
1980.21	9.455
1980.46	20.9548
1980.71	3.70493
1980.95	2.75491
1981.2	3.71783
1981.44	17.1337
1981.69	9.48121
1981.93	20.0305
1982.18	16.2133
1982.43	7.59681
1982.67	14.2983
1982.92	16.2054
1983.16	7.57726
1983.41	6.61349
1983.65	13.3161
1983.9	3.76028
1984.15	5.68139
1984.39	6.64469
1984.64	10.4783
1984.88	2.82977
1985.13	3.77769
1985.37	3.78004
1985.62	16.2221
1985.86	4.7765
1986.11	8.63163
1986.35	23.0092
1986.6	15.389
1986.85	11.579
1987.09	15.4275
1987.34	3.9565
1987.58	18.2818
1987.83	9.66054
1988.07	9.63696
1988.32	0.0592957
1988.56	11.4587
1988.81	11.3977
1989.05	5.63097
1989.3	7.49387
1989.55	3.66199
1989.79	15.0777
1990.04	6.52113
1990.28	14.16
1990.53	17.075
1990.77	11.4155
1991.02	10.5074
1991.26	1.98288
1991.51	21.0952
1991.75	3.97157
1992	4.00468
1992.24	7.83877
1992.49	15.4784
1992.73	16.4295
1992.98	8.80187
1993.22	9.74239
1993.47	5.91104
1993.71	13.5035
1993.96	19.1874
1994.2	10.5965
1994.45	9.61175
1994.7	15.2773
1994.94	12.3965
1995.18	5.71857
1995.43	9.49992
1995.68	12.3329
1995.92	17.08
1996.16	7.60255
1996.41	19.9659
1996.66	11.4488
1996.9	13.3781
1997.15	12.4616
1997.39	14.3854
1997.63	5.8528
1997.88	10.6157
1998.13	16.3265
1998.37	4.93279
1998.61	15.3849
1998.86	15.3768
1999.11	10.6082
1999.35	20.0341
1999.59	16.9852
1999.84	6.48657
2000.08	2.70052
2000.33	3.67351
2000.57	5.45454
2000.82	6.41496
2001.06	9.58649
2001.31	10.3315
2001.55	7.19601
2001.8	7.86579
2002.04	3.92769
2002.29	12.4001
2002.53	10.0441
2002.78	14.081
2003.02	5.558
2003.27	14.571
2003.51	12.6602
2003.76	14.8671
2004	3.29907
2004.25	9.78438
2004.49	3.30257
2004.73	5.34312
2004.98	7.43662
2005.22	11.2401
2005.47	13.3118
2005.71	2.84061
2005.96	7.7869
2006.2	14.3171
2006.45	14.2754
2006.69	8.51181
2006.94	5.85042
2007.18	10.7532
2007.42	4.27532
2007.67	7.67411
2007.92	4.71046
2008.16	9.69443
2008.4	3.63583
2008.65	6.02272
2008.89	1.34674
2009.14	7.8092
2009.38	4.73382
2009.63	11.0726
2009.87	5.5575
2010.11	5.52529
2010.36	13.8702
2010.6	1.80335
2010.85	11.1335
2011.09	8.27078
2011.34	2.99716
2011.58	3.1363
2011.82	1.64992
2012.07	6.82717
2012.31	8.59785
2012.56	4.33283
2012.8	1.18449
2013.05	9.0936
2013.29	5.19232
2013.54	6.87566
2013.78	7.19761
2014.02	4.18797
2014.27	-1.00961
2014.51	3.8693
2014.76	3.16654
2015	6.14587
2015.24	6.98417
2015.49	2.31522
2015.73	2.36013
2015.98	0.720352
2016.22	-3.15188
2016.46	7.19212
2016.71	3.17161
2016.95	0.0133438
2017.2	-0.462242
2017.44	8.77128
2017.69	1.44092
2017.93	2.81656
2018.17	4.33652
2018.42	0.281868
2018.66	1.86077
2018.91	1.25421
2019.15	1.78864
2019.39	2.46629
2019.64	0.01017
2019.88	3.11483
2020.13	1.44473
2020.37	5.14356
2020.61	8.03404
2020.86	3.06551
2021.1	0.756165
2021.35	-0.554985
2021.59	-1.28164
2021.83	4.2076
2022.08	4.26407
2022.32	1.77703
2022.56	2.43591
2022.81	4.04101
2023.05	3.53232
2023.3	-0.143257
2023.54	-0.64032
2023.78	0.560921
2024.03	-1.72988
2024.27	0.437325
2024.52	4.1675
2024.76	5.87888
2025	3.25211
2025.25	-1.84068
2025.49	0.270523
2025.73	2.44124
2025.98	0.600258
2026.22	-6.0401
2026.46	-2.28127
2026.71	4.38548
2026.88	1.7896
2027.13	-0.922104
2027.38	0.0752258
2027.62	-2.7338
2027.87	-2.78508
2028.12	-3.79951
2028.36	-1.24742
2028.61	0.856895
2028.86	0.302956
2029.1	3.86016
2029.35	2.09726
2029.6	2.85944
2029.84	-0.0462341
2030.09	-2.95704
2030.33	-1.08478
2030.58	2.56002
2030.83	-1.09007
2031.08	-3.82124
2031.32	7.36595
2031.57	-1.02472
2031.81	6.44709
2032.06	-8.45015
2032.31	2.78893
2032.55	-2.772
2032.8	-0.865715
2033.05	5.70763
2033.29	-10.1572
2033.54	-3.58082
2033.79	-3.55812
2034.03	2.9401
2034.28	-1.79057
2034.53	-4.68764
2034.77	-4.71158
2035.02	-3.73302
2035.26	0.971306
2035.51	3.83389
2035.76	-1.69496
2036	-6.31657
2036.25	2.10578
2036.5	2.99002
2036.74	-4.48435
2036.99	0.219528
2037.24	1.15758
2037.48	-0.71344
2037.73	0.215691
2037.97	2.07661
2038.22	3.00034
2038.47	4.85689
2038.71	1.10596
2038.96	10.4353
2039.2	2.01305
2039.45	3.86649
2039.7	-1.75539
2039.94	-3.64684
2040.19	-1.80412
2040.44	10.3012
2040.68	1.88291
2040.93	-9.32587
2041.17	0.916466
2041.42	3.70695
2041.67	0.906265
2041.91	-0.969238
2042.16	6.47647
2042.4	-1.9292
2042.65	3.65407
2042.9	6.45048
2043.14	1.80194
2043.39	-4.69424
2043.63	1.87144
2043.88	-1.81651
2044.13	-8.32994
2044.37	0.996445
2044.62	-3.68954
2044.87	-5.59568
2045.11	-3.81306
2045.36	5.62147
2045.6	4.72703
2045.85	-4.47192
2046.09	7.84762
2046.34	0.286209
2046.59	1.12276
2046.83	5.71556
2047.08	-0.816399
2047.32	0.0889893
2047.57	8.40205
2047.81	0.919968
2048.06	8.38109
2048.31	0.927788
2048.55	0.933861
2048.8	2.80843
2049.04	-7.42566
2049.29	0.989037
2049.53	-3.64934
2049.78	4.78616
2050.03	-2.65665
2050.27	-0.762444
2050.52	2.98895
2050.76	-4.48109
2051.01	-0.751472
2051.26	8.56738
2051.5	1.99817
2051.75	5.72964
2051.99	10.3987
2052.24	-4.52906
2052.48	3.87873
2052.73	1.08651
2052.98	-0.76796
2053.22	1.11782
2053.47	-2.59758
2053.71	1.18633
2053.96	-2.53835
2054.2	4.01985
2054.45	1.21423
2054.69	-4.40354
2054.94	5.87777
2055.19	3.06149
2055.43	-5.38226
2055.68	4.88861
2055.92	5.81525
2056.17	2.06223
2056.41	-3.56105
2056.66	-3.5711
2056.9	2.0326
2057.15	2.96823
2057.39	2.03736
2057.64	8.59043
2057.88	1.12197
2058.13	0.197487
2058.37	-0.717773
2058.62	7.72145
2058.86	-0.683891
2059.11	5.87938
2059.35	9.62566
2059.6	-3.47973
2059.85	8.68813
2060.09	-0.691444
2060.34	-6.32722
2060.58	-5.40688
2060.83	4.8945
2061.07	1.15976
2061.32	3.97311
2061.56	6.78077
2061.81	-8.20319
2062.05	1.15729
2062.3	7.71325
2062.54	2.09956
2062.79	1.17122
2063.03	-1.62742
2063.28	-0.680412
2063.52	2.13777
2063.77	2.14242
2064.01	3.08173
2064.26	4.95802
2064.51	-4.41156
2064.75	7.78479
2065	2.17556
2065.24	-0.615173
2065.49	9.72765
2065.73	2.23764
2065.97	6.00575
2066.22	6.95181
2066.46	7.88783
2066.71	8.83072
2066.95	8.8353
2067.2	1.32213
2067.44	-3.36997
2067.69	3.21529
2067.93	6.98032
2068.18	-2.41539
2068.42	2.28169
2068.67	-0.531807
2068.91	11.6821
2069.16	3.19751
2069.4	-0.599739
2069.65	1.22678
2069.89	5.89661
2070.14	-6.31242
2070.38	-0.644691
2070.63	1.27608
2070.87	10.7251
2071.12	-5.28227
2071.36	5.96309
2071.61	5.13441
2071.85	-2.36777
2072.1	-4.26828
2072.34	-0.518822
2072.59	7.94231
2072.83	15.4549
2073.08	1.32159
2073.32	-1.51881
2073.56	5.06579
2073.81	-10.9478
2074.05	6.93742
2074.3	7.88032
2074.54	7.88989
2074.79	1.31248
2075.03	-3.37613
2075.28	0.427414
2075.52	-0.474144
2075.77	-1.39388
2076.01	5.22053
2076.25	-0.452682
2076.5	2.37193
2076.74	-7.09055
2076.99	4.20352
2077.23	-2.43765
2077.48	6.93711
2077.72	-0.630821
2077.97	1.25536
2078.21	4.0945
2078.46	10.6952
2078.7	1.25773
2078.94	6.92174
2079.19	0.327805
2079.43	6.02751
2079.68	4.14687
2079.92	5.09658
2080.17	4.1555
2080.41	9.82566
2080.65	4.14362
2080.9	0.339867
2081.14	5.98846
2081.39	-4.42117
2081.63	1.23266
2081.88	9.71845
2082.12	-0.680237
2082.37	5.92789
2082.61	-5.42014
2082.85	2.12766
2083.1	4.94653
2083.34	-1.68697
2083.59	3.96438
2083.83	8.67483
2084.08	8.66148
2084.32	14.3153
2084.56	-0.816971
2084.81	2.95113
2085.05	3.88197
2085.3	5.75671
2085.54	5.74194
2085.78	6.67982
2086.03	-2.76115
2086.27	1.98297
2086.52	3.88235
2086.76	3.87711
2087	5.76644
2087.25	5.76843
2087.49	-0.862152
2087.74	1.01537
2087.98	1.00096
2088.22	-5.6374
2088.47	1.92236
2088.71	-3.76762
2088.96	-6.61918
2089.2	-1.88685
2089.44	-2.83391
2089.69	0.0173645
2089.93	0.956413
2090.18	2.83949
2090.42	0.935326
2090.66	-3.80959
2090.91	12.2928
2091.15	-2.87479
2091.39	3.75286
2091.64	1.86709
2091.88	3.77637
2092.13	-0.00213623
2092.37	0.961464
2092.61	-1.86871
2092.86	6.68603
2093.1	-0.903503
2093.35	-1.84592
2093.59	-2.79014
2093.83	2.91473
2094.08	4.81737
2094.32	7.657
2094.56	0.0321045
2094.81	4.76212
2095.05	-9.52397
2095.3	-4.8061
2095.54	7.51163
2095.78	-0.123878
2096.03	-1.10432
2096.27	0.769402
2096.51	3.59643
2096.76	9.2719
2097	9.23738
2097.24	7.29683
2097.49	7.2564
2097.73	9.12667
2097.97	6.25336
2098.22	-6.1127
2098.46	-2.34891
2098.71	3.32599
2098.95	8.04874
2099.19	4.22613
2099.44	0.405411
2099.68	0.383415
2099.92	5.10921
2100.17	-4.39808
2100.41	-3.46402
2100.65	1.27224
2100.9	6.02394
2101.14	2.22536
2101.39	7.91582
2101.63	-5.39592
2101.87	6.93063
2102.11	2.15835
2102.36	5.9369
2102.6	2.10981
2102.84	-3.62615
2103.09	12.4727
2103.33	-2.74936
2103.58	1.02297
2103.82	-0.902321
2104.06	0.976791
2104.3	7.60987
2104.55	4.75661
2104.79	2.85137
2105.03	-0.954803
2105.28	17.0906
2105.52	5.69346
2105.76	4.74084
2106.01	-0.0218506
2106.25	-1.93517
2106.49	4.70177
2106.74	1.83248
2106.98	1.81986
2107.22	0.848846
2107.47	8.4198
2107.71	5.52399
2107.95	3.5727
2108.2	10.1709
2108.44	2.51966
2108.68	3.42514
2108.92	-0.403732
2109.17	6.22501
2109.41	5.28199
2109.66	-4.22173
2109.9	9.05557
2110.14	5.23269
2110.38	4.25899
2110.63	3.28536
2110.87	-4.33788
2111.11	7.03714
2111.36	6.05543
2111.6	7.91591
2111.84	1.23372
2112.08	-3.54452
2112.33	2.12943
2112.57	4.01603
2112.81	-4.54606
2113.06	8.74133
2113.3	-2.65674
2113.54	0.189606
2113.78	-2.67683
2114.03	2.04369
2114.27	-6.54291
2114.51	-4.6682
2114.76	3.86562
2115	9.54563
2115.24	14.2659
2115.48	10.4299
2115.73	-0.0559158
2115.97	1.81073
2116.21	0.813667
2116.46	-1.13034
2116.7	6.4333
2116.94	1.65459
2117.18	3.52427
2117.43	-1.24395
2117.67	-6.02882
2117.91	-4.17082
2118.15	1.4826
2118.4	-2.3672
2118.64	4.21817
2118.88	3.22032
2119.13	-1.56909
2119.37	0.279953
2119.61	2.12872
2119.85	0.188339
2120.1	5.83314
2120.34	7.69737
2120.58	2.93781
2120.82	1.98244
2121.07	7.65305
2121.31	7.65274
2121.55	4.80893
2121.79	0.0640106
2122.04	-6.58189
2122.28	11.4385
2122.52	0.990219
2122.76	-4.71729
2123.01	10.4558
2123.25	-1.90325
2123.49	7.56701
2123.73	9.42991
2123.98	1.79646
2124.22	-1.09611
2124.46	-1.15082
2124.7	-1.2191
2124.95	0.601173
2125.19	1.47665
2125.43	3.30878
2125.67	1.35525
2125.91	7.9241
2126.16	5.02912
2126.4	-1.64438
2126.64	2.09081
2126.88	-0.796875
2127.13	-5.57246
2127.37	-2.7716
2127.61	4.7598
2127.85	14.1793
2128.09	3.74104
2128.34	1.81701
2128.58	4.62587
2128.82	-4.85424
2129.06	2.67538
2129.31	1.69392
2129.55	-4.01122
2129.79	5.4073
2130.03	4.42903
2130.27	0.614708
2130.52	3.41322
2130.76	-7.96286
2131	4.27775
2131.24	-6.15617
2131.49	5.13286
2131.73	3.20151
2131.97	-5.3341
2132.21	5.01009
2132.45	1.18426
2132.7	5.85598
2132.94	-2.67454
2133.18	2.01492
2133.42	1.04758
2133.66	4.79787
2133.91	9.48882
2134.15	2.86044
2134.39	4.72164
2134.63	9.40916
2134.87	2.77132
2135.11	0.85231
2135.36	-0.125656
2135.6	-0.165344
2135.84	-3.98643
2136.08	-2.16125
2136.32	-2.21935
2136.57	5.28
2136.81	0.544731
2137.05	8.06113
2137.29	3.32139
2137.53	5.1915
2137.77	7.07401
2138.02	-1.45668
2138.26	0.369797
2138.5	-1.56467
2138.74	-3.45451
2138.98	2.2077
2139.23	4.08901
2139.47	3.99408
2139.71	1.10316
2139.95	-1.77077
2140.19	0.0688019
2140.43	-2.79939
2140.68	-2.83923
2140.92	1.83313
2141.16	-4.79712
2141.4	-1.0561
2141.64	6.4223
2141.88	-1.16193
2142.13	-1.1985
2142.37	3.47972
2142.61	4.41621
2142.85	-3.13042
2143.09	-2.12267
2143.33	3.43762
2143.57	1.2304
2143.82	4.06184
2144.06	7.80624
2144.3	5.94034
2144.54	0.305222
2144.78	-3.46745
2145.02	8.65459
2145.27	-7.33759
2145.51	-4.54337
2145.75	2.00195
2145.99	5.72382
2146.23	0.984673
2146.47	-3.75345
2146.71	-0.0316315
2146.96	-3.83145
2147.2	0.82309
2147.44	-2.97897
2147.68	-8.65776
2147.92	-2.12187
2148.16	6.28945
2148.4	-0.327339
2148.64	3.3852
2148.89	1.46031
2149.13	4.22407
2149.37	1.3503
2149.61	8.78282
2149.85	-1.58994
2150.09	1.16533
2150.33	-3.5714
2150.57	-0.798607
2150.82	-4.57796
2151.06	-0.848022
2151.3	-3.67348
2151.54	0.0590668
2151.78	-4.64408
2152.02	2.83794
2152.26	-2.80857
2152.5	0.898048
2152.75	-5.71128
2152.99	-3.88441
2153.23	-9.55389
2153.47	0.718498
2153.71	-4.00813
2153.95	1.56635
2154.19	2.44547
2154.43	0.504181
2154.67	-6.12274
2154.92	2.22695
2155.16	6.827
2155.4	-4.45832
2155.64	2.02457
2155.88	3.8372
2156.12	-3.68655
2156.36	2.8134
2156.6	0.911209
2156.84	-0.989098
2157.08	-0.0827637
2157.32	0.83094
2157.57	10.1611
2157.81	3.61214
2158.05	6.40247
2158.29	-1.10056
2158.53	7.28123
2158.77	-12.3821
2159.01	-1.20512
2159.25	-4.05196
2159.49	-5.96706
2159.73	0.520988
2159.97	-5.1389
2160.21	3.20974
2160.46	3.15572
2160.7	2.17279
2160.94	-5.33232
2161.18	-2.56831
2161.42	4.85622
2161.66	3.8843
2161.9	-0.812675
2162.14	0.0909195
2162.38	2.86104
2162.62	-1.83518
2162.86	4.65423
2163.1	1.81289
2163.34	0.839142
2163.58	-1.0658
2163.83	-0.174538
2164.07	4.44517
2164.31	-2.1358
2164.55	-6.84995
2164.79	-1.30391
2165.03	3.33518
2165.27	6.1101
2165.51	3.28709
2165.75	-4.19477
2165.99	-5.15449
2166.23	4.11974
2166.47	-6.16865
2166.71	1.23848
2166.95	-0.675705
2167.19	1.14333
2167.43	4.81087
2167.67	-8.28179
2167.91	0.0092926
2168.15	-3.78461
2168.4	4.54213
2168.64	-7.5727
2168.88	-8.52395
2169.12	-2.02851
2169.36	-0.173584
2169.6	-0.17012
2169.84	-4.81313
2170.08	6.37025
2170.32	1.70906
2170.56	-1.10595
2170.8	-0.212868
2171.04	1.6004
2171.28	1.55863
2171.52	0.549942
2171.76	3.23798
2172	1.31335
2172.24	-3.38196
2172.48	1.21863
2172.72	8.61044
2172.96	-4.42761
2173.2	6.69178
2173.44	2.01875
2173.68	0.141884
2173.92	0.12764
2174.16	-4.53732
2174.4	4.73328
2174.64	9.35396
2174.88	3.74886
2175.12	2.78912
2175.36	-6.53903
2175.6	-7.50166
2175.84	-5.67448
2176.08	2.65507
2176.32	-3.88675
2176.56	2.57368
2176.8	2.54082
2177.04	0.656517
2177.28	-1.22546
2177.52	4.32207
2177.76	0.578606
2178	-1.30429
2178.24	-5.98994
2178.48	-1.40062
2178.72	0.411049
2178.96	5.0254
2179.2	0.360825
2179.44	-1.5212
2179.68	-0.618393
2179.92	0.283035
2180.16	-0.673019
2180.4	-3.48872
2180.64	-0.737099
2180.88	1.08733
2181.12	0.128967
2181.36	4.73592
2181.6	3.76748
2181.84	5.5866
2182.08	1.84018
2182.32	3.65575
2182.56	-0.0912323
2182.8	3.58073
2183.04	2.60498
2183.28	-1.15772
2183.52	1.56729
2183.76	-1.26123
2184	-3.158
2184.24	3.28902
2184.48	0.479897
2184.72	2.31349
2184.96	6.93202
2185.2	2.28145
2185.44	-5.14867
2185.68	-0.525482
2185.92	7.81346
2186.16	-3.31938
2186.4	6.8798
2186.64	7.81679
2186.88	5.97134
2187.12	-8.87184
2187.35	-5.15348
2187.59	11.5603
2187.83	-7.03828
2188.07	-1.50363
2188.31	-3.40435
2188.55	-4.37882
2188.79	2.99858
2189.03	-2.62134
2189.27	8.45569
2189.51	-0.883179
2189.75	2.77569
2189.99	-0.0438232
2190.23	-2.84999
2190.47	0.835205
2190.71	-1.95598
2190.95	-1.0486
2191.19	-5.70631
2191.43	-6.65044
2191.67	5.39024
2191.9	-0.187302
2192.14	-0.200897
2192.38	3.49478
2192.62	4.41027
2192.86	9.97619
2193.1	-3.0198
2193.34	-2.09584
2193.58	-9.52
2193.82	4.43976
2194.06	6.32808
2194.3	-1.09673
2194.54	0.756844
2194.78	6.29887
2195.01	-3.95955
2195.26	-4.92374
2195.49	3.39934
2195.73	-0.36541
2195.97	7.00938
2196.21	-6.05409
2196.45	1.31681
2196.69	-0.587303
2196.93	-1.55739
2197.17	10.4611
2197.41	5.78433
2197.65	2.98598
2197.88	-0.744446
2198.12	2.96
2198.36	3.89671
2198.6	-0.737099
2198.84	-7.22271
2199.08	3.00957
2199.32	2.09085
2199.56	-4.39635
2199.8	1.19557
2200.04	-3.41672
2200.27	1.27376
2200.52	0.372833
2200.75	3.19133
2200.99	3.2017
2201.23	4.14081
2201.47	4.98315
2201.71	7.62044
2201.95	-1.96695
2202.19	-7.67844
2202.43	5.41206
2202.66	7.45358
2202.9	7.49262
2203.14	3.72164
2203.38	3.67697
2203.62	15.0562
2203.86	1.28022
2204.1	-2.57761
2204.34	7.66686
2204.58	-2.6158
2204.81	-7.37579
2205.05	-3.76297
2205.29	3.57665
2205.53	-4.86304
2205.77	0.68264
2206.01	8.11106
2206.25	0.680901
2206.49	-6.79261
2206.72	-2.18937
2206.96	-3.12835
2207.2	3.37944
2207.44	5.24326
2207.68	-3.12276
2207.92	2.4654
2208.16	2.47169
2208.39	4.33836
2208.63	5.27168
2208.87	-0.31723
2209.11	0.606934
2209.35	1.52631
2209.59	-4.08026
2209.83	5.21245
2210.07	-1.31659
2210.3	-3.18242
2210.54	-4.11507
2210.78	15.453
2211.02	-5.97858
2211.26	-5.97916
2211.5	-4.11302
2211.74	1.49058
2211.97	0.562447
2212.21	-3.16771
2212.45	-6.91299
2212.69	4.25591
2212.93	-5.10021
2213.17	5.13329
2213.4	-5.16454
2213.64	1.33284
2213.88	4.12513
2214.12	-0.528397
2214.36	-2.35439
2214.6	1.39321
2214.83	6.05663
2215.07	1.38305
2215.31	-7.96146
2215.55	1.36376
2215.79	2.28444
2216.03	4.13652
2216.26	1.31828
2216.5	6.90163
2216.74	2.21244
2216.98	1.26044
2217.22	-3.42155
2217.45	3.10435
2217.69	-5.30853
2217.93	-3.45798
2218.17	3.99671
2218.41	-1.6132
2218.65	3.98799
2218.88	-2.54671
2219.12	1.19665
2219.36	-0.665215
2219.6	-3.47296
2219.84	4.94108
2220.08	2.13165
2220.31	3.04656
2220.55	-0.709007
2220.79	3.94559
2221.03	-11.9675
2221.27	5.73994
2221.5	0.0929794
2221.74	9.39322
2221.98	-0.911598
2222.22	1.86411
2222.46	-2.81642
2222.69	5.58366
2222.93	-3.74737
2223.17	-0.00892639
2223.41	1.86732
2223.65	0.950485
2223.88	-0.896179
2224.12	4.73575
2224.36	1.0161
2224.6	0.0960846
2224.84	4.78673
2225.07	-0.814186
2225.31	-0.796654
2225.55	-1.71129
2225.79	3.91835
2226.02	5.80586
2226.26	-0.737999
2226.5	6.76234
2226.74	2.09405
2226.97	2.10339
2227.21	-2.57741
2227.45	1.17461
2227.69	-3.51889
2227.93	-1.65977
2228.16	-3.55516
2228.4	-0.76049
2228.64	0.158905
2228.88	-1.73195
2229.12	5.75147
2229.35	3.86899
2229.59	-9.2436
2229.83	0.154686
2230.06	-0.767075
2230.3	6.7489
2230.54	-2.62215
2230.78	3.02368
2231.02	3.97867
2231.25	-2.57695
2231.49	-0.68074
2231.73	-0.669067
2231.97	9.68258
2232.2	4.05786
2232.44	-3.44937
2232.68	-7.19939
2232.92	5.97974
2233.15	1.28902
2233.39	0.360817
2233.63	0.373146
2233.87	7.90951
2234.1	-4.32549
2234.34	-0.57724
2234.58	-8.12457
2234.82	-0.618675
2235.05	0.289688
2235.29	4.00342
2235.53	-4.48982
2235.77	-6.37314
2236	4.90904
2236.24	6.78928
2236.48	-7.31965
2236.72	2.08331
2236.95	11.494
2237.19	3.98968
2237.43	-1.63461
2237.67	6.87727
2237.9	3.15202
2238.14	-0.582191
2238.38	-8.09842
2238.61	-2.41926
2238.85	-0.503654
2239.09	7.07319
2239.32	11.7854
2239.56	1.38787
2239.8	8.91161
2240.04	0.376694
2240.28	9.77833
2240.51	1.27515
2240.75	-5.25585
2240.99	7.96643
2241.22	3.25076
2241.46	-5.23908
2241.7	14.5815
2241.93	4.20216
2242.17	-3.34139
2242.41	-0.502792
2242.65	12.7242
2242.88	-2.38957
2243.12	4.21
2243.36	1.35242
2243.59	-3.38629
2243.83	0.377541
2244.07	-0.573097
2244.3	3.20354
2244.54	11.7171
2244.78	7.03366
2245.02	6.13744
2245.25	8.063
2245.49	-0.423515
2245.73	2.43134
2245.96	2.45271
2246.2	4.36353
2246.44	1.54071
2246.67	9.11401
2246.91	3.45625
2247.15	-1.26342
2247.39	9.15427
2247.62	2.52885
2247.86	0.629265
2248.1	4.40458
2248.33	11.0186
2248.57	8.16866
2248.81	9.10566
2249.04	10.988
2249.28	6.24999
2249.52	9.11745
2249.75	4.39071
2249.99	9.1153
2250.23	-0.369957
2250.46	9.0651
2250.7	6.19944
2250.94	10.8957
2251.17	5.2002
2251.41	8.01828
2251.65	1.39539
2251.88	9.90995
2252.12	1.4135
2252.36	9.94283
2252.59	1.45467
2252.83	6.22749
2253.07	4.4017
2253.3	5.38513
2253.54	6.36527
2253.78	-7.82556
2254.01	5.46228
2254.25	8.32819
2254.49	3.59915
2254.72	-3.04123
2254.96	4.53123
2255.2	4.53973
2255.43	5.48602
2255.67	9.28384
2255.91	11.1871
2256.14	2.67477
2256.38	3.64439
2256.62	9.35693
2256.85	2.73332
2257.09	13.1936
2257.33	1.82174
2257.56	2.78778
2257.8	0.899414
2258.03	5.65284
2258.27	2.80927
2258.51	1.86823
2258.74	2.83069
2258.98	0.948067
2259.22	4.76487
2259.45	-2.82647
2259.69	7.63732
2259.93	2.89976
2260.16	-1.84077
2260.4	-0.878784
2260.63	5.78924
2260.87	2.00954
2261.11	-3.66159
2261.34	1.11402
2261.58	2.07063
2261.82	-2.67838
2262.05	1.13843
2262.29	-5.51137
2262.52	5.92988
2262.76	2.14869
2263	6.93881
2263.23	-2.55257
2263.47	-3.46848
2263.7	-0.5672
2263.94	-2.42857
2264.18	2.38443
2264.41	6.24149
2264.65	-3.2701
2264.88	3.44069
2265.12	4.42062
2265.36	2.52769
2265.59	-3.1983
2265.83	-5.10668
2266.06	-4.16344
2266.3	2.49754
2266.54	-1.34746
2266.77	0.536079
2267.01	-2.3483
2267.24	2.40622
2267.48	-1.42566
2267.72	4.27907
2267.95	-1.46528
2268.19	1.38206
2268.43	-3.38702
2268.66	4.25089
2268.9	2.36492
2269.13	-3.32986
2269.37	-3.29742
2269.6	-0.399727
2269.84	1.54839
2270.08	-1.2756
2270.31	-7.92992
2270.55	3.55743
2270.78	9.31306
2271.02	-0.218445
2271.25	2.67078
2271.49	-5.91751
2271.73	0.797234
2271.96	4.64481
2272.2	-8.737
2272.43	-5.8611
2272.67	-0.112732
2272.91	1.80997
2273.14	0.862419
2273.38	1.82836
2273.61	-2.94744
2273.85	1.84658
2274.08	-21.1152
2274.32	-5.79354
2274.55	5.70158
2274.79	-0.989418
2275.03	-1.93601
2275.26	7.64812
2275.5	-0.00543213
2275.73	-3.82891
2275.97	-0.932861
2276.2	-2.81808
2276.44	1.04428
2276.68	2.03037
2276.91	-6.5694
2277.15	-7.49706
2277.38	2.1348
2277.62	1.22236
2277.85	0.314217
2278.09	-3.48639
2278.32	8.05532
2278.56	6.14427
2278.79	4.22588
2279.03	-4.41988
2279.27	-0.58551
2279.5	4.18448
2279.74	7.98033
2279.97	13.7053
2280.21	1.20624
2280.44	5.01988
2280.68	-4.5862
2280.91	0.196793
2281.15	0.187439
2281.38	-1.74093
2281.62	-1.7388
2281.86	6.90182
2282.09	0.206329
2282.33	5.98145
2282.56	-2.62091
2282.8	1.24502
2283.03	-9.27769
2283.27	-5.40118
2283.5	-1.5099
2283.74	-4.33884
2283.97	10.1315
2284.21	-3.27644
2284.44	-6.13663
2284.68	6.38906
2284.91	-1.27558
2285.15	7.40679
2285.38	-6.05411
2285.62	-1.24483
2285.85	-4.16341
2286.09	-5.14857
2286.32	3.51244
2286.56	4.48727
2286.79	2.60168
2287.03	4.58356
2287.27	-2.11862
2287.5	-3.06676
2287.73	-3.03936
2287.97	-1.09502
2288.2	3.71252
2288.44	6.58745
2288.68	5.60911
2288.91	2.69665
2289.14	-6.96578
2289.38	1.65995
2289.61	3.53896
2289.85	0.622948
2290.09	10.2238
2290.32	-2.27705
2290.55	6.37759
2290.79	4.46583
2291.02	6.41431
2291.26	4.53062
2291.49	0.719337
2291.73	-6.9539
2291.96	8.46863
2292.2	-1.13464
2292.43	0.818069
2292.67	3.7375
2292.9	11.4713
2293.14	-1.03135
2293.37	-0.0501556
2293.61	-0.0356064
2293.84	-8.70776
2294.08	-2.93291
2294.31	-8.72653
2294.55	-2.96275
2294.78	7.61723
2295.02	3.74966
2295.25	-2.04293
2295.49	8.53482
2295.72	2.74431
2295.95	-3.04389
2296.19	-3.08474
2296.42	3.6235
2296.66	3.6261
2296.89	-3.09483
2297.13	-5.00031
2297.36	-5.93898
2297.6	-1.09806
2297.83	1.83042
2298.07	0.90316
2298.3	-0.0389557
2298.54	1.90792
2298.77	2.90068
2299	-4.78343
2299.24	10.6707
2299.47	10.6932
2299.71	-5.70178
2299.94	2.01839
2300.18	4.90862
2300.41	2.98428
2300.65	0.109337
2300.88	-4.69782
2301.11	14.6191
2301.35	7.87596
2301.58	-3.70033
2301.82	5.95336
2302.05	3.05141
2302.29	4.96931
2302.52	-1.78727
2302.76	-1.78564
2302.99	4.96422
2303.22	0.134621
2303.46	4.95883
2303.69	2.06872
2303.93	4.98033
2304.16	-2.72197
2304.4	2.12028
2304.63	3.09848
2304.87	2.15357
2305.1	1.20688
2305.33	2.18015
2305.57	1.22051
2305.8	6.06207
2306.04	5.11325
2306.27	-2.6107
2306.51	1.25905
2306.74	-0.675194
2306.97	0.288193
2307.21	4.14761
2307.44	-0.701141
2307.68	9.91513
2307.91	4.10814
2308.14	-1.70551
2308.38	-1.70992
2308.61	1.18487
2308.85	2.16175
2309.08	-6.51953
2309.32	4.12988
2309.55	2.23106
2309.78	4.1965
2310.02	6.14748
2310.25	4.21764
2310.48	1.31408
2310.72	3.23905
2310.95	2.25298
2311.19	7.0481
2311.42	-6.57615
2311.66	8.82514
2311.89	0.0894241
2312.12	4.89382
2312.36	1.97456
2312.59	5.81027
2312.82	5.79527
2313.06	-5.78271
2313.29	1.9518
2313.53	7.78856
2313.76	2.02982
2313.99	5.9228
2314.23	11.7538
2314.46	6.9535
2314.7	6.03548
2314.93	8.95985
2315.16	8.96281
2315.4	-7.52739
2315.63	5.01482
2315.86	-4.68333
2316.1	-4.72707
2316.33	2.93335
2316.57	2.90719
2316.8	1.92336
2317.03	3.85065
2317.27	0.954941
2317.5	-5.79974
2317.73	1.95403
2317.97	3.88197
2318.2	3.82722
2318.44	0.912926
2318.67	4.75011
2318.9	1.82753
2319.14	-3.99002
2319.37	-4.9775
2319.6	5.61888
2319.84	2.7105
2320.07	6.56512
2320.3	15.2441
2320.54	3.65751
2320.77	2.6998
2321	3.67509
2321.24	4.65246
2321.47	8.52984
2321.71	4.68684
2321.94	-1.08322
2322.17	7.64009
2322.41	7.65619
2322.64	16.3515
2322.87	13.4359
2323.11	3.76805
2323.34	9.56734
2323.57	3.76299
2323.81	11.4957
2324.04	-1.08533
2324.27	4.69911
2324.51	5.64336
2324.74	11.3954
2324.97	11.343
2325.21	7.4259
2325.44	9.3213
2325.67	22.8028
2325.91	13.1096
2326.14	25.6176
2326.37	21.7148
2326.61	32.2848
2326.84	32.2401
2327.07	35.0878
2327.31	54.3267
2327.54	69.7138
2327.77	105.334
2328.01	154.462
2328.24	214.225
2328.47	273.972
2328.71	277.801
2328.94	243.967
2329.17	149.464
2329.41	105.082
2329.64	68.4567
2329.87	48.2168
2330.11	26.0629
2330.34	27.9578
2330.57	12.5215
2330.81	26.9408
2331.04	20.1845
2331.27	12.4778
2331.51	8.62894
2331.74	4.78197
2331.97	-0.0410614
2332.2	3.75623
2332.44	5.64722
2332.67	10.4275
2332.9	3.65282
2333.14	6.50762
2333.37	7.43746
2333.6	-2.21872
2333.84	9.29985
2334.07	-5.17206
2334.3	2.48367
2334.53	0.512749
2334.77	12.9825
2335	-1.47215
2335.23	7.15924
2335.47	-1.519
2335.7	6.16164
2335.93	-2.50942
2336.16	9.96375
2336.4	5.12263
2336.63	9.90323
2336.86	-2.6225
2337.1	-3.61008
2337.33	-8.44426
2337.56	5.94865
2337.79	1.10978
2338.03	5.88683
2338.26	-0.869331
2338.49	10.6368
2338.73	2.92416
2338.96	-0.938713
2339.19	3.84536
2339.42	1.89746
2339.66	9.55686
2339.89	-0.0904846
2340.12	7.55604
2340.35	-1.13663
2340.59	0.738159
2340.82	3.56516
2341.05	1.58397
2341.28	-6.16011
2341.52	-9.10243
2341.75	5.2334
2341.98	-1.52596
2342.22	6.09985
2342.45	7.01535
2342.68	-3.56724
2342.91	0.235558
2343.15	-2.66814
2343.38	0.179337
2343.61	3.9798
2343.84	-1.80148
2344.07	3.92635
2344.31	3.90533
2344.54	5.79491
2344.77	0.00867462
2345	-0.988663
2345.24	5.67574
2345.47	0.829979
2345.7	3.64597
2345.93	4.5524
2346.17	-0.284279
2346.4	0.636414
2346.63	0.599243
2346.86	-3.26919
2347.1	-1.39577
2347.33	0.481056
2347.56	-3.38021
2347.79	2.33721
2348.03	4.2304
2348.26	3.25358
2348.49	3.22631
2348.72	-3.5159
2348.96	-5.47892
2349.19	-5.54308
2349.42	-2.75588
2349.65	2.89644
2349.88	1.84039
2350.12	5.54877
2350.35	11.1223
2350.58	0.392334
2350.81	-1.63214
2351.04	5.31668
2351.28	7.51543
2351.51	7.42941
2351.74	-1.43878
2351.97	-3.44534
2352.21	1.31203
2352.44	-1.60968
2352.67	4.93747
2352.9	2.89015
2353.14	7.5781
2353.37	6.61166
2353.6	-2.02044
2353.83	4.59495
2354.06	-4.01479
2354.3	-0.237366
2354.53	8.33784
2354.76	4.49425
2354.99	-7.93864
2355.22	-1.31851
2355.45	0.536095
2355.69	-0.469475
2355.92	-2.4315
2356.15	1.31069
2356.38	1.21678
2356.62	2.07143
2356.85	1.99751
2357.08	10.4918
2357.31	-1.93374
2357.54	-2.94537
2357.77	-3.00494
2358.01	-4.01601
2358.24	-2.16269
2358.47	-2.23052
2358.7	-1.34113
2358.93	-0.446434
2359.17	2.35273
2359.4	-2.45248
2359.63	3.18351
2359.86	-1.6342
