#Acq. time (s)=	30
#Accumulations=	2
#Range (cm-¹)=	1200...2400
#Windows=	4
#Auto scanning=	Off
#Autofocus=	Off
#Macrospot=	Off
#AutoExposure=	Off
#Spike filter=	Multiple accum.
#Delay time (s)=	2
#Binning=	1
#Readout mode=	Signal
#DeNoise=	Off
#ICS correction=	On
#Dark correction=	Off
#Inst. Process=	Off
#Detector Gain=	Best Dynamic
#Detector ADC=	50 kHz HS
#Detector temperature (°C)=	-60.09
#Instrument=	LabRAM HR Evol
#Detector=	SIN-EM FIVIS
#Objective=	x100_VIS
#Grating=	1800 (450-850nm)
#ND Filter=	100%
#Laser=	532nm_Edge
#Hole=	49.98
#Temperature=	0
#Range=	Visible
#StageXY=	75x50mm Scan+
#StageZ=	Z motor
#X (µm)=	0
#Y (µm)=	0
#Z (µm)=	-274.1
#Full time(mm:ss)=	4:21
#Project=	21_11_04
#Sample=	BU19w
#Site=	
#Title=	BU19w-E-FF11b-FI07-V_1800 (450-850nm)_532nm_Edge_100%_x100_VIS_H50um_30sX2
#Remark=	
#Date=	04.11.2021 17:55
#Acquired=	04.11.2021 17:55:30
#Base:Fit=	16.12.2021 17:39:50
#Base:Fit=	16.12.2021 17:47:37
#Base:Sub=	16.12.2021 17:47:38
1200.19	2.54496
1200.46	0.324282
1200.74	1.32939
1201.02	1.25268
1201.3	3.32944
1201.57	-1.04072
1201.85	2.12378
1202.13	-0.0693436
1202.41	2.06158
1202.69	-0.167896
1202.96	-0.23333
1203.24	0.764824
1203.52	2.85566
1203.8	2.78646
1204.08	1.66447
1204.35	2.68189
1204.63	0.471104
1204.91	-0.666824
1205.19	0.3447
1205.47	-2.93909
1205.74	-1.92747
1206.02	0.155964
1206.3	4.38148
1206.58	-2.10954
1206.85	2.11689
1207.13	2.0605
1207.41	0.934391
1207.69	0.881041
1207.97	-3.45403
1208.24	0.770592
1208.52	-0.353121
1208.8	-0.405817
1209.08	-2.59356
1209.36	-0.504028
1209.63	-0.553694
1209.91	0.462753
1210.19	0.40765
1210.46	0.354235
1210.74	0.30192
1211.02	1.31678
1211.3	3.39851
1211.57	1.21231
1211.85	-0.970621
1212.13	-1.01962
1212.41	-0.00289154
1212.69	-1.1157
1212.96	-2.22586
1213.24	1.98826
1213.52	5.13849
1213.79	-3.41817
1214.07	-4.5227
1214.35	-1.3686
1214.63	-0.343939
1214.9	-2.5132
1215.18	-0.423931
1215.46	1.66288
1215.74	1.61808
1216.01	-2.68306
1216.29	-0.601814
1216.57	-1.70885
1216.85	0.373854
1217.12	0.331347
1217.4	1.35181
1217.68	2.37294
1217.95	-1.91318
1218.23	1.23254
1218.51	1.19629
1218.79	0.0993977
1219.06	0.0638943
1219.34	2.14832
1219.62	2.11284
1219.89	-0.0408325
1220.17	-3.25555
1220.45	0.953976
1220.73	0.918873
1221	1.94425
1221.28	-0.211794
1221.56	-1.30915
1221.84	0.770502
1222.11	0.729843
1222.39	0.688835
1222.67	-2.5232
1222.94	1.66723
1223.22	-0.482861
1223.5	0.537125
1223.77	-1.60989
1224.05	4.69385
1224.33	1.49442
1224.61	-3.8122
1224.88	2.49484
1225.16	3.52872
1225.44	2.44963
1225.71	-0.741911
1225.99	2.39874
1226.27	2.37106
1226.54	5.50832
1226.82	3.3654
1227.1	3.32343
1227.37	2.22428
1227.65	3.23948
1227.93	1.09333
1228.21	-0.0017395
1228.48	3.11713
1228.76	-2.13971
1229.03	4.21256
1229.31	-1.06171
1229.59	4.16721
1229.86	5.18049
1230.14	0.942516
1230.42	3.02508
1230.69	5.07568
1230.97	-0.226326
1231.25	0.806898
1231.52	-0.26384
1231.8	3.91811
1232.08	3.89723
1232.35	3.87764
1232.63	2.80658
1232.91	2.78666
1233.18	-2.48328
1233.46	0.652237
1233.74	1.6877
1234.01	-1.47875
1234.29	2.7119
1234.57	0.59635
1234.84	1.63311
1235.12	2.67107
1235.4	1.60678
1235.67	2.64384
1235.95	0.523985
1236.23	3.65924
1236.5	-3.7173
1236.78	0.465618
1237.06	-1.65775
1237.33	-0.629587
1237.61	0.39831
1237.88	0.375927
1238.16	1.40332
1238.44	3.48196
1238.71	-0.729147
1238.99	1.35202
1239.27	2.38558
1239.54	1.32382
1239.82	-3.92974
1240.1	-1.845
1240.37	3.38546
1240.65	0.230795
1240.92	-1.87667
1241.2	-1.89132
1241.48	-1.90569
1241.75	2.27373
1242.03	3.31347
1242.3	3.3043
1242.58	0.155735
1242.86	1.19566
1243.13	-3.00813
1243.41	-1.96797
1243.68	-1.97555
1243.96	-1.98591
1244.24	3.24525
1244.51	0.0892029
1244.79	-0.973343
1245.06	-0.98694
1245.34	1.09029
1245.62	4.21636
1245.89	-3.12046
1246.17	2.10422
1246.44	2.0981
1246.72	-1.05031
1247	1.03417
1247.27	-4.20556
1247.55	4.15533
1247.82	-1.09168
1248.1	2.03771
1248.38	-3.19767
1248.65	-0.0637817
1248.93	-0.0683918
1249.2	-4.2593
1249.48	0.964825
1249.75	-0.0870209
1250.03	-0.0979233
1250.31	3.02748
1250.58	-1.16293
1250.86	-3.26117
1251.13	2.99945
1251.41	-2.23183
1251.69	-1.19524
1251.96	-1.20305
1252.24	0.877024
1252.51	1.91239
1252.79	0.861677
1253.06	-2.27323
1253.34	1.89961
1253.61	5.03263
1253.89	1.90397
1254.17	5.03823
1254.44	1.9049
1254.72	2.94789
1254.99	1.90296
1255.27	0.856371
1255.54	-2.27821
1255.82	-0.189863
1256.09	3.98904
1256.37	2.94633
1256.65	2.94552
1256.92	2.94207
1257.2	5.02676
1257.47	0.846874
1257.75	6.06513
1258.02	1.88608
1258.3	1.88111
1258.57	6.05193
1258.85	3.96603
1259.13	9.18752
1259.4	6.06726
1259.67	9.20263
1259.95	5.01954
1260.23	7.09851
1260.5	6.04645
1260.78	6.04115
1261.05	9.16742
1261.33	8.14141
1261.6	14.4427
1261.88	12.4113
1262.15	19.7019
1262.43	15.4683
1262.7	19.5929
1262.98	24.8306
1263.25	29.0509
1263.53	22.8227
1263.8	23.926
1264.08	20.7754
1264.35	14.4858
1264.63	19.7097
1264.9	7.17212
1265.18	8.21301
1265.45	4.03386
1265.73	6.12747
1266	2.99859
1266.28	4.05123
1266.55	5.10566
1266.83	5.11626
1267.1	8.26569
1267.38	5.14021
1267.66	4.10752
1267.93	6.21984
1268.2	0.994261
1268.48	1.00268
1268.75	3.10617
1269.03	4.16113
1269.31	4.16056
1269.58	5.20549
1269.85	3.10736
1270.13	4.15363
1270.4	3.10527
1270.68	8.33917
1270.95	7.29542
1271.23	4.15878
1271.5	6.26113
1271.78	4.18056
1272.05	3.14763
1272.33	3.16252
1272.6	3.17457
1272.88	5.28333
1273.15	8.44155
1273.43	6.35853
1273.7	4.27371
1273.98	2.18507
1274.25	3.24027
1274.53	6.39237
1274.8	7.44881
1275.07	7.4592
1275.35	3.27368
1275.62	4.3349
1275.9	5.39719
1276.17	4.35918
1276.45	4.37059
1276.72	-0.868994
1277	10.6992
1277.27	9.66364
1277.54	6.52479
1277.82	9.69123
1278.1	6.55166
1278.37	10.7726
1278.64	9.7339
1278.92	13.9514
1279.19	19.216
1279.47	13.96
1279.74	20.2744
1280.02	22.3861
1280.29	35.0188
1280.56	32.9319
1280.84	47.6883
1281.11	77.1852
1281.39	94.0397
1281.66	139.314
1281.94	199.352
1282.21	264.633
1282.49	340.349
1282.76	417.915
1283.03	464.91
1283.31	487.981
1283.58	436.402
1283.86	329.877
1284.13	211.184
1284.41	146.955
1284.68	96.3464
1284.95	66.8141
1285.23	47.8543
1285.5	34.1858
1285.78	27.8859
1286.05	22.6206
1286.32	20.5204
1286.6	15.264
1286.87	12.111
1287.15	12.1139
1287.42	11.0649
1287.69	11.0719
1287.97	8.97692
1288.24	8.98705
1288.52	10.0524
1288.79	9.01467
1289.06	7.97689
1289.34	3.77989
1289.61	3.79525
1289.89	5.91529
1290.16	6.97522
1290.43	5.92877
1290.71	6.99077
1290.98	2.78729
1291.26	2.79669
1291.53	3.85817
1291.8	0.709827
1292.08	4.93437
1292.35	7.0466
1292.62	3.89622
1292.9	6.01541
1293.17	2.87775
1293.45	5.00578
1293.72	7.13726
1293.99	3.98176
1294.27	3.99288
1294.54	-0.217506
1294.82	4.01967
1295.09	6.15322
1295.36	4.06899
1295.64	1.98522
1295.91	-0.112196
1296.18	0.955963
1296.46	3.08042
1296.73	4.14356
1297.01	-0.0774841
1297.28	3.09738
1297.55	-0.0667648
1297.83	2.05145
1298.1	1.00973
1298.37	5.24047
1298.65	3.13501
1298.92	3.14213
1299.19	3.14953
1299.47	-2.11613
1299.74	4.23296
1300.02	0.0220966
1300.29	0.0328255
1300.56	-2.0692
1300.84	2.16474
1301.11	-0.989866
1301.38	1.13702
1301.65	1.15098
1301.93	2.21965
1302.2	0.118273
1302.47	0.128437
1302.75	5.41863
1303.02	4.36973
1303.29	-3.01429
1303.57	1.22027
1303.84	-0.880238
1304.12	-1.92514
1304.39	2.30833
1304.66	-1.90709
1304.94	3.37771
1305.21	2.32774
1305.48	3.3882
1305.75	1.28384
1306.03	0.23667
1306.3	-0.807987
1306.57	1.31331
1306.85	3.43559
1307.12	-0.771849
1307.39	5.56733
1307.67	0.305716
1307.94	-7.06639
1308.21	2.4372
1308.49	0.341427
1308.76	0.356073
1309.03	3.53616
1309.31	2.49569
1309.58	1.45271
1309.85	-1.70307
1310.13	1.47335
1310.4	2.54046
1310.67	1.4978
1310.94	2.56572
1311.22	-0.588055
1311.49	0.481794
1311.76	2.6086
1312.04	-3.71251
1312.31	0.5236
1312.58	-1.57937
1312.85	-0.514719
1313.13	0.551796
1313.4	0.56101
1313.67	1.62685
1313.95	0.583328
1314.22	1.65223
1314.49	2.72205
1314.76	-1.48689
1315.04	-0.416832
1315.31	-3.57095
1315.58	-2.50185
1315.86	-0.379179
1316.13	2.79943
1316.4	1.75393
1316.67	-2.45917
1316.95	-2.44672
1317.22	-4.54515
1317.49	1.80587
1317.77	0.762335
1318.04	0.774591
1318.31	-0.27002
1318.58	-0.258636
1318.86	1.86499
1319.13	-2.34999
1319.4	0.830765
1319.67	-0.213041
1319.95	1.91105
1320.22	-2.30494
1320.49	0.871634
1320.76	-1.2342
1321.04	1.93789
1321.31	1.94334
1321.58	-1.21578
1321.85	0.900883
1322.13	-0.145447
1322.4	-1.19151
1322.67	-1.18382
1322.94	1.98952
1323.22	2.003
1323.49	-4.3114
1323.76	-2.19115
1324.03	-1.1253
1324.31	4.15788
1324.58	-3.21089
1324.85	-0.0374393
1325.12	-0.0332966
1325.4	3.12844
1325.67	3.12289
1325.94	-1.08775
1326.21	-0.0289097
1326.48	1.03592
1326.76	0.00697517
1327.03	4.24206
1327.3	1.10161
1327.57	2.17534
1327.85	-3.07582
1328.12	1.16136
1328.39	4.3442
1328.66	1.18821
1328.93	1.20046
1329.21	3.32253
1329.48	3.33247
1329.75	-0.878191
1330.02	-0.869976
1330.3	0.191732
1330.57	3.36015
1330.84	2.30959
1331.11	3.36406
1331.38	0.206114
1331.66	1.26366
1331.93	0.21607
1332.2	-1.88372
1332.47	1.27562
1332.74	2.33053
1333.01	1.28312
1333.29	2.3385
1333.56	0.242079
1333.83	0.247458
1334.1	1.3029
1334.37	-0.790438
1334.65	1.31554
1334.92	-0.77615
1335.19	-2.86685
1335.46	-2.85891
1335.73	-1.80214
1336.01	-0.745245
1336.28	0.311489
1336.55	0.320286
1336.82	2.42586
1337.09	0.338694
1337.37	0.34692
1337.64	1.39869
1337.91	-0.689093
1338.18	3.50847
1338.45	1.42056
1338.72	-0.664057
1339	1.44086
1339.27	2.50039
1339.54	-1.6764
1339.81	1.47622
1340.08	-0.606251
1340.35	1.49952
1340.63	-0.585052
1340.9	0.471945
1341.17	-0.566145
1341.44	-0.557983
1341.71	2.58947
1341.98	-0.544933
1342.26	0.506447
1342.53	-0.533903
1342.8	2.61261
1343.07	2.62185
1343.34	3.67787
1343.61	3.68852
1343.88	0.562065
1344.16	3.70971
1344.43	-2.55699
1344.7	2.67774
1344.97	-1.49866
1345.24	-0.449213
1345.51	-0.443998
1345.79	1.64696
1346.06	1.64702
1346.33	0.607561
1346.6	0.611526
1346.87	2.70119
1347.14	-1.46445
1347.41	1.67015
1347.68	1.67804
1347.95	-0.397808
1348.23	0.652655
1348.5	5.86909
1348.77	0.665672
1349.04	-1.41119
1349.31	1.71966
1349.58	1.72593
1349.86	0.691196
1350.13	0.697042
1350.4	-0.338545
1350.67	3.82839
1350.94	2.79361
1351.21	-1.3602
1351.48	1.76838
1351.75	3.859
1352.02	4.91286
1352.3	3.88914
1352.57	1.82364
1352.84	0.802254
1353.11	2.91634
1353.38	1.88853
1353.65	2.91298
1353.92	3.93083
1354.19	4.96647
1354.46	7.05771
1354.73	0.831106
1355.01	1.87063
1355.28	4.99778
1355.55	5.01995
1355.82	3.98464
1356.09	-0.163679
1356.36	1.92154
1356.63	4.0066
1356.9	6.09059
1357.17	5.05824
1357.44	7.1401
1357.71	0.917156
1357.99	2.9985
1358.26	4.04202
1358.53	4.04602
1358.8	4.05157
1359.07	-0.0902843
1359.34	6.13835
1359.61	3.02924
1359.88	6.14137
1360.15	3.0354
1360.42	5.11356
1360.69	3.0501
1360.96	2.0237
1361.23	4.10337
1361.5	2.03984
1361.78	5.15273
1362.05	3.08886
1362.32	7.23752
1362.59	5.17613
1362.86	9.32995
1363.13	6.23785
1363.4	8.32128
1363.67	5.226
1363.94	8.34111
1364.21	6.27661
1364.48	6.28237
1364.75	2.14446
1365.02	8.35966
1365.29	2.1523
1365.56	5.26061
1365.83	8.36742
1366.11	7.33514
1366.38	5.26781
1366.65	5.26903
1366.92	3.2083
1367.19	4.24971
1367.46	6.32955
1367.73	5.30634
1368	10.4855
1368.27	9.46239
1368.54	17.7441
1368.81	32.2314
1369.08	27.071
1369.35	16.7352
1369.62	13.6387
1369.89	3.30656
1370.16	9.50986
1370.43	9.51454
1370.7	7.4509
1370.97	8.48399
1371.24	6.41796
1371.51	7.44814
1371.78	4.35216
1372.05	8.47775
1372.32	8.47983
1372.59	6.42239
1372.86	7.45815
1373.13	9.5245
1373.4	7.46928
1373.67	9.53622
1373.94	9.54262
1374.21	11.6094
1374.48	7.49423
1374.75	8.53091
1375.02	11.6318
1375.29	12.6723
1375.56	10.6207
1375.83	10.6269
1376.1	10.6276
1376.37	11.6571
1376.64	10.624
1376.91	9.59711
1377.18	13.7271
1377.45	15.8046
1377.72	15.8279
1377.99	15.8552
1378.26	18.9701
1378.53	13.8265
1378.8	17.9557
1379.07	12.8047
1379.34	14.8688
1379.61	15.898
1379.88	14.8538
1380.15	17.9269
1380.42	16.8878
1380.69	18.9497
1380.96	24.0996
1381.23	25.1204
1381.5	25.1065
1381.77	25.0934
1382.04	23.0306
1382.31	28.1534
1382.58	27.1198
1382.85	30.1903
1383.12	33.2631
1383.39	37.3618
1383.66	36.3411
1383.93	42.5027
1384.2	54.8234
1384.47	65.1011
1384.74	88.7375
1385.01	100.069
1385.28	141.173
1385.55	204.861
1385.82	308.634
1386.09	467.895
1386.36	730.891
1386.62	1041.03
1386.89	1144.07
1387.16	920.799
1387.43	578.994
1387.7	327.662
1387.97	206.353
1388.24	124.646
1388.51	91.9731
1388.78	60.173
1389.05	54.0376
1389.32	45.8258
1389.59	33.4851
1389.86	28.315
1390.13	26.2802
1390.4	23.1923
1390.67	19.0895
1390.94	22.1704
1391.21	19.0965
1391.47	14.9961
1391.74	20.1153
1392.01	12.9466
1392.28	16.0201
1392.55	16.0226
1392.82	7.83701
1393.09	12.9587
1393.36	9.89258
1393.63	12.9672
1393.9	16.0418
1394.17	5.81437
1394.44	10.9365
1394.71	11.9724
1394.97	10.96
1395.24	10.9701
1395.51	6.88256
1395.78	8.93497
1396.05	10.9859
1396.32	7.91858
1396.59	6.89852
1396.86	3.83056
1397.13	13.0395
1397.4	9.97561
1397.66	6.91425
1397.93	5.90012
1398.2	11.0245
1398.47	7.9636
1398.74	6.94924
1399.01	6.95981
1399.28	5.94547
1399.55	10.0475
1399.82	8.00785
1400.09	2.90045
1400.35	4.9593
1400.62	8.03925
1400.89	8.04595
1401.16	9.07855
1401.43	4.99109
1401.7	7.0568
1401.97	5.02772
1402.24	5.04722
1402.5	8.14167
1402.77	13.2876
1403.04	8.16387
1403.31	9.19485
1403.58	9.19107
1403.85	15.3447
1404.12	7.14499
1404.39	7.14851
1404.65	11.254
1404.92	12.2802
1405.19	15.3567
1405.46	17.4073
1405.73	16.3833
1406	16.3858
1406.27	19.4656
1406.54	24.5988
1406.8	22.558
1407.07	25.6426
1407.34	32.8279
1407.61	45.1405
1407.88	47.2009
1408.15	49.2619
1408.42	50.299
1408.68	48.2598
1408.95	42.1171
1409.22	34.9468
1409.49	33.9295
1409.76	17.5191
1410.03	14.4401
1410.29	14.436
1410.56	11.3576
1410.83	7.2581
1411.1	5.21045
1411.37	11.3604
1411.64	7.26901
1411.9	10.3536
1412.17	4.21914
1412.44	6.29809
1412.71	4.27641
1412.98	7.36637
1413.25	2.20879
1413.51	4.25165
1413.78	3.24144
1414.05	3.26178
1414.32	4.29777
1414.59	5.32968
1414.86	2.25558
1415.12	2.2611
1415.39	8.42813
1415.66	5.35532
1415.93	4.33606
1416.2	0.23547
1416.47	6.40591
1416.73	3.3323
1417	5.39513
1417.27	3.34753
1417.54	5.40876
1417.81	4.38683
1418.07	2.33837
1418.34	3.37137
1418.61	4.40539
1418.88	4.40984
1419.15	2.35662
1419.41	4.41223
1419.68	2.35872
1419.95	-0.721075
1420.22	12.6281
1420.49	4.41426
1420.75	5.44192
1421.02	4.41978
1421.29	0.321468
1421.56	4.44095
1421.83	3.42476
1422.09	7.5496
1422.36	5.51331
1422.63	6.57307
1422.9	5.5649
1423.17	2.38399
1423.43	5.47527
1423.7	4.44105
1423.97	2.37511
1424.24	4.44457
1424.5	5.46971
1424.77	3.45631
1425.04	4.46605
1425.31	1.40755
1425.58	2.43856
1425.84	-1.66132
1426.11	3.46701
1426.38	0.390326
1426.65	1.41462
1426.91	2.43825
1427.18	3.45723
1427.45	4.48092
1427.72	3.45879
1427.98	3.46283
1428.25	0.396606
1428.52	4.49847
1428.79	1.43294
1429.06	0.415894
1429.32	2.47248
1429.59	0.432804
1429.86	4.54238
1430.12	1.47561
1430.39	2.51312
1430.66	-0.550508
1430.93	0.48517
1431.2	-0.534636
1431.46	1.52147
1431.73	3.57334
1432	2.54694
1432.26	3.57443
1432.53	2.5451
1432.8	7.66665
1433.07	2.53688
1433.33	1.5096
1433.6	1.51031
1433.87	1.51475
1434.14	1.53084
1434.4	-0.513121
1434.67	3.59069
1434.94	-0.504051
1435.21	2.57377
1435.47	1.5523
1435.74	3.60444
1436.01	1.55804
1436.28	3.6092
1436.54	4.63571
1436.81	3.61401
1437.08	2.59324
1437.34	5.66742
1437.61	0.550663
1437.88	2.60511
1438.15	0.563372
1438.41	-0.455629
1438.68	3.64715
1438.95	0.579437
1439.21	2.63652
1439.48	0.595669
1439.75	1.62936
1440.01	3.68621
1440.28	4.71669
1440.55	-2.45684
1440.82	-1.4272
1441.08	2.67652
1441.35	1.65238
1441.62	1.6568
1441.88	1.66352
1442.15	1.66934
1442.42	1.67493
1442.69	2.7015
1442.95	4.75271
1443.22	2.70336
1443.49	-0.369699
1443.75	1.68432
1444.02	1.69114
1444.29	4.77706
1444.55	-0.341742
1444.82	0.691048
1445.09	3.77105
1445.35	-0.330475
1445.62	0.697596
1445.89	0.699884
1446.15	4.80473
1446.42	0.704596
1446.69	-0.318714
1446.95	-2.36766
1447.22	-0.315336
1447.49	0.712294
1447.76	0.717199
1448.02	0.724781
1448.29	1.75718
1448.56	3.81294
1448.82	0.738861
1449.09	2.79171
1449.35	0.741621
1449.62	0.742077
1449.89	1.76837
1450.15	2.7954
1450.42	-1.30239
1450.69	1.77447
1450.96	0.75149
1451.22	1.77788
1451.49	-0.269527
1451.75	-1.29169
1452.02	3.83414
1452.29	-2.30908
1452.55	2.81885
1452.82	-0.249491
1453.09	-0.244785
1453.35	1.80785
1453.62	0.78524
1453.89	3.8623
1454.15	-1.25773
1454.42	0.795099
1454.68	1.82228
1454.95	0.800051
1455.22	0.805475
1455.48	3.88639
1455.75	-0.208719
1456.02	0.819155
1456.28	0.820282
1456.55	3.89417
1456.82	1.84595
1457.08	-1.22541
1457.35	2.87446
1457.61	-0.195656
1457.88	0.832224
1458.15	0.836349
1458.41	0.840794
1458.68	-2.22879
1458.95	0.848923
1459.21	1.87676
1459.48	-0.170017
1459.74	1.88104
1460.01	-3.23916
1460.28	-1.18856
1460.54	-1.18732
1460.81	1.88601
1461.08	0.862732
1461.34	0.863064
1461.61	0.863089
1461.87	-2.20757
1462.14	-0.161139
1462.41	-0.161869
1462.67	-3.23114
1462.94	-0.163908
1463.2	0.858356
1463.47	-0.159487
1463.74	-1.17125
1464	1.90856
1464.27	2.94233
1464.53	1.93288
1464.8	0.87718
1465.07	-3.22852
1465.33	1.86711
1465.6	2.89566
1465.86	-1.18008
1466.13	0.859156
1466.39	1.87364
1466.66	-2.20186
1466.93	-0.1584
1467.19	0.863537
1467.46	0.865328
1467.72	-0.152205
1467.99	-0.149431
1468.26	-0.146868
1468.52	2.91467
1468.79	-1.16395
1469.05	1.89609
1469.32	-1.16393
1469.58	-1.16475
1469.85	0.873676
1470.12	-0.144613
1470.38	1.89406
1470.65	1.89611
1470.91	-0.142054
1471.18	-0.142338
1471.44	-2.17799
1471.71	-1.15759
1471.97	-0.136932
1472.24	-0.134449
1472.51	-2.16848
1472.77	-2.16712
1473.04	-3.1848
1473.3	-0.13048
1473.57	-3.18263
1473.83	1.90773
1474.1	-0.124275
1474.36	1.91643
1474.63	1.91997
1474.9	0.905104
1475.16	-2.14632
1475.43	0.907806
1475.69	-2.14464
1475.96	2.94438
1476.22	-1.12422
1476.49	-1.12456
1476.75	-0.107149
1477.02	1.92875
1477.29	1.93102
1477.55	0.91634
1477.81	-0.100573
1478.08	-0.101152
1478.34	1.932
1478.61	2.94805
1478.88	-0.101124
1479.14	-3.14955
1479.41	0.91287
1479.67	1.92631
1479.94	-2.138
1480.2	-0.109547
1480.47	-1.1243
1480.73	1.92026
1481	-1.12212
1481.26	-2.13202
1481.53	0.917681
1481.79	-0.0910053
1482.06	1.9454
1482.32	-0.08041
1482.59	-2.10762
1482.85	-1.08787
1483.12	1.96199
1483.38	0.94906
1483.65	-1.08188
1483.92	-2.10157
1484.18	1.94617
1484.44	2.93877
1484.71	2.9201
1484.97	-0.123884
1485.24	0.896749
1485.5	2.95517
1485.77	-1.08931
1486.03	1.95071
1486.3	-1.09481
1486.56	-1.08568
1486.83	-0.0699654
1487.09	2.96693
1487.36	0.939886
1487.62	-1.08555
1487.89	-1.08594
1488.15	3.97425
1488.42	2.96002
1488.68	-2.10007
1488.95	0.936342
1489.21	-1.08597
1489.48	0.939226
1489.74	0.941732
1490.01	-1.07986
1490.27	-1.07976
1490.54	2.96454
1490.8	-0.0694523
1491.07	2.96487
1491.33	-2.08818
1491.6	1.95879
1491.86	0.950626
1492.12	1.96342
1492.39	-2.07874
1492.65	0.956387
1492.92	0.958385
1493.18	-2.07271
1493.45	-1.05964
1493.71	1.97603
1493.98	2.99111
1494.24	2.99452
1494.51	-4.08092
1494.77	-0.0383873
1495.04	-2.0623
1495.3	-2.06502
1495.56	0.96307
1495.83	-1.05673
1496.09	-0.0468006
1496.36	-1.05612
1496.62	0.963598
1496.89	-2.06178
1497.15	0.967978
1497.42	-0.0395584
1497.68	-0.0372295
1497.94	-2.05291
1498.21	-1.04075
1498.47	-1.03764
1498.74	0.984324
1499	0.988213
1499.27	-0.017065
1499.53	-0.0133686
1499.8	-2.02969
1500.06	2.01074
1500.32	-2.02549
1500.59	1.00479
1500.85	-2.0238
1501.12	-0.00506401
1501.38	-1.01256
1501.64	1.00765
1501.91	-1.0089
1502.17	-2.01774
1502.44	1.00731
1502.7	-2.01847
1502.97	-2.01867
1503.23	-0.00147629
1503.5	4.03526
1503.76	1.01409
1504.02	-0.999716
1504.29	1.01949
1504.55	2.02908
1504.81	2.02923
1505.08	-2.00404
1505.34	-2.00749
1505.61	3.02901
1505.87	1.01559
1506.13	1.01739
1506.4	-2.00046
1506.66	-0.989067
1506.93	-0.985832
1507.19	1.03254
1507.46	3.04969
1507.72	-0.979862
1507.98	0.0297661
1508.25	-0.974852
1508.51	-0.971899
1508.77	-1.97706
1509.04	0.0402641
1509.3	0.0430431
1509.57	1.05636
1509.83	-0.958233
1510.09	0.0487766
1510.36	-0.95985
1510.62	3.06712
1510.89	0.0427933
1511.15	0.0371456
1511.41	1.03589
1511.68	-0.981394
1511.94	1.02228
1512.21	-0.990494
1512.47	-0.992157
1512.73	0.0106525
1513	-0.993841
1513.26	2.01977
1513.52	1.02563
1513.79	0.0289631
1514.05	-2.98234
1514.31	2.03991
1514.58	2.03689
1514.84	0.0269985
1515.1	-1.98269
1515.37	2.02814
1515.63	-1.98715
1515.9	-0.984224
1516.16	0.0195217
1516.42	2.02588
1516.69	0.0219383
1516.95	-0.978476
1517.21	2.03238
1517.48	1.03429
1517.74	0.0364571
1518	0.0397854
1518.27	1.04642
1518.53	1.05007
1518.79	1.05402
1519.06	0.0544243
1519.32	0.0572529
1519.58	0.0588512
1519.85	1.06291
1520.11	6.08047
1520.37	-3.94759
1520.64	-2.94058
1520.9	2.07978
1521.16	1.07896
1521.43	1.08029
1521.69	1.08088
1521.95	0.0780258
1522.22	-0.92462
1522.48	-0.924276
1522.75	-0.925362
1523.01	1.0763
1523.27	3.07622
1523.53	0.0682755
1523.8	0.067194
1524.06	-0.934776
1524.32	2.07057
1524.59	0.0718422
1524.85	2.07793
1525.11	-0.922928
1525.38	0.0837555
1525.64	2.09375
1525.9	1.09871
1526.17	-0.900616
1526.43	-1.89988
1526.69	0.106148
1526.95	0.106518
1527.22	0.107647
1527.48	2.1127
1527.74	-1.89465
1528.01	0.109663
1528.27	2.11378
1528.53	4.11803
1528.8	-1.89029
1529.06	-0.88682
1529.32	0.115406
1529.58	0.115656
1529.85	0.118059
1530.11	0.122696
1530.37	0.128639
1530.64	-0.867615
1530.9	2.14263
1531.16	0.140722
1531.42	-0.859394
1531.69	3.15022
1531.95	-0.856026
1532.21	1.15331
1532.48	3.16595
1532.74	-0.835516
1533	3.18289
1533.27	0.178438
1533.53	1.18482
1533.79	-2.82581
1534.05	-3.82743
1534.32	0.185698
1534.58	0.186373
1534.84	0.186769
1535.1	1.18621
1535.37	-1.82548
1535.63	1.17811
1535.89	1.17554
1536.15	1.17139
1536.42	0.166239
1536.68	-0.836308
1536.94	2.16411
1537.2	-1.83701
1537.47	2.16513
1537.73	2.16253
1537.99	-1.83837
1538.25	3.16013
1538.52	2.16349
1538.78	2.17311
1539.04	0.186638
1539.31	1.20159
1539.57	1.21256
1539.83	-0.781363
1540.09	0.229729
1540.36	4.24772
1540.62	0.236748
1540.88	4.24444
1541.14	0.23465
1541.41	0.232445
1541.67	0.230474
1541.93	1.23002
1542.19	2.22923
1542.45	2.22719
1542.72	2.22513
1542.98	0.221115
1543.24	1.21741
1543.5	2.21647
1543.77	-0.78067
1544.03	-0.776487
1544.29	2.23147
1544.55	1.23799
1544.81	0.244957
1545.08	1.25444
1545.34	-1.74444
1545.6	-3.74325
1545.86	2.26976
1546.13	-4.74005
1546.39	-3.73499
1546.65	1.27823
1546.91	1.28311
1547.17	-0.718184
1547.44	-0.722462
1547.7	1.27781
1547.96	-2.72576
1548.22	-1.71772
1548.49	2.28738
1548.75	1.26928
1549.01	-1.7413
1549.27	1.26128
1549.53	1.27614
1549.79	4.30749
1550.06	2.33134
1550.32	0.350346
1550.58	1.35978
1550.84	2.3605
1551.1	1.3591
1551.37	-1.65615
1551.63	1.35737
1551.89	-0.639334
1552.15	1.37458
1552.41	0.370756
1552.68	0.363346
1552.94	0.357103
1553.2	1.36069
1553.46	0.357769
1553.72	2.36159
1553.99	1.35583
1554.25	5.35973
1554.51	-1.65673
1554.77	5.35632
1555.03	0.34906
1555.3	3.35698
1555.56	2.35916
1555.82	4.36325
1556.08	2.36051
1556.34	2.3636
1556.6	-0.63797
1556.87	3.3724
1557.13	2.37287
1557.39	-0.631405
1557.65	0.368046
1557.91	1.36701
1558.17	0.363081
1558.43	0.359753
1558.7	-1.64352
1558.96	3.35514
1559.22	0.35393
1559.48	-0.646219
1559.74	4.35172
1560	-0.645103
1560.26	-2.64273
1560.53	3.35496
1560.79	1.35883
1561.05	0.363876
1561.31	1.36944
1561.57	0.377756
1561.83	0.383314
1562.1	2.38581
1562.36	4.38706
1562.62	0.38868
1562.88	0.390984
1563.14	2.39153
1563.4	-0.604521
1563.66	0.404438
1563.93	1.4127
1564.19	1.41635
1564.45	3.41626
1564.71	2.39935
1564.97	0.367468
1565.23	0.331104
1565.49	1.34356
1565.76	0.404011
1566.02	2.41635
1566.28	1.40726
1566.54	2.40637
1566.8	1.42607
1567.06	3.43867
1567.32	3.43206
1567.58	3.42632
1567.84	2.43155
1568.11	0.436464
1568.37	3.4391
1568.63	3.43737
1568.89	-1.56391
1569.15	4.43212
1569.41	0.438023
1569.67	3.43959
1569.93	2.44301
1570.19	2.44545
1570.45	-0.550833
1570.72	3.44792
1570.98	2.4488
1571.24	0.449759
1571.5	2.44794
1571.76	2.44913
1572.02	-0.54759
1572.28	0.450441
1572.54	3.44554
1572.8	0.450134
1573.07	2.44586
1573.33	-1.54546
1573.59	2.45042
1573.85	0.46015
1574.11	2.46358
1574.37	2.47071
1574.63	0.479939
1574.89	-0.512983
1575.15	4.48849
1575.41	1.4928
1575.67	0.495012
1575.94	0.496658
1576.2	-0.503244
1576.46	5.48605
1576.72	0.488218
1576.98	3.47848
1577.24	2.47637
1577.5	0.477894
1577.76	2.46997
1578.02	2.46965
1578.28	4.46513
1578.54	1.47653
1578.8	3.4727
1579.06	0.484686
1579.32	1.48575
1579.58	1.49036
1579.85	4.48543
1580.11	1.49619
1580.37	2.49452
1580.63	1.49731
1580.89	3.49083
1581.15	4.48679
1581.41	1.49507
1581.67	3.48722
1581.93	3.48815
1582.19	2.49284
1582.45	-1.49068
1582.71	3.49138
1582.97	-0.490904
1583.23	0.506489
1583.49	2.49954
1583.75	1.50662
1584.01	2.50652
1584.27	1.51397
1584.53	1.51682
1584.79	0.522554
1585.06	1.52031
1585.32	1.52192
1585.58	0.525761
1585.84	1.51958
1586.1	2.51329
1586.36	0.522047
1586.62	-0.472834
1586.88	2.51298
1587.14	3.50887
1587.4	2.51568
1587.66	0.528833
1587.92	1.52782
1588.18	1.53256
1588.44	0.542149
1588.7	1.54215
1588.96	1.54669
1589.22	2.54607
1589.48	1.55309
1589.74	1.55596
1590	2.55581
1590.26	0.568785
1590.52	3.5596
1590.78	1.56991
1591.04	-1.41583
1591.3	1.57281
1591.56	2.56827
1591.82	1.57017
1592.08	0.572039
1592.34	2.56113
1592.6	3.55364
1592.86	2.55417
1593.12	4.53632
1593.38	3.53752
1593.64	2.54213
1593.9	5.52249
1594.16	3.53914
1594.42	1.55789
1594.68	6.53141
1594.94	2.5621
1595.2	2.56009
1595.46	0.570591
1595.72	2.55917
1595.98	0.575111
1596.24	2.56424
1596.5	0.580996
1596.76	-0.408703
1597.02	2.57561
1597.28	6.55291
1597.54	4.56729
1597.8	3.57381
1598.06	0.592436
1598.32	1.58309
1598.58	4.55933
1598.84	6.54281
1599.1	0.587517
1599.36	5.54756
1599.62	1.57843
1599.88	5.54483
1600.14	2.56784
1600.4	4.54767
1600.66	1.57032
1600.92	4.53868
1601.17	0.573017
1601.43	0.571131
1601.69	3.53983
1601.95	0.568962
1602.21	2.53201
1602.47	3.46812
1602.73	2.44654
1602.99	2.5123
1603.25	5.44351
1603.51	2.62173
1603.77	3.56646
1604.03	2.55301
1604.29	4.32072
1604.55	0.839516
1604.81	2.62744
1605.07	2.30981
1605.33	3.05133
1605.59	3.26986
1605.85	1.72341
1606.11	5.8847
1606.37	3.3684
1606.63	1.9327
1606.88	3.45877
1607.14	1.78321
1607.4	3.65458
1607.66	1.68899
1607.92	2.47504
1608.18	6.20617
1608.44	-0.244219
1608.7	4.0212
1608.96	2.45939
1609.22	3.34469
1609.48	4.02574
1609.74	3.82235
1610	3.73571
1610.26	6.31121
1610.51	2.06113
1610.77	6.29933
1611.03	4.47436
1611.29	2.55493
1611.55	1.01745
1611.81	2.54591
1612.07	1.6372
1612.33	3.83683
1612.59	3.50054
1612.85	3.04491
1613.11	5.92268
1613.37	5.14048
1613.62	2.86193
1613.88	2.17013
1614.14	4.56408
1614.4	4.04482
1614.66	3.22231
1614.92	4.00659
1615.18	2.65844
1615.44	4.08692
1615.7	1.69903
1615.96	2.96955
1616.21	3.45196
1616.47	4.6717
1616.73	3.24215
1616.99	4.33265
1617.25	4.41638
1617.51	3.52041
1617.77	5.7961
1618.03	2.87499
1618.28	3.37753
1618.54	5.05231
1618.8	4.50475
1619.06	2.4393
1619.32	3.30646
1619.58	3.67739
1619.84	3.44301
1620.1	3.42911
1620.35	5.02533
1620.61	2.24027
1620.87	5.80733
1621.13	3.61028
1621.39	2.59601
1621.65	3.43449
1621.91	2.232
1622.17	3.4864
1622.42	3.78396
1622.68	4.25538
1622.94	3.61204
1623.2	2.55554
1623.46	3.5172
1623.72	3.04347
1623.98	3.98323
1624.23	5.03781
1624.49	4.90749
1624.75	4.34536
1625.01	3.24767
1625.27	3.99766
1625.53	3.84411
1625.79	3.51208
1626.04	2.12813
1626.3	1.04935
1626.56	4.13264
1626.82	4.84558
1627.08	3.73701
1627.34	3.02726
1627.59	2.51458
1627.85	4.01835
1628.11	3.66059
1628.37	2.37729
1628.63	3.67642
1628.81	3.69051
1629.07	2.70579
1629.33	3.69205
1629.59	4.6787
1629.85	1.72441
1630.12	1.72547
1630.38	4.68
1630.64	3.69758
1630.9	1.73149
1631.16	0.751835
1631.42	5.68448
1631.68	0.762005
1631.95	2.73522
1632.21	1.75878
1632.47	1.76735
1632.73	3.73248
1632.99	3.72614
1633.25	3.72799
1633.51	1.76256
1633.78	2.75296
1634.04	0.784752
1634.3	2.75873
1634.56	6.70332
1634.82	1.77642
1635.08	3.74864
1635.34	0.792707
1635.6	2.76388
1635.87	5.71958
1636.13	3.74875
1636.39	5.71813
1636.65	3.74696
1636.91	0.792036
1637.17	1.77772
1637.43	4.73273
1637.69	2.76403
1637.95	5.71753
1638.21	-0.187193
1638.48	-0.18474
1638.74	5.72362
1639	3.75702
1639.26	1.79049
1639.52	0.807976
1639.78	2.77831
1640.04	5.73567
1640.3	4.75737
1640.57	3.77736
1640.83	6.7338
1641.09	2.79549
1641.35	3.78044
1641.61	5.75028
1641.87	3.78266
1642.13	4.76836
1642.39	3.78545
1642.65	3.78696
1642.91	-0.148195
1643.17	2.80602
1643.44	1.82233
1643.7	5.75864
1643.96	4.77295
1644.22	0.838232
1644.48	3.79127
1644.74	3.7965
1645	4.78456
1645.26	2.82056
1645.52	4.79016
1645.78	3.80601
1646.04	4.78967
1646.31	5.77352
1646.57	3.80724
1646.83	1.83951
1647.09	1.84013
1647.35	4.79068
1647.61	1.84307
1647.87	8.73026
1648.13	2.83589
1648.39	3.8259
1648.65	1.87238
1648.91	3.84232
1649.17	1.87423
1649.43	1.87385
1649.69	3.84585
1649.95	7.79522
1650.21	1.89176
1650.47	4.85319
1650.74	-0.0671825
1651	4.86383
1651.26	3.8813
1651.52	4.86881
1651.78	3.88568
1652.04	2.90343
1652.3	3.88783
1652.56	6.84362
1652.82	0.933641
1653.08	6.84764
1653.34	3.89525
1653.6	3.89967
1653.86	5.87383
1654.12	3.90586
1654.38	4.89533
1654.64	2.92912
1654.9	3.92172
1655.16	3.93029
1655.42	0.979572
1655.68	2.9591
1655.94	3.95092
1656.21	0.993284
1656.47	4.94442
1656.73	2.97136
1656.99	1.9846
1657.25	4.94555
1657.51	2.97259
1657.77	4.94657
1658.03	4.94615
1658.29	0.999161
1658.55	2.9714
1658.81	0.998161
1659.07	0.0115948
1659.33	2.96856
1659.59	4.93966
1659.85	4.94384
1660.11	2.97684
1660.37	2.98209
1660.63	5.94679
1660.89	1.02047
1661.15	2.9989
1661.41	3.99036
1661.67	2.01212
1661.93	3.00114
1662.19	6.00089
1662.45	4.03681
1662.71	3.04179
1662.97	2.05548
1663.23	2.0369
1663.49	3.00832
1663.75	2.03872
1664.01	2.04358
1664.27	5.01252
1664.53	6.01316
1664.79	6.01214
1665.05	5.97925
1665.31	3.0356
1665.57	2.08311
1665.83	4.06244
1666.09	3.07891
1666.35	4.00058
1666.61	3.01608
1666.87	5.02423
1667.13	3.04766
1667.39	5.02099
1667.65	5.01982
1667.91	3.04581
1668.17	3.05019
1668.43	3.06419
1668.69	4.06129
1668.95	3.07687
1669.21	3.0794
1669.47	4.06993
1669.72	-0.870203
1669.98	3.08595
1670.24	3.09972
1670.51	2.1154
1670.76	1.1269
1671.02	2.11622
1671.28	1.12897
1671.54	3.10946
1671.8	6.07804
1672.06	3.11509
1672.32	2.1281
1672.58	4.10725
1672.84	4.10986
1673.1	4.11273
1673.36	-0.827146
1673.62	4.1206
1673.88	2.14756
1674.14	1.16249
1674.4	1.16685
1674.66	4.14075
1674.92	-0.802568
1675.18	3.15905
1675.44	0.191835
1675.69	2.1727
1675.95	1.18592
1676.21	6.13734
1676.47	3.1704
1676.73	5.15119
1676.99	5.15162
1677.25	1.19305
1677.51	2.18154
1677.77	2.17955
1678.03	2.17736
1678.29	3.16494
1678.55	3.16426
1678.81	1.18666
1679.07	1.18711
1679.33	1.18705
1679.59	1.18717
1679.84	3.16415
1680.1	-2.76494
1680.36	1.18769
1680.62	1.1881
1680.88	3.16507
1681.14	0.202869
1681.4	2.18037
1681.66	0.206369
1681.92	-0.779571
1682.18	2.18614
1682.44	3.17506
1682.7	1.20062
1682.95	4.16585
1683.21	2.19173
1683.47	3.18063
1683.73	2.19292
1683.99	2.1922
1684.25	1.20502
1684.51	2.19345
1684.77	1.20719
1685.03	2.19613
1685.29	2.19784
1685.55	5.16219
1685.8	2.20218
1686.06	3.19383
1686.32	1.22337
1686.58	4.19022
1686.84	1.22813
1687.1	0.240482
1687.36	1.22795
1687.62	1.22778
1687.88	1.22777
1688.14	0.240076
1688.39	2.21334
1688.65	-1.73667
1688.91	-0.750628
1689.17	4.18162
1689.43	1.21964
1689.69	4.17631
1689.95	1.22061
1690.2	2.21202
1690.46	1.22923
1690.72	-0.741148
1690.98	4.19496
1691.24	1.23879
1691.5	2.22838
1691.76	1.2428
1692.02	0.256329
1692.28	2.22845
1692.53	2.22655
1692.79	1.23745
1693.05	-1.72382
1693.31	1.23046
1693.57	-2.71285
1693.83	0.241842
1694.09	-0.745043
1694.34	1.22465
1694.6	1.22673
1694.86	1.22954
1695.12	0.246857
1695.38	1.23466
1695.64	1.23753
1695.89	2.22735
1696.15	1.24466
1696.41	0.260126
1696.67	1.24515
1696.93	5.18372
1697.19	2.22481
1697.45	0.252324
1697.7	0.250663
1697.96	3.20234
1698.22	1.23251
1698.48	2.21593
1698.74	0.248508
1699	2.21782
1699.26	2.22042
1699.51	1.238
1699.77	0.255211
1700.03	2.22145
1700.29	1.23864
1700.55	2.22305
1700.81	-0.727692
1701.06	0.255742
1701.32	1.23779
1701.58	1.23588
1701.84	3.20026
1702.1	3.19797
1702.35	-0.734245
1702.61	2.21443
1702.87	3.19783
1703.13	1.2328
1703.39	-0.732165
1703.65	0.251449
1703.9	-0.727924
1704.16	-0.724833
1704.42	0.259417
1704.68	1.2426
1704.94	1.24326
1705.19	0.262208
1705.45	4.19304
1705.71	2.22625
1705.97	0.259371
1706.23	2.22069
1706.48	1.23581
1706.74	1.23315
1707	0.249374
1707.26	4.16988
1707.52	1.22299
1707.77	1.21895
1708.03	2.19451
1708.29	0.230104
1708.55	0.226652
1708.81	2.18288
1709.06	2.18194
1709.32	-1.73347
1709.58	-0.753227
1709.84	-0.751534
1710.1	0.229408
1710.35	-0.746466
1710.61	2.19464
1710.87	3.17701
1711.13	0.241774
1711.39	0.244203
1711.64	1.2248
1711.9	4.16154
1712.16	-0.738896
1712.42	0.234737
1712.67	0.228813
1712.93	0.224367
1713.19	-1.73583
1713.45	1.19241
1713.71	0.213943
1713.96	0.213293
1714.22	-1.74023
1714.48	2.16713
1714.74	1.19172
1714.99	0.22058
1715.25	3.15533
1715.51	1.20187
1715.77	0.224501
1716.02	-1.7305
1716.28	1.19723
1716.54	4.12218
1716.8	4.11604
1717.05	2.15732
1717.31	3.12422
1717.57	1.16875
1717.83	2.13739
1718.08	0.185421
1718.34	1.15717
1718.6	1.15672
1718.86	-1.76286
1719.12	2.13247
1719.37	1.15893
1719.63	4.08355
1719.89	1.1635
1720.14	1.16258
1720.4	3.1071
1720.66	3.10257
1720.92	0.181749
1721.17	2.12483
1721.43	-0.795588
1721.69	0.173941
1721.95	0.170955
1722.2	0.168036
1722.46	1.13695
1722.72	2.10586
1722.98	0.161872
1723.23	2.10349
1723.49	2.10497
1723.75	3.07497
1724	3.07541
1724.26	1.13128
1724.52	0.157045
1724.78	-1.78858
1725.03	1.11675
1725.29	-0.827155
1725.55	1.10911
1725.8	-1.79827
1726.06	-0.82686
1726.32	1.1106
1726.58	1.10854
1726.83	0.1355
1727.09	0.137578
1727.35	-1.79552
1727.6	-2.76467
1727.86	-2.76639
1728.12	0.1305
1728.38	1.07433
1728.63	0.0874281
1728.89	-1.84554
1729.15	1.06037
1729.4	0.10384
1729.66	1.0734
1729.92	1.06522
1730.18	2.0277
1730.43	1.06729
1730.69	2.04932
1730.95	0.118498
1731.2	1.08615
1731.46	1.08667
1731.72	0.120144
1731.97	0.119605
1732.23	0.118739
1732.49	0.117128
1732.74	0.114378
1733	2.04102
1733.26	0.104419
1733.51	2.99342
1733.77	1.05984
1734.03	1.0555
1734.29	1.05097
1734.54	2.97339
1734.8	-1.84731
1735.06	-0.887093
1735.31	-0.889082
1735.57	-1.85266
1735.82	1.03452
1736.08	2.95831
1736.34	1.03231
1736.6	0.0688038
1736.85	-1.85653
1737.11	-0.895475
1737.37	1.02687
1737.62	-0.898457
1737.88	-1.86205
1738.14	1.0194
1738.39	1.0167
1738.65	-0.90795
1738.91	-0.911573
1739.16	0.0432682
1739.42	0.036974
1739.67	1.94966
1739.93	0.026371
1740.19	0.981164
1740.44	0.0198402
1740.7	0.0171347
1740.96	0.0145893
1741.21	-0.94538
1741.47	-0.946712
1741.73	-0.947173
1741.98	-0.946997
1742.24	1.92438
1742.5	-3.81984
1742.75	-0.947997
1743.01	-1.9046
1743.26	1.92254
1743.52	0.96259
1743.78	-1.90901
1744.03	-0.953835
1744.29	0.00304031
1744.55	0.960429
1744.8	-0.951369
1745.06	0.962385
1745.32	0.962126
1745.57	0.960519
1745.83	1.91381
1746.09	-0.00190163
1746.34	0.949579
1746.6	-0.963696
1746.85	-0.0125914
1747.11	0.940029
1747.37	-0.972625
1747.62	-1.92732
1747.88	1.89154
1748.13	0.938161
1748.39	-0.969443
1748.65	-0.0128222
1748.9	-3.82922
1749.16	-0.00637341
1749.42	-0.957456
1749.67	2.8685
1749.93	-1.90451
1750.18	0.966672
1750.44	-1.89934
1750.7	1.92729
1750.95	-1.89609
1751.21	0.969881
1751.46	0.00986958
1751.72	1.91648
1751.98	0.958344
1752.23	0.000631332
1752.49	2.86169
1752.74	-0.959358
1753	1.90146
1753.26	-2.87127
1753.51	6.66665
1753.77	-0.967486
1754.02	-0.969861
1754.28	-0.971297
1754.53	-0.972566
1754.79	-1.92669
1755.05	0.931196
1755.3	1.88177
1755.56	-0.0267067
1755.81	-0.0299759
1756.07	-0.985828
1756.33	0.913697
1756.58	0.909154
1756.84	-2.89944
1757.09	-0.997993
1757.35	0.903728
1757.6	-0.995934
1757.86	0.911393
1758.12	-0.0381479
1758.37	0.91444
1758.63	-0.98778
1758.88	-0.0351133
1759.14	-1.93711
1759.39	0.917937
1759.65	0.917328
1759.91	-0.986358
1760.16	-0.987156
1760.42	-1.93959
1760.67	0.911883
1760.93	-0.992514
1761.18	-2.89576
1761.44	0.905987
1761.69	-0.0452232
1761.95	-0.0441942
1762.21	0.909732
1762.46	1.86275
1762.72	0.912533
1762.97	-0.988809
1763.23	-0.036684
1763.48	0.916171
1763.74	-0.0323019
1763.99	0.924092
1764.25	1.88154
1764.5	-0.0186014
1764.76	1.88777
1765.02	1.88998
1765.27	-0.0123625
1765.53	-1.91541
1765.78	-0.0107212
1766.04	0.941226
1766.29	-0.0115938
1766.55	-1.91545
1766.8	0.94031
1767.06	-1.916
1767.31	-0.96594
1767.57	-0.0157099
1767.82	1.88552
1768.08	-1.91992
1768.33	0.932169
1768.59	-0.0261755
1768.84	1.86666
1769.1	0.907887
1769.36	2.80404
1769.61	-1.9424
1769.86	1.86221
1770.12	1.8655
1770.38	-0.033639
1770.63	1.86876
1770.89	2.82591
1771.14	0.93092
1771.4	1.88335
1771.65	-0.0165367
1771.91	-2.86639
1772.16	-0.960413
1772.42	1.89666
1772.67	-0.955479
1772.93	-0.00149059
1773.18	-0.951122
1773.44	0.00272083
1773.69	-0.947521
1773.95	0.957893
1774.2	-0.944854
1774.46	0.0102568
1774.71	0.0119228
1774.97	-0.936558
1775.22	-0.92883
1775.48	0.981253
1775.73	0.0302629
1775.99	0.0310469
1776.24	1.93709
1776.5	0.0288038
1776.75	0.979623
1777.01	0.0253887
1777.26	0.975646
1777.51	-1.88449
1777.77	-2.83895
1778.03	1.9201
1778.28	2.8686
1778.53	-0.942859
1778.79	2.85969
1779.04	0.00366974
1779.3	0.956351
1779.55	-1.89385
1779.81	1.91445
1780.06	1.9163
1780.32	1.91842
1780.57	0.016449
1780.83	2.87335
1781.08	1.92279
1781.34	1.92508
1781.59	2.88043
1781.85	0.979321
1782.1	0.0307531
1782.36	0.986369
1782.61	0.0358448
1782.86	-1.868
1783.12	1.94708
1783.37	-0.910056
1783.63	-2.8143
1783.88	0.0498056
1784.14	0.0539989
1784.39	-0.897374
1784.65	1.96638
1784.9	1.96662
1785.15	3.87401
1785.41	-0.897447
1785.66	1.0096
1785.92	0.0566511
1786.17	-0.895265
1786.43	0.0619545
1786.68	1.02044
1786.94	1.02582
1787.19	0.0784931
1787.44	-0.8671
1787.7	0.0994482
1787.95	-2.76143
1788.21	-1.7991
1788.46	0.118767
1788.72	1.08146
1788.97	0.129747
1789.23	-1.78295
1789.48	0.136086
1789.73	3.01445
1789.99	2.05814
1790.24	1.0997
1790.5	0.140845
1790.75	-3.69822
1791	0.128044
1791.26	0.126814
1791.51	1.08376
1791.77	0.126912
1792.02	1.08554
1792.28	-2.7439
1792.53	0.131795
1792.78	0.13351
1793.04	0.133739
1793.29	2.05143
1793.55	0.137124
1793.8	2.05487
1794.05	1.09558
1794.31	1.09393
1794.56	-2.73152
1794.82	0.15605
1795.07	-1.75571
1795.32	2.08735
1795.58	2.09074
1795.83	0.173925
1796.09	2.09822
1796.34	2.10225
1796.6	-1.73714
1796.85	-0.773183
1797.1	1.15187
1797.36	0.193085
1797.61	0.195201
1797.86	2.11998
1798.12	1.1597
1798.37	-0.763193
1798.63	3.08211
1798.88	-0.765357
1799.13	0.193672
1799.39	-0.770289
1799.64	0.188365
1799.9	1.1472
1800.15	1.14563
1800.4	-2.69773
1800.66	2.10447
1800.91	2.10431
1801.16	-1.73724
1801.42	2.1059
1801.67	2.10756
1801.93	1.14901
1802.18	-0.770032
1802.43	1.15502
1802.69	-0.763672
1802.94	3.08581
1803.19	1.16588
1803.45	-0.75598
1803.7	1.16865
1803.95	0.209684
1804.21	1.17519
1804.46	-0.745969
1804.71	-0.742084
1804.97	1.18756
1805.22	0.228988
1805.48	-3.62028
1805.73	1.19905
1805.98	1.20202
1806.24	0.240856
1806.49	2.16989
1806.74	0.243032
1807	-1.68417
1807.25	-0.72005
1807.5	0.244279
1807.76	-1.68283
1808.01	0.245561
1808.26	-3.60929
1808.52	2.17516
1808.77	-1.67983
1809.02	2.17704
1809.28	1.21407
1809.53	1.21504
1809.79	2.18003
1810.04	1.2162
1810.29	2.17952
1810.55	-0.713256
1810.8	-0.713125
1811.05	-0.713225
1811.3	2.17904
1811.56	2.17962
1811.81	1.2169
1812.06	2.18337
1812.32	-0.706839
1812.57	2.18985
1812.82	-0.7019
1813.08	-0.700479
1813.33	3.1619
1813.58	-1.65915
1813.84	1.24108
1814.09	2.2124
1814.34	-0.680167
1814.6	-1.64325
1814.85	2.22437
1815.1	4.15888
1815.36	0.294156
1815.61	-2.60438
1815.86	1.26279
1816.12	-0.66872
1816.37	2.23196
1816.62	1.26485
1816.88	-0.671927
1817.13	1.25299
1817.38	-1.64797
1817.63	1.2509
1817.89	1.25456
1818.14	1.25974
1818.39	2.22747
1818.64	-0.671735
1818.9	-0.670241
1819.15	-0.668083
1819.4	4.16728
1819.66	-1.63138
1819.91	-0.662466
1820.16	2.24099
1820.42	0.308654
1820.67	1.2778
1820.92	1.28052
1821.18	-0.651688
1821.43	-1.61709
1821.68	-1.61531
1821.93	1.28991
1822.19	0.323212
1822.44	2.26046
1822.69	-0.642795
1822.94	1.29285
1823.2	-1.61234
1823.45	1.28997
1823.7	1.29036
1823.95	-2.57985
1824.21	2.26182
1824.46	2.26363
1824.71	0.32919
1824.96	1.29949
1825.22	1.30073
1825.47	1.30113
1825.72	-0.635658
1825.98	6.14432
1826.23	0.334025
1826.48	2.27173
1826.73	-0.63252
1826.99	2.27528
1827.24	4.2152
1827.49	-0.627319
1827.74	3.24815
1828	1.30991
1828.25	1.30806
1828.5	2.27444
1828.75	0.336134
1829.01	-1.6012
1829.26	2.27228
1829.51	-1.60232
1829.76	-1.60406
1830.02	-0.637118
1830.27	3.23379
1830.52	1.29847
1830.77	0.332561
1831.03	-0.63349
1831.28	-1.59973
1831.53	0.339512
1831.78	0.341817
1832.04	0.344308
1832.29	-0.62114
1832.54	-0.619164
1832.79	0.350226
1833.04	-0.618352
1833.3	0.352894
1833.55	-0.615914
1833.8	-1.58405
1834.05	1.31869
1834.31	-0.628064
1834.56	3.23772
1834.81	2.26142
1835.06	-0.645452
1835.31	-1.61676
1835.57	-0.64848
1835.82	-1.61999
1836.07	0.397259
1836.32	1.34356
1836.58	2.29166
1836.83	1.31777
1837.08	1.30385
1837.33	1.29421
1837.58	1.27545
1837.84	2.23337
1838.09	2.23363
1838.34	1.30188
1838.59	-2.5645
1838.85	-0.621996
1839.1	3.25572
1839.35	-0.617829
1839.6	2.29324
1839.85	4.21035
1840.11	-1.60808
1840.36	2.25228
1840.61	0.31039
1840.86	2.23536
1841.11	-0.669615
1841.36	1.25537
1841.62	-1.64567
1841.87	0.279184
1842.12	2.20392
1842.37	-1.65112
1842.62	1.24126
1842.88	-1.65055
1843.13	0.278528
1843.38	-1.65075
1843.63	-0.687426
1843.88	1.24212
1844.14	0.279554
1844.39	0.279495
1844.64	2.20652
1844.89	0.278271
1845.14	-3.57883
1845.39	0.286718
1845.65	1.25931
1845.9	3.19903
1846.15	1.27517
1846.4	3.19428
1846.65	-2.61913
1846.9	0.251013
1847.16	-0.715629
1847.41	-1.67639
1847.66	2.18372
1847.91	-1.66524
1848.16	1.21741
1848.41	-0.711499
1848.67	1.21406
1848.92	1.2106
1849.17	0.243467
1849.42	2.16279
1849.67	-0.727954
1849.92	-1.69444
1850.18	-1.69837
1850.43	-0.740815
1850.68	0.216804
1850.93	-1.70686
1851.18	-0.748305
1851.43	0.210774
1851.68	3.09104
1851.94	-0.749804
1852.19	1.17087
1852.44	0.210724
1852.69	-0.749896
1852.94	-1.71088
1853.19	1.1676
1853.44	-5.55455
1853.69	4.03804
1853.95	-0.764459
1854.2	-0.768126
1854.45	0.188863
1854.7	-1.7311
1854.95	2.09802
1855.2	0.176592
1855.45	2.09016
1855.71	0.173091
1855.96	1.13045
1856.21	4.00421
1856.46	-4.61617
1856.71	1.13002
1856.96	1.1285
1857.21	2.08428
1857.46	1.12479
1857.72	-1.74966
1857.97	-0.795325
1858.22	0.158275
1858.47	-2.71516
1858.72	-1.76179
1858.97	0.147098
1859.22	-0.811029
1859.47	1.10126
1859.72	-1.76675
1859.98	1.10306
1860.23	0.150423
1860.48	1.10956
1860.73	2.06896
1860.98	-0.79775
1861.23	-1.75237
1861.48	-1.75173
1861.73	-1.75252
1861.98	1.11559
1862.24	1.11206
1862.49	3.97717
1862.74	1.10446
1862.99	0.144904
1863.24	2.0531
1863.49	-0.81657
1863.74	-4.64038
1863.99	0.133674
1864.24	0.130998
1864.49	-0.82696
1864.74	0.123783
1864.99	0.119172
1865.25	0.113949
1865.5	-0.845605
1865.75	-1.80478
1866	0.0948467
1866.25	-1.81612
1866.5	-0.86988
1866.75	1.02744
1867	0.0702238
1867.25	0.0660677
1867.5	1.9655
1867.75	0.0624218
1868	2.9136
1868.25	-0.888194
1868.51	1.96501
1868.76	1.01407
1869.01	0.0626965
1869.26	-0.888674
1869.51	-1.83982
1869.76	0.0606747
1870.01	1.01056
1870.26	-1.84109
1870.51	1.01002
1870.76	1.01001
1871.01	1.00878
1871.26	2.90742
1871.51	1.95422
1871.76	0.0527649
1872.01	1.00126
1872.26	0.998074
1872.52	1.94437
1872.77	-0.905525
1873.02	0.992898
1873.27	-0.906853
1873.52	0.0402193
1873.77	0.986249
1874.02	0.0340061
1874.27	-0.918188
1874.52	0.0264416
1874.77	3.81404
1875.02	2.86111
1875.27	-1.88214
1875.52	0.003438
1875.77	-2.84071
1876.02	2.83265
1876.27	-0.00918579
1876.52	0.934765
1876.77	2.81604
1877.02	-0.0294647
1877.27	-2.87799
1877.52	0.917663
1877.77	0.0321894
1878.02	1.89145
1878.27	-0.00368595
1878.52	-0.00423622
1878.78	0.0126152
1879.02	0.965488
1879.27	-1.88193
1879.52	0.00817585
1879.78	-0.938748
1880.03	0.954347
1880.28	-1.88272
1880.53	-1.88593
1880.78	0.00671577
1881.03	-0.000120163
1881.28	2.82959
1881.53	-1.90595
1881.78	0.921183
1882.03	-0.976849
1882.28	-1.92976
1882.53	-1.93393
1882.78	0.899864
1883.03	-3.75286
1883.28	-0.0289955
1883.53	-0.0622435
1883.78	0.884271
1884.03	-0.0511808
1884.28	1.8277
1884.53	1.8353
1884.78	0.900242
1885.03	-0.984259
1885.28	-0.0374603
1885.53	0.914028
1885.78	-0.970684
1886.03	-0.0242624
1886.28	1.86221
1886.53	-0.0321321
1886.78	-0.979119
1887.03	-1.92579
1887.28	-0.985599
1887.52	2.78306
1887.78	-0.0505333
1888.03	-0.0562496
1888.27	-2.88747
1888.52	-0.0659752
1888.77	-1.01164
1889.02	0.869435
1889.27	-0.0723372
1889.52	-0.0723772
1889.77	-1.01159
1890.02	2.75887
1890.27	1.82108
1890.52	-2.88717
1890.77	-1.94573
1891.02	-1.00457
1891.27	-0.0629005
1891.52	1.81978
1891.77	-1.00557
1892.02	1.81872
1892.27	-2.89093
1892.52	-2.89343
1892.77	-1.95741
1893.02	2.7371
1893.27	-2.91054
1893.52	-1.97009
1893.77	3.67018
1894.02	-0.0943232
1894.27	-0.096529
1894.52	0.84242
1894.76	-1.03556
1895.02	-0.0944433
1895.26	0.847258
1895.51	0.849601
1895.76	1.79212
1896.01	-0.0846462
1896.26	-1.96178
1896.51	0.862111
1896.76	-1.0165
1897.01	-0.0742159
1897.26	-0.073226
1897.51	-1.01372
1897.76	-1.01436
1898.01	-1.01584
1898.26	0.862491
1898.51	-0.0811396
1898.75	-1.96436
1899.01	1.79249
1899.25	2.73066
1899.5	-0.0899162
1899.75	-0.0911922
1900	0.848167
1900.25	2.72813
1900.5	-0.0879307
1900.75	-2.9037
1901	1.79864
1901.25	0.862492
1901.5	-0.0740356
1901.75	-1.95058
1902	-1.00705
1902.25	-1.00686
1902.49	0.873492
1902.74	-0.0684166
1902.99	-0.0697699
1903.24	-1.01094
1903.49	0.869062
1903.74	0.868786
1903.99	1.80892
1904.24	3.68899
1904.49	0.868045
1904.74	1.80804
1904.98	-2.89208
1905.23	-1.01255
1905.48	-0.0775032
1905.73	0.857864
1905.98	1.7954
1906.23	-1.96289
1906.48	-1.96376
1906.73	1.79185
1906.98	-1.02424
1907.23	-0.0839624
1907.47	-1.02014
1907.72	3.67992
1907.97	-0.07623
1908.22	2.7439
1908.47	-1.01218
1908.72	-3.82879
1908.97	2.75442
1909.22	-0.0611267
1909.47	-0.996445
1909.71	-0.991061
1909.96	-2.86788
1910.21	1.84395
1910.46	0.906491
1910.71	-2.85805
1910.96	-0.0305195
1911.21	-0.971541
1911.46	1.85471
1911.7	-2.85576
1911.95	1.8533
1912.2	0.911639
1912.45	-0.0296812
1912.7	-0.0291367
1912.95	1.8559
1913.2	-0.0246
1913.45	-1.90403
1913.69	-0.956596
1913.94	0.932807
1914.19	0.936906
1914.44	2.82754
1914.69	0.00125027
1914.94	0.00384235
1915.18	0.948739
1915.43	0.00506592
1915.68	0.0042038
1915.93	0.947592
1916.18	-0.941437
1916.43	0.942329
1916.68	-0.945909
1916.92	1.8811
1917.17	1.87997
1917.42	-0.948596
1917.67	-0.00460911
1917.92	0.94132
1918.17	0.00259209
1918.42	-0.935955
1918.66	0.95644
1918.91	-0.925616
1919.16	1.91466
1919.41	-2.80273
1919.66	0.97959
1919.91	0.980563
1920.15	-0.91082
1920.4	0.0365458
1920.65	0.986493
1920.9	0.045969
1921.15	0.994152
1921.39	-1.8399
1921.64	0.999003
1921.89	0.0536594
1922.14	3.83556
1922.39	-0.894699
1922.64	-1.84152
1922.89	0.0484858
1923.13	-0.897433
1923.38	1.93723
1923.63	-0.899869
1923.88	-0.901987
1924.13	3.82082
1924.37	-0.902773
1924.62	-0.90139
1924.87	0.046279
1925.12	-0.894762
1925.37	-0.889452
1925.61	1.00651
1925.86	1.9574
1926.11	0.0704832
1926.36	-0.870381
1926.61	-0.867016
1926.86	-1.81108
1927.1	0.0854416
1927.35	-0.859091
1927.6	0.0904589
1927.85	0.0927963
1928.1	0.0944414
1928.34	1.04489
1928.59	-0.847707
1928.84	1.99888
1929.09	2.95165
1929.33	-0.835071
1929.58	-1.77946
1929.83	-0.825524
1930.08	-0.821523
1930.33	0.132609
1930.57	1.08335
1930.82	2.03393
1931.07	-0.81523
1931.32	-0.816563
1931.57	1.08039
1931.81	0.129695
1932.06	2.02594
1932.31	0.12636
1932.56	-0.822045
1932.8	2.02205
1933.05	3.92183
1933.3	-0.81607
1933.55	-0.807715
1933.79	1.10313
1934.04	0.168214
1934.29	-1.72143
1934.54	1.1468
1934.79	2.11053
1935.03	0.212523
1935.28	0.218053
1935.53	1.15904
1935.78	2.11296
1936.02	-3.60568
1936.27	-0.747993
1936.52	-0.750515
1936.77	-0.753478
1937.01	-0.755761
1937.26	-0.75817
1937.51	0.191776
1937.76	-0.762392
1938	2.09388
1938.25	1.14933
1938.5	2.10365
1938.75	-1.70211
1938.99	-2.65157
1939.24	0.20867
1939.49	2.11758
1939.74	-0.739554
1939.98	2.1244
1940.23	1.17647
1940.48	-0.719185
1940.73	1.19506
1940.97	0.240808
1941.22	-2.62329
1941.47	1.18757
1941.72	-2.63418
1941.96	-0.719596
1942.21	1.20587
1942.46	0.254204
1942.71	0.255013
1942.95	0.248693
1943.2	-1.66554
1943.45	-2.62237
1943.7	0.250614
1943.94	3.11784
1944.19	2.16782
1944.44	-0.692321
1944.68	1.22265
1944.93	2.18308
1945.18	-0.679047
1945.42	1.23687
1945.67	0.284585
1945.92	-0.668591
1946.17	1.24652
1946.41	2.20461
1946.66	0.292027
1946.91	1.2477
1947.16	1.24686
1947.4	0.291137
1947.65	0.291798
1947.9	0.292363
1948.14	3.16047
1948.39	0.29388
1948.64	1.25408
1948.89	0.301723
1949.13	1.26277
1949.38	1.26788
1949.62	1.27335
1949.87	-2.54954
1950.12	-2.5429
1950.37	-0.620462
1950.61	-0.613744
1950.86	-0.606815
1951.11	0.359199
1951.35	-1.55525
1951.6	0.368495
1951.85	0.371754
1952.1	1.33523
1952.34	0.375343
1952.59	1.33992
1952.83	2.30481
1953.08	2.30032
1953.33	-0.586595
1953.58	1.32381
1953.82	0.356279
1954.07	2.26592
1954.32	-2.53113
1954.56	0.341992
1954.81	-2.53128
1955.06	-0.612407
1955.3	0.35117
1955.55	-0.599354
1955.8	-1.54826
1956.04	2.29561
1956.29	-0.578238
1956.54	-0.574676
1956.78	0.390121
1957.03	1.35496
1957.28	1.35894
1957.52	-2.48179
1957.77	-1.51856
1958.02	1.36674
1958.26	-2.47656
1958.51	1.36746
1958.76	0.404351
1959	-1.51791
1959.25	3.28621
1959.5	-0.558412
1959.74	-1.52039
1959.99	-0.5613
1960.23	-1.52319
1960.48	2.31518
1960.73	0.393267
1960.98	2.31126
1961.22	1.35102
1961.47	1.35255
1961.71	-0.565123
1961.96	-0.56363
1962.21	0.397762
1962.45	-1.52042
1962.7	3.28062
1962.95	2.32225
1963.19	-4.39613
1963.44	0.405709
1963.69	0.408577
1963.93	-0.54932
1964.18	-1.50905
1964.42	3.29192
1964.67	1.37266
1964.92	1.37308
1965.16	0.414306
1965.41	-0.543293
1965.66	1.38161
1965.9	1.38636
1966.15	0.429927
1966.39	1.39443
1966.64	-0.52529
1966.89	1.39764
1967.13	-1.48472
1967.38	-1.48258
1967.63	2.36414
1967.87	0.443181
1968.12	-0.51777
1968.36	1.4042
1968.61	-0.520192
1968.86	1.39863
1969.1	0.43356
1969.35	1.38972
1969.59	-0.533523
1969.84	-0.535613
1970.09	2.34243
1970.33	0.421082
1970.58	-3.41779
1970.82	1.37822
1971.07	-1.50002
1971.32	1.37725
1971.56	3.2983
1971.81	-0.536257
1972.05	1.38412
1972.3	0.4254
1972.55	-1.49368
1972.79	-0.536112
1973.04	-0.538531
1973.28	1.37722
1973.53	0.417465
1973.78	0.417167
1974.02	-1.49936
1974.27	1.37725
1974.51	0.420348
1974.76	1.38137
1975.01	-0.532907
1975.25	2.34712
1975.5	0.432342
1975.74	2.3532
1975.99	-0.522378
1976.23	1.39761
1976.48	0.439355
1976.73	2.35824
1976.97	2.35795
1977.22	2.35684
1977.46	2.35497
1977.71	-0.523142
1977.95	1.39311
1978.2	1.39232
1978.45	3.30931
1978.69	3.31041
1978.94	1.39503
1979.18	1.39604
1979.43	0.439272
1979.67	1.39901
1979.92	1.39813
1980.17	-0.52062
1980.41	0.436103
1980.66	-2.43833
1980.9	-0.523494
1981.15	-0.523963
1981.39	-2.4395
1981.64	-0.523414
1981.88	-0.523016
1982.13	1.39047
1982.37	-0.526059
1982.62	-2.44306
1982.87	2.33848
1983.11	-0.534204
1983.36	0.422193
1983.6	0.422029
1983.85	1.3779
1984.09	0.42083
1984.34	-2.44831
1984.58	1.37477
1984.83	0.415417
1985.08	3.28214
1985.32	-1.49543
1985.56	-1.48682
1985.81	0.421579
1986.06	0.412125
1986.3	1.30801
1986.55	2.31833
1986.79	2.20219
1987.04	1.23393
1987.28	-0.339346
1987.53	2.10943
1987.77	0.598262
1988.02	1.34733
1988.26	1.2155
1988.51	1.93499
1988.75	2.12881
1989	0.328384
1989.24	0.739474
1989.49	-2.44475
1989.73	0.95263
1989.98	0.943731
1990.22	-0.37778
1990.47	-0.551833
1990.72	0.110432
1990.96	2.30058
1991.2	0.163589
1991.45	0.843307
1991.7	0.477834
1991.94	0.3429
1992.19	0.34764
1992.43	1.22671
1992.68	1.05056
1992.92	2.02051
1993.17	2.01329
1993.41	-1.17375
1993.66	0.6369
1993.9	1.20216
1994.15	0.545517
1994.39	-0.20666
1994.63	-0.424073
1994.88	1.77478
1995.13	1.08994
1995.37	2.24959
1995.61	-0.471876
1995.86	2.0224
1996.11	0.259111
1996.35	-1.07819
1996.59	0.557464
1996.84	-0.754644
1997.08	2.36008
1997.33	0.872106
1997.57	2.27507
1997.82	-1.15911
1998.06	-0.369021
1998.31	-0.18197
1998.55	0.978702
1998.8	1.22195
1999.04	1.26281
1999.29	1.48343
1999.53	0.820558
1999.78	0.170919
2000.02	0.363397
2000.27	1.30361
2000.51	1.60356
2000.76	0.980572
2001	0.412702
2001.24	0.48883
2001.49	1.55656
2001.73	0.854717
2001.98	-0.809853
2002.22	-1.27005
2002.47	-1.56244
2002.71	0.312351
2002.96	0.853024
2003.2	-0.889303
2003.45	-0.48176
2003.69	-0.205493
2003.93	-0.57557
2004.18	0.568304
2004.42	1.26584
2004.67	1.26624
2004.91	0.684932
2005.16	-0.296757
2005.4	0.10726
2005.65	1.26685
2005.89	1.06906
2006.13	0.459517
2006.38	0.68486
2006.62	1.54498
2006.87	-1.64725
2007.11	-1.96379
2007.36	0.057332
2007.6	-1.31422
2007.81	0.317981
2008.06	1.25741
2008.31	-1.57682
2008.56	-0.635565
2008.8	0.304053
2009.05	1.24282
2009.3	0.297155
2009.55	-1.59045
2009.79	1.23381
2010.04	1.23043
2010.29	-1.59492
2010.53	-1.59427
2010.78	-1.59359
2011.03	1.23259
2011.28	0.291308
2011.52	0.291536
2011.77	1.23355
2012.02	0.291832
2012.27	-3.47482
2012.51	1.23018
2012.76	-0.657535
2013.01	-1.60338
2013.26	0.273914
2013.5	1.20882
2013.75	3.08123
2014	1.19425
2014.24	0.250244
2014.49	-0.688492
2014.74	0.251988
2014.99	0.255492
2015.23	3.07552
2015.48	2.13975
2015.73	-0.678906
2015.97	0.269439
2016.22	2.15921
2016.47	2.16183
2016.71	-1.59775
2016.96	0.280302
2017.21	-0.661982
2017.46	-2.54388
2017.7	0.268222
2017.95	-1.6138
2018.2	-0.67961
2018.44	0.253576
2018.69	-1.62628
2018.94	0.243887
2019.18	-2.56779
2019.43	0.241256
2019.68	-0.695028
2019.93	1.17887
2020.17	1.17905
2020.42	0.243029
2020.67	1.18197
2020.91	1.18389
2021.16	-0.688427
2021.41	-1.6248
2021.65	0.247886
2021.9	-0.689791
2022.15	0.244522
2022.4	-0.694367
2022.64	-0.697526
2022.89	0.236156
2023.14	1.1689
2023.38	1.16637
2023.63	-0.705925
2023.88	-1.64232
2024.12	1.15682
2024.37	-0.71584
2024.62	0.21403
2024.86	-0.723176
2025.11	-0.72641
2025.36	-2.59517
2025.6	0.199444
2025.85	-0.729443
2026.1	0.210968
2026.34	3.95768
2026.59	0.235796
2026.84	-1.62096
2027.08	-1.6142
2027.33	-1.61646
2027.57	-0.690126
2027.82	-0.707389
2028.07	-0.731899
2028.32	-0.688611
2028.56	0.287116
2028.81	-0.669693
2029.06	0.273346
2029.3	3.05316
2029.55	0.232623
2029.79	-0.713086
2030.04	1.14931
2030.29	3.93838
2030.53	-0.710288
2030.78	0.230192
2031.03	-1.63668
2031.27	1.16352
2031.52	2.09914
2031.77	-1.62831
2032.01	0.244899
2032.26	0.251602
2032.5	-1.61119
2032.75	-1.60682
2033	-0.667889
2033.24	2.14314
2033.49	0.273515
2033.74	0.266598
2033.98	1.18889
2034.23	2.10783
2034.48	2.10783
2034.72	0.248951
2034.97	-0.677845
2035.21	1.20106
2035.46	-0.656377
2035.71	-1.58388
2035.95	1.21934
2036.2	0.278516
2036.45	-1.58804
2036.69	-0.649639
2036.94	0.286212
2037.18	0.28628
2037.43	2.15547
2037.68	-0.65008
2037.92	0.28342
2038.17	0.281951
2038.41	-1.58822
2038.66	3.08153
2038.91	-0.656827
2039.15	1.20947
2039.4	-0.660887
2039.64	1.20271
2039.89	2.13232
2040.14	2.12881
2040.38	0.260357
2040.63	-0.674281
2040.87	1.18888
2041.12	2.12118
2041.37	1.18873
2041.61	-0.676899
2041.86	-0.677472
2042.1	1.18341
2042.35	1.18396
2042.6	1.18478
2042.84	0.255869
2043.09	2.12582
2043.33	0.269165
2043.58	3.07524
2043.83	0.278978
2044.07	-0.654134
2044.32	2.1407
2044.56	2.13313
2044.81	2.11694
2045.05	1.2154
2045.3	2.14874
2045.55	1.24588
2045.79	1.27246
2046.04	-0.617819
2046.28	-1.56398
2046.53	-1.5721
2046.78	-1.56954
2047.02	0.292081
2047.27	1.21295
2047.51	-0.652493
2047.76	2.14601
2048	1.21558
2048.25	1.21775
2048.5	2.15469
2048.74	-0.639509
2048.99	-1.56821
2049.23	1.23657
2049.48	1.24363
2049.72	-0.618754
2049.97	0.320328
2050.22	1.25761
2050.46	-1.5437
2050.71	1.25856
2050.95	-1.54609
2051.2	2.18616
2051.44	2.18722
2051.69	0.321363
2051.93	1.25836
2052.18	-0.607699
2052.42	3.13144
2052.67	-0.601488
2052.91	1.27138
2053.16	0.342599
2053.41	-1.52018
2053.65	0.35386
2053.9	-0.578851
2054.14	-1.51304
2054.39	2.22921
2054.63	1.29383
2054.88	0.357691
2055.12	0.355206
2055.37	0.354566
2055.62	0.354576
2055.86	-0.580927
2056.11	0.353237
2056.35	2.2227
2056.6	-1.51519
2056.84	1.29073
2057.09	-0.576632
2057.33	-0.573797
2057.58	-1.50587
2057.82	1.30331
2058.07	1.30824
2058.31	3.18438
2058.56	-0.554727
2058.8	0.384231
2059.05	0.386013
2059.29	1.32409
2059.54	0.388509
2059.78	-0.548657
2060.03	1.3216
2060.27	2.25745
2060.52	-0.547389
2060.76	-0.544459
2061.01	0.393961
2061.25	0.395409
2061.5	-2.41224
2061.74	-1.47453
2061.99	1.33662
2062.24	0.402818
2062.48	-0.530621
2062.73	2.28346
2062.97	1.35013
2063.22	-0.521062
2063.46	1.35577
2063.7	-0.516628
2063.95	-0.514582
2064.19	3.23825
2064.44	1.36649
2064.68	-0.504125
2064.93	-2.3753
2065.18	-0.494018
2065.42	2.32642
2065.66	-1.42497
2065.91	4.21168
2066.15	2.33489
2066.4	1.39902
2066.64	1.40139
2066.89	2.34313
2067.13	-0.472056
2067.38	2.35025
2067.62	1.41355
2067.87	1.41609
2068.11	3.29761
2068.36	-0.458723
2068.6	-1.39858
2068.85	2.35974
2069.09	-0.463964
2069.34	0.469204
2069.58	-0.470625
2069.83	-1.40721
2070.07	-1.39976
2070.31	0.488295
2070.56	-2.32473
2070.8	2.37583
2071.05	2.37122
2071.29	2.39791
2071.54	1.45974
2071.78	1.45861
2072.03	-1.36657
2072.27	3.3418
2072.52	2.39924
2072.76	0.517175
2073.01	0.516953
2073.25	-2.30596
2073.5	1.46143
2073.74	2.4049
2073.98	0.524304
2074.23	1.47021
2074.47	-1.35105
2074.72	-1.34532
2074.96	1.4909
2075.21	0.556648
2075.45	0.562526
2075.69	-0.378258
2075.94	2.45486
2076.18	-0.376204
2076.43	-0.377374
2076.67	1.50763
2076.92	-0.383162
2077.16	2.44082
2077.41	1.49718
2077.65	0.557081
2077.9	-2.26923
2078.14	-1.32399
2078.38	0.565111
2078.63	1.51192
2078.87	0.573453
2079.12	2.46949
2079.36	1.52911
2079.61	1.53264
2079.85	2.48083
2080.09	1.5385
2080.34	2.48395
2080.58	2.48287
2080.83	1.53754
2081.07	0.592989
2081.32	-0.351568
2081.56	1.53846
2081.8	1.54041
2082.05	-0.347613
2082.29	-1.29123
2082.54	2.48963
2082.78	1.54487
2083.02	2.4897
2083.27	-0.345071
2083.51	1.54554
2083.76	2.49118
2084	2.49166
2084.24	1.54765
2084.49	-0.341264
2084.73	0.604352
2084.98	-1.28505
2085.22	-2.22954
2085.47	0.607843
2085.71	0.612758
2085.95	0.618428
2086.2	-0.323816
2086.44	0.624207
2086.69	2.51911
2086.93	-1.26246
2087.17	1.5781
2087.42	0.632465
2087.66	3.47245
2087.9	1.58071
2088.15	4.42149
2088.39	-1.2561
2088.64	1.58482
2088.88	1.58841
2089.12	-1.24909
2089.37	2.54429
2089.61	1.59847
2089.85	-0.294725
2090.1	1.60169
2090.34	0.65634
2090.59	-0.288976
2090.83	0.660907
2091.07	2.55875
2091.32	-1.22804
2091.56	0.67332
2091.8	-0.269726
2092.05	0.684564
2092.29	0.690548
2092.54	-2.15364
2092.78	1.64948
2093.02	1.65427
2093.27	1.65879
2093.51	1.66265
2093.75	0.715324
2094	0.716493
2094.24	0.71678
2094.49	-1.18502
2094.73	-0.235189
2094.97	-2.13825
2095.22	-1.18985
2095.46	1.65912
2095.7	-1.19246
2095.95	1.65698
2096.19	-2.14308
2096.43	3.55605
2096.68	-1.19516
2096.92	1.65119
2097.16	-0.250272
2097.41	2.59697
2097.65	1.64716
2097.89	-0.252092
2098.14	1.64477
2098.38	1.64511
2098.62	-2.15144
2098.87	2.59339
2099.11	0.695025
2099.36	2.59317
2099.6	1.64473
2099.84	0.696636
2100.08	-0.251223
2100.33	1.64955
2100.57	1.65392
2100.81	1.65735
2101.06	2.60941
2101.3	0.711039
2101.54	4.51051
2101.79	-1.1883
2102.03	2.61121
2102.28	0.710676
2102.52	-0.241381
2102.76	3.55358
2103	1.65363
2103.25	0.703972
2103.49	-1.19489
2103.73	2.60281
2103.98	1.65553
2104.22	0.708923
2104.46	-2.13746
2104.71	1.66387
2104.95	1.66727
2105.19	1.67142
2105.44	-1.17658
2105.68	1.6767
2105.92	-1.17319
2106.17	0.728905
2106.41	3.58204
2106.65	0.731791
2106.89	0.732088
2107.14	-0.220341
2107.38	-2.12411
2107.62	0.723285
2107.87	0.719186
2108.11	1.66473
2108.35	0.712257
2108.59	1.66088
2108.84	-0.236872
2109.08	0.717638
2109.32	1.67008
2109.57	0.720423
2109.81	1.67064
2110.05	2.62073
2110.3	1.67091
2110.54	-0.228865
2110.78	1.67105
2111.02	3.56963
2111.27	0.717747
2111.51	2.61588
2111.75	2.61498
2112	1.66563
2112.24	3.56726
2112.48	3.56916
2112.72	1.67175
2112.97	-0.22401
2113.21	-1.17161
2113.45	1.68118
2113.7	2.6302
2113.94	2.62885
2114.18	0.728128
2114.42	1.6795
2114.67	1.67986
2114.91	0.728448
2115.15	0.727128
2115.39	1.6762
2115.64	1.67482
2115.88	-1.17862
2116.12	0.718341
2116.36	2.61652
2116.61	3.56534
2116.85	-0.233702
2117.09	0.71684
2117.34	3.56329
2117.58	-1.18649
2117.82	1.65882
2118.06	2.60304
2118.3	-1.19683
2118.55	-0.251392
2118.79	-1.20278
2119.03	1.63844
2119.28	-0.260697
2119.52	1.632
2119.76	-0.265395
2120	0.681546
2120.24	3.52501
2120.49	-0.262824
2120.73	3.53003
2120.97	1.63826
2121.22	1.64232
2121.46	1.64597
2121.7	0.70066
2121.94	-0.245388
2122.18	1.65486
2122.43	-1.19048
2122.67	0.709559
2122.91	0.710714
2123.15	0.710973
2123.4	1.65887
2123.64	0.707569
2123.88	1.65361
2124.12	0.700036
2124.36	-0.254932
2124.61	1.63372
2124.85	0.678947
2125.09	0.673494
2125.33	1.61544
2125.58	-0.282717
2125.82	1.60613
2126.06	2.54863
2126.3	0.652805
2126.55	1.59496
2126.79	-0.299523
2127.03	2.53565
2127.27	-0.301759
2127.51	-0.302998
2127.76	1.5859
2128	2.53015
2128.24	1.58484
2128.48	3.4752
2128.72	0.638422
2128.97	2.52725
2129.21	1.58086
2129.45	0.634861
2129.69	0.633864
2129.93	2.52257
2130.18	3.46582
2130.42	3.46373
2130.66	1.57181
2130.9	0.62458
2131.14	-1.26689
2131.39	-0.324775
2131.63	2.50612
2131.87	-0.328497
2132.11	-1.27566
2132.35	-0.334599
2132.6	-0.336125
2132.84	0.607209
2133.08	-1.27967
2133.32	-1.27946
2133.56	0.607727
2133.81	-1.27913
2134.05	1.55208
2134.29	3.43882
2134.53	2.49427
2134.77	0.606062
2135.01	1.54852
2135.26	-0.340699
2135.5	-2.23049
2135.74	3.42321
2135.98	-0.353458
2136.22	0.587055
2136.47	1.53062
2136.71	-0.354882
2136.95	1.53076
2137.19	0.589584
2137.43	-0.350272
2137.67	0.590097
2137.91	1.52788
2138.16	2.46684
2138.4	2.47105
2138.64	0.590084
2138.88	-2.23681
2139.12	2.46792
2139.37	1.51997
2139.61	-1.31
2139.85	2.45598
2140.09	2.45339
2140.33	-0.374596
2140.57	1.50756
2140.81	1.50576
2141.06	2.4477
2141.3	3.38438
2141.54	-0.385432
2141.78	-1.32814
2142.02	2.4368
2142.26	1.49884
2142.51	2.44239
2142.75	4.34373
2142.99	0.56278
2143.23	1.45715
2143.47	0.525362
2143.71	2.40643
2143.95	2.41287
2144.19	-0.403422
2144.44	1.47998
2144.68	0.528193
2144.92	1.47092
2145.16	2.41109
2145.4	2.40938
2145.64	0.527087
2145.88	1.46527
2146.13	1.46338
2146.37	2.4014
2146.61	0.519385
2146.85	-1.36276
2147.09	0.513957
2147.33	-2.30683
2147.57	2.38797
2147.81	0.506872
2148.06	0.504427
2148.3	1.44075
2148.54	0.498635
2148.78	0.49475
2149.02	1.42844
2149.26	4.2354
2149.5	2.35461
2149.74	1.41181
2149.98	-1.40407
2150.22	0.468655
2150.47	0.467968
2150.71	2.34366
2150.95	2.34577
2151.19	2.34713
2151.43	1.41118
2151.67	0.474112
2151.91	2.35085
2152.15	2.34763
2152.4	-0.468683
2152.64	1.40299
2152.88	1.39977
2153.12	2.335
2153.36	0.458119
2153.6	-0.482405
2153.84	-0.486878
2154.08	-0.492869
2154.32	-0.499657
2154.56	-2.37777
2154.8	-0.513429
2155.05	0.416155
2155.29	5.08423
2155.53	-0.528188
2155.77	3.20559
2156.01	2.26893
2156.25	0.39915
2156.49	0.398055
2156.73	-1.47078
2156.97	2.26655
2157.21	0.399618
2157.45	1.33637
2157.69	-0.531453
2157.94	1.33774
2158.18	1.33678
2158.42	0.400481
2158.66	3.20201
2158.9	6.93663
2159.14	0.392013
2159.38	1.32205
2159.62	1.31711
2159.86	0.3786
2160.1	1.30778
2160.34	-0.562643
2160.58	-0.564848
2160.82	0.366578
2161.06	1.29722
2161.3	2.22789
2161.54	1.29361
2161.79	2.22567
2162.03	3.1578
2162.27	4.08944
2162.51	0.355372
2162.75	2.21788
2162.99	-0.582645
2163.23	3.14496
2163.47	3.14204
2163.71	1.2744
2163.95	0.337481
2164.19	-1.53095
2164.43	1.26117
2164.67	0.329857
2164.91	0.330138
2165.15	-0.602426
2165.39	-0.603112
2165.63	-0.603892
2165.87	-0.606835
2166.12	-2.47257
2166.35	0.318997
2166.6	1.24615
2166.84	0.311748
2167.08	2.16887
2167.32	-0.629441
2167.56	0.292298
2167.8	-0.645185
2168.04	2.14122
2168.28	1.21043
2168.52	1.21058
2168.76	0.282142
2169	2.14463
2169.24	1.21836
2169.48	0.292562
2169.72	-0.63358
2169.96	0.299642
2170.2	2.16227
2170.44	2.15975
2170.68	-1.5688
2170.92	3.0833
2171.16	-0.648028
2171.4	0.270978
2171.64	2.12377
2171.88	0.260783
2172.12	-0.672096
2172.36	0.254194
2172.6	2.11094
2172.84	-4.39395
2173.08	1.17945
2173.32	2.10887
2173.56	3.03924
2173.8	0.251704
2174.04	1.18068
2174.28	3.0386
2174.52	1.17856
2174.76	1.17706
2175	-2.54239
2175.24	0.243566
2175.48	1.17112
2175.72	-0.68926
2175.96	0.23733
2176.2	2.09193
2176.44	-0.696868
2176.68	-2.55575
2176.92	-2.55654
2177.16	0.229355
2177.4	4.87285
2177.64	-0.7017
2177.88	-0.704629
2178.12	0.219007
2178.36	0.215147
2178.6	0.213775
2178.84	1.14172
2179.08	-2.57317
2179.32	3.92533
2179.56	-1.64695
2179.8	-0.719748
2180.04	1.13552
2180.28	0.204851
2180.52	2.98786
2180.76	1.12945
2181	-0.729448
2181.24	1.12388
2181.48	0.193005
2181.72	-2.59326
2181.96	0.187593
2182.2	2.04061
2182.44	-0.745646
2182.68	1.10536
2182.92	-1.68169
2183.16	2.02135
2183.4	-2.61758
2183.63	-0.76747
2183.87	-1.69718
2184.11	-1.69894
2184.35	0.153638
2184.59	-0.772825
2184.83	0.153743
2185.07	-1.69987
2185.31	2.00843
2185.55	-0.771132
2185.79	-0.769912
2186.03	-1.6958
2186.27	3.87331
2186.51	1.09373
2186.75	2.02567
2186.99	-0.756404
2187.23	2.03154
2187.47	0.173161
2187.71	0.170031
2187.95	-0.762492
2188.18	-0.766658
2188.43	3.86956
2188.66	0.151886
2188.9	0.146307
2189.14	0.139719
2189.38	0.134597
2189.62	2.91224
2189.86	1.9836
2190.1	-0.798451
2190.34	2.91025
2190.58	0.128431
2190.82	1.05444
2191.06	2.90859
2191.3	1.98153
2191.54	0.126948
2191.78	1.98194
2192.01	1.05442
2192.25	0.126983
2192.49	1.9841
2192.73	1.98559
2192.97	1.05905
2193.21	-1.7236
2193.45	1.06785
2193.69	-1.71364
2193.93	0.148207
2194.17	0.14934
2194.41	0.146511
2194.64	2.93209
2194.88	-0.788948
2195.12	1.99507
2195.36	2.91887
2195.6	1.05455
2195.84	-1.73807
2196.08	1.96898
2196.32	-0.820385
2196.56	3.81437
2196.8	-3.61124
2197.04	3.80557
2197.27	2.87729
2197.51	0.0935783
2197.75	-1.76123
2197.99	1.02454
2198.23	-0.829097
2198.47	1.95929
2198.71	3.82147
2198.95	1.96738
2199.19	-0.816235
2199.42	-0.812922
2199.66	-1.73708
2199.9	0.130076
2200.14	1.06679
2200.38	1.07196
2200.62	3.87036
2200.86	1.07766
2201.1	1.06769
2201.34	1.97868
2201.58	0.0809526
2201.81	1.91403
2202.05	1.00065
2202.29	1.02748
2202.53	0.105858
2202.77	1.03015
2203.01	1.02519
2203.25	-1.74578
2203.49	0.15329
2203.72	1.0677
2203.96	1.99874
2204.2	-0.799557
2204.44	0.120317
2204.68	1.03615
2204.92	0.0915918
2205.16	3.80167
2205.39	0.078784
2205.63	0.0781164
2205.87	-0.849727
2206.11	0.0777082
2206.35	1.93083
2206.59	1.93063
2206.83	1.00192
2207.06	1.93354
2207.3	1.0054
2207.54	0.0769758
2207.78	0.0787535
2208.02	-0.850494
2208.26	0.0815678
2208.49	-0.848958
2208.73	2.87598
2208.97	-1.78107
2209.21	1.0113
2209.45	2.87191
2209.69	-1.78538
2209.93	1.00925
2210.17	1.01012
2210.4	-1.78406
2210.64	0.0803909
2210.88	1.0133
2211.12	1.01457
2211.36	-1.78062
2211.6	1.95114
2211.83	-1.77893
2212.07	0.085866
2212.31	-0.849596
2212.55	1.94536
2212.79	0.0770378
2213.02	2.86988
2213.26	1.00105
2213.5	1.00076
2213.74	1.93521
2213.98	-1.7905
2214.22	1.01239
2214.45	1.01256
2214.69	1.01237
2214.93	1.01183
2215.17	1.01097
2215.41	1.94343
2215.65	0.0745544
2215.88	0.0727129
2216.12	1.00432
2216.36	2.8691
2216.6	0.0661821
2216.84	0.064621
2217.07	1.93093
2217.31	0.0627699
2217.55	-0.872674
2217.79	-0.874373
2218.03	2.85959
2218.26	0.0585089
2218.5	-0.874821
2218.74	0.060359
2218.98	-1.807
2219.22	0.995936
2219.45	-0.872464
2219.69	2.86567
2219.93	0.994193
2220.17	0.991941
2220.41	-0.879365
2220.64	0.0517893
2220.88	0.0461617
2221.12	0.0404739
2221.36	-1.83201
2221.6	0.964531
2221.83	1.89448
2222.07	-0.907823
2222.31	0.958876
2222.55	2.82712
2222.78	1.89434
2223.02	0.0277548
2223.26	0.964214
2223.5	0.9675
2223.74	-0.898686
2223.97	0.974017
2224.21	0.976411
2224.45	-0.892691
2224.69	-0.891167
2224.93	0.0469007
2225.16	-0.88651
2225.4	0.987914
2225.64	0.989804
2225.88	0.0548582
2226.11	0.99253
2226.35	0.0573902
2226.59	0.996095
2226.83	0.997103
2227.07	1.93508
2227.3	0.0589619
2227.54	0.0567474
2227.78	-0.883823
2228.02	0.0510998
2228.25	-1.82674
2228.49	-2.76661
2228.73	2.85584
2228.96	0.979384
2229.2	-1.83211
2229.44	0.0457783
2229.68	0.986005
2229.92	-1.82776
2230.15	-1.82674
2230.39	-0.886867
2230.63	-0.885364
2230.87	0.994746
2231.1	0.0577669
2231.34	1.93818
2231.58	0.0605536
2231.82	-0.877984
2232.05	1.00356
2232.29	2.88562
2232.53	1.00649
2232.77	-0.873572
2233	1.00922
2233.24	1.95177
2233.48	-0.87106
2233.71	2.89414
2233.95	-0.873856
2234.19	-0.876714
2234.43	-0.880215
2234.66	2.87894
2234.9	-0.891744
2235.14	-0.896876
2235.38	-1.83819
2235.61	-1.83928
2235.85	-0.899684
2236.09	-1.84103
2236.33	0.97957
2236.56	-0.902265
2236.8	1.92231
2237.04	3.80675
2237.27	-0.894548
2237.51	0.993671
2237.75	-0.88626
2237.98	1.00109
2238.22	-0.88163
2238.46	1.00744
2238.7	1.01157
2238.93	-0.876221
2239.17	1.00739
2239.41	1.94671
2239.65	0.0537844
2239.88	0.0488214
2240.12	-2.78255
2240.36	-0.891197
2240.59	-0.888391
2240.83	-1.8326
2241.07	0.0538206
2241.3	-2.77753
2241.54	-1.83469
2241.78	-1.83503
2242.02	0.0526886
2242.25	0.997123
2242.49	-1.83666
2242.73	-0.894773
2242.96	0.989164
2243.2	2.87269
2243.44	-0.905003
2243.67	0.0366745
2243.91	0.979431
2244.15	0.0367231
2244.38	-2.79264
2244.62	-0.899713
2244.86	2.88365
2245.09	0.0506706
2245.33	0.997519
2245.57	-1.83721
2245.81	2.89277
2246.04	-1.83537
2246.28	-0.889715
2246.52	-4.67361
2246.75	1.95063
2246.99	0.0579224
2247.23	-0.889551
2247.46	0.0550308
2247.7	0.0525522
2247.94	-0.896365
2248.17	1.94002
2248.41	-1.84754
2248.65	0.0424805
2248.88	0.0403013
2249.12	0.0419273
2249.36	0.0419579
2249.59	0.0400276
2249.83	0.036273
2250.07	1.92391
2250.3	-0.919224
2250.54	0.0213394
2250.78	0.96264
2251.01	1.90416
2251.25	1.90182
2251.49	0.955628
2251.72	-1.88075
2251.96	-0.934375
2252.2	-0.932891
2252.43	-0.929502
2252.67	0.970888
2252.91	1.92247
2253.14	-0.916228
2253.38	1.92863
2253.61	0.034586
2253.85	0.0361357
2254.09	0.0365953
2254.32	0.983345
2254.56	-0.916175
2254.8	0.979656
2255.03	-0.918286
2255.27	-0.919168
2255.51	2.87297
2255.74	0.0296087
2255.98	-1.86622
2256.22	0.981071
2256.45	-0.91568
2256.69	2.88187
2256.92	-1.86309
2257.16	0.0364418
2257.4	-0.912954
2257.63	2.88476
2257.87	1.93443
2258.11	0.0347071
2258.34	1.93446
2258.58	0.985603
2258.81	3.83704
2259.05	0.986708
2259.29	-0.914001
2259.52	0.987172
2259.76	0.987444
2260	0.0369997
2260.23	0.98776
2260.47	0.0381136
2260.7	0.0419722
2260.94	-1.8592
2261.18	1.94562
2261.41	0.0422735
2261.65	0.993806
2261.88	-1.86128
2262.12	2.89861
2262.36	-0.907025
2262.59	0.0471821
2262.83	-1.85508
2263.06	0.0535574
2263.3	1.01097
2263.54	1.01624
2263.77	-0.886741
2264.01	-2.79166
2264.24	1.02897
2264.48	0.0767536
2264.72	1.98864
2264.95	2.94542
2265.19	-0.876253
2265.42	-0.877161
2265.66	1.98562
2265.9	-1.83961
2266.13	-0.889534
2266.37	-1.84909
2266.6	2.91813
2266.84	0.0512209
2267.08	0.0475092
2267.31	0.997418
2267.55	-0.914905
2267.78	1.94196
2268.02	1.93973
2268.26	-2.82849
2268.49	0.986774
2268.73	1.94301
2268.96	0.992326
2269.2	0.0413742
2269.43	-2.81929
2269.67	-2.81615
2269.91	-0.902739
2270.14	1.00985
2270.38	1.01088
2270.61	-0.898619
2270.85	1.01489
2271.08	1.01581
2271.32	1.97339
2271.55	1.01884
2271.79	1.01919
2272.03	-2.80836
2272.26	-3.76573
2272.5	-1.85277
2272.73	0.0605049
2272.97	-0.896774
2273.2	0.0597801
2273.44	1.97349
2273.68	1.01612
2273.91	-0.898567
2274.15	1.01541
2274.38	-0.899344
2274.62	0.0578508
2274.85	-0.899797
2275.09	-0.900184
2275.32	0.0558701
2275.56	0.0572023
2275.79	0.0598717
2276.03	-1.85354
2276.27	0.0649805
2276.5	-0.891413
2276.74	-0.889052
2276.97	-1.84426
2277.21	1.03821
2277.44	1.04385
2277.68	0.0892963
2277.91	-0.869887
2278.15	2.97184
2278.38	1.04997
2278.62	2.00865
2278.85	2.0063
2279.09	0.0811005
2279.33	-0.886644
2279.56	1.98638
2279.8	1.02131
2280.03	0.0573702
2280.27	-0.905544
2280.5	-2.82611
2280.74	1.00598
2280.97	-0.914194
2281.21	0.0421209
2281.44	0.0427847
2281.68	-1.87421
2281.91	-0.914357
2282.15	1.00564
2282.38	0.0493793
2282.62	2.9305
2282.85	-1.86357
2283.09	1.98164
2283.32	0.0678148
2283.56	1.03477
2283.79	0.0800247
2284.03	2.96823
2284.26	1.04609
2284.5	1.04914
2284.73	-0.87277
2284.97	-0.872534
2285.2	1.05146
2285.44	-0.877851
2285.67	-2.80753
2285.91	-3.77051
2286.14	2.00088
2286.38	2.96571
2286.61	-0.876537
2286.85	-2.79771
2287.08	2.01854
2287.32	-2.79578
2287.55	-0.866651
2287.79	0.0946732
2288.02	-1.83501
2288.26	-0.874856
2288.49	2.01018
2288.73	0.0785036
2288.96	-0.890382
2289.2	1.02728
2289.43	-1.86465
2289.67	2.93965
2289.9	3.89858
2290.14	1.01389
2290.37	0.052331
2290.61	1.97723
2290.84	0.0578527
2291.08	-0.899836
2291.31	0.0651512
2291.55	-0.895261
2291.78	-1.85604
2292.02	0.0718603
2292.25	-0.88814
2292.48	0.0778427
2292.72	0.0800123
2292.95	1.04539
2293.19	-1.84475
2293.42	1.0468
2293.66	-0.882725
2293.89	0.0785208
2294.13	0.0753546
2294.36	-0.891536
2294.6	-0.894251
2294.83	-1.86001
2295.07	1.98921
2295.3	1.98622
2295.54	1.98354
2295.77	0.053277
2296.01	-1.87743
2296.24	-0.916478
2296.47	1.97084
2296.71	-2.83857
2296.94	1.01341
2297.18	1.01682
2297.41	0.0583401
2297.65	1.02655
2297.88	1.02967
2298.11	1.03173
2298.35	1.03484
2298.58	1.03877
2298.82	1.042
2299.05	1.0446
2299.29	1.04561
2299.52	1.04511
2299.76	0.0800266
2299.99	2.00875
2300.23	2.0107
2300.46	2.01338
2300.69	1.05032
2300.93	2.98225
2301.16	-2.80832
2301.4	2.018
2301.63	2.01707
2301.87	2.0151
2302.1	1.04875
2302.33	-0.881416
2302.57	-0.882113
2302.8	-0.883128
2303.04	0.0814877
2303.27	-0.883432
2303.5	1.04838
2303.74	-0.879595
2303.97	0.0880709
2304.21	1.05536
2304.44	-2.80542
2304.68	1.06083
2304.91	0.0963869
2305.14	-2.80137
2305.38	2.03087
2305.61	0.100411
2305.85	-0.864342
2306.08	0.102782
2306.31	-2.79675
2306.55	0.102692
2306.78	0.102078
2307.02	-0.866003
2307.25	2.03115
2307.48	1.06357
2307.72	1.06188
2307.95	0.0945597
2308.19	0.0945158
2308.42	0.0954971
2308.65	2.03066
2308.89	-0.865671
2309.12	1.07193
2309.36	-0.856848
2309.59	2.04818
2309.82	-0.852224
2310.06	-0.851728
2310.29	-1.81952
2310.53	1.08087
2310.76	1.07679
2310.99	1.06651
2311.23	2.98812
2311.46	-2.81156
2311.7	0.0814495
2311.93	1.0444
2312.16	2.00662
2312.4	0.0748816
2312.63	-0.889812
2312.86	0.0773735
2313.1	1.04822
2313.33	0.0892487
2313.56	1.06028
2313.8	0.0993805
2314.03	1.07122
2314.27	1.07821
2314.5	0.116674
2314.73	1.08724
2314.97	-1.81915
2315.2	-0.855148
2315.43	0.108969
2315.67	-0.861557
2315.9	2.02807
2316.14	0.0925846
2316.37	3.95315
2316.6	1.05669
2316.84	-0.873113
2317.07	1.05961
2317.3	2.03104
2317.54	0.102233
2317.77	2.02808
2318	0.094923
2318.24	-2.8033
2318.47	0.0912809
2318.71	1.05438
2318.94	0.087429
2319.17	1.05131
2319.41	2.01566
2319.64	2.98144
2319.87	2.0177
2320.11	0.0882807
2320.34	2.02084
2320.57	0.0938568
2320.81	0.0972843
2321.04	2.99776
2321.27	-0.860477
2321.51	5.90724
2321.74	1.08297
2321.97	1.08814
2322.21	2.05721
2322.44	3.02372
2322.67	-0.841347
2322.91	1.09429
2323.14	-0.837626
2323.37	1.09825
2323.61	4.00062
2323.84	1.0997
2324.07	2.06677
2324.31	1.09632
2324.54	3.0247
2324.77	5.91686
2325.01	3.01558
2325.24	-0.849617
2325.47	6.87185
2325.71	5.90294
2325.94	7.82931
2326.17	9.75485
2326.41	13.6089
2326.64	19.3899
2326.87	22.2757
2327.1	35.7682
2327.34	52.1468
2327.57	71.4166
2327.8	105.159
2328.04	110.943
2328.27	85.8874
2328.5	59.8469
2328.74	35.7464
2328.97	21.2849
2329.2	15.5043
2329.44	12.6149
2329.67	9.73063
2329.9	9.72961
2330.13	6.83959
2330.37	4.91274
2330.6	5.87649
2330.83	2.99032
2331.07	0.104914
2331.3	2.99918
2331.53	3.00537
2331.77	2.03739
2332	2.99877
2332.23	2.99752
2332.47	1.07062
2332.7	0.1071
2332.93	-1.81872
2333.16	0.106396
2333.4	-0.855998
2333.63	1.0681
2333.86	0.104646
2334.09	4.91158
2334.33	-1.82222
2334.56	0.101379
2334.79	2.02592
2335.02	0.103314
2335.26	1.06743
2335.49	1.07038
2335.72	1.07143
2335.96	2.03292
2336.19	-2.7741
2336.42	0.11164
2336.66	-0.84863
2336.89	0.113859
2337.12	0.115052
2337.35	1.07682
2337.59	2.0388
2337.82	2.03993
2338.05	-0.842524
2338.28	0.120126
2338.52	-0.838421
2338.75	1.08633
2338.98	-2.75661
2339.21	-0.832682
2339.45	1.09029
2339.68	-0.83176
2339.91	-1.79311
2340.14	2.04923
2340.38	-0.834062
2340.61	1.08417
2340.84	3.00053
2341.07	-0.842507
2341.31	-0.844545
2341.54	-0.844963
2341.77	-0.845262
2342	2.031
2342.24	-0.844664
2342.47	1.07399
2342.7	2.99319
2342.93	0.119925
2343.17	1.08003
2343.4	0.123181
2343.63	-2.74981
2343.86	3.0053
2344.1	1.09103
2344.33	1.09291
2344.56	-1.78147
2344.79	-0.822038
2345.02	0.136278
2345.26	0.134537
2345.49	3.00793
2345.72	-3.69706
2345.95	-0.822294
2346.19	2.05229
2346.42	-3.69133
2346.65	0.140115
2346.88	0.141556
2347.12	0.143991
2347.35	3.01936
2347.58	-0.816911
2347.81	1.10243
2348.04	1.07559
2348.28	1.04784
2348.51	1.93966
2348.74	1.0513
2348.97	-1.62083
2349.2	-1.6034
2349.44	0.891034
2349.67	0.0187054
2349.9	0.873987
2350.13	1.75121
2350.37	0.611092
2350.6	1.84188
2350.83	0.977647
2351.06	-0.344373
2351.29	0.0758324
2351.53	-0.321779
2351.76	0.0379276
2351.99	-0.278527
2352.22	1.31469
2352.45	0.940572
2352.69	0.751101
2352.92	-0.833786
2353.15	-0.930932
2353.38	0.97438
2353.61	-0.667108
2353.85	0.931856
2354.08	1.42851
2354.31	-1.416
2354.54	0.0394964
2354.77	-1.50138
2355.01	-0.398842
2355.24	2.7364
2355.47	-1.59285
2355.7	-0.329812
2355.93	-0.880365
2356.17	-1.38129
2356.4	-0.880865
2356.63	-1.33505
2356.86	0.851433
2357.09	0.398671
2357.32	-0.475355
2357.56	-0.149447
2357.79	0.546835
2358.02	0.663765
2358.25	-0.754305
2358.48	-0.524489
2358.71	-0.432428
2358.95	0.347988
2359.18	1.55351
2359.41	0.342086
2359.64	-1.98745
2359.87	0.019249
2360.1	-1.63605
2360.34	-1.00097
2360.57	0.764364
2360.8	0.84762
2361.03	-1.64524
2361.26	0.231195
2361.49	1.03261
2361.73	-0.0227547
2361.96	0.514034
2362.19	-0.0792971
2362.42	0.479939
2362.65	0.471122
2362.88	-0.0765676
2363.11	0.714416
2363.35	1.52313
2363.58	1.90349
2363.81	0.257721
2364.04	1.30744
2364.27	0.696338
2364.5	-2.2471
2364.73	-0.646308
2364.97	0.282212
2365.2	-1.10448
2365.43	2.08418
2365.66	1.28829
2365.89	0.494531
2366.12	-1.74189
2366.36	-1.08764
2366.59	0.993926
2366.82	-0.00932503
2367.05	-0.608745
2367.28	-1.25225
2367.51	-0.237154
2367.74	1.41231
2367.97	2.104
2368.2	2.62362
2368.44	-0.717099
2368.67	-2.51896
2368.9	-1.34895
2368.98	-0.673831
2369.22	1.21503
2369.45	0.27275
2369.69	1.2169
2369.92	0.27492
2370.15	1.21915
2370.39	0.278829
2370.62	1.22314
2370.86	-1.60099
2371.09	0.286312
2371.33	0.289926
2371.56	-2.53183
2371.79	0.295936
2372.03	2.18169
2372.26	-1.58115
2372.5	1.2456
2372.73	0.308355
2372.97	-0.628036
2373.2	2.19947
2373.43	2.20217
2373.67	1.26306
2373.9	1.26551
2374.14	1.26834
2374.37	-3.42941
2374.6	0.333787
2374.84	0.336071
2375.07	0.338664
2375.31	-0.596834
2375.54	0.347201
2375.77	-0.587303
2376.01	1.29565
2376.24	-0.57982
2376.48	0.362455
2376.71	-2.44946
2376.94	3.18772
2377.18	-2.43987
2377.41	-1.49759
2377.65	-0.556224
2377.88	-2.42857
2378.11	-1.48709
2378.35	-0.545997
2378.58	-0.542885
2378.82	1.33411
2379.05	-2.41335
2379.28	-1.47478
2379.52	-0.535096
2379.75	-0.530477
2379.98	0.410913
2380.22	-1.45638
2380.45	-1.45088
2380.69	-1.44509
2380.92	2.30535
2381.15	2.31204
2381.39	0.447115
2381.62	-0.482622
2381.85	0.458792
2382.09	-0.471018
2382.32	-1.40105
2382.56	1.41196
2382.79	-0.454165
2383.02	0.48784
2383.26	2.36551
2383.49	0.500373
2383.72	0.507078
2383.96	-0.421615
2384.19	-1.35092
2384.42	0.526299
2384.66	-1.3389
2384.89	-0.398521
2385.13	0.541326
2385.36	1.48049
2385.59	1.4831
2385.83	2.42032
2386.06	1.48919
2386.29	7.09556
2386.53	1.49322
2386.76	-3.17151
2386.99	-2.23513
2387.23	2.43336
2387.46	-1.2919
2387.69	2.44715
2387.93	2.45474
2388.16	0.596113
2388.4	-0.330074
2388.63	-0.323862
2388.86	1.54725
2389.1	2.48708
2389.33	-0.303658
2389.56	2.50079
2389.8	3.44063
2390.03	-1.21402
2390.26	0.659225
2390.5	0.667998
2390.73	1.60958
2390.96	-1.1798
2391.2	2.5593
2391.43	2.56676
2391.66	0.708393
2391.9	1.64758
2392.13	-0.210783
2392.36	-0.204495
2392.59	-1.13383
2392.83	-0.1989
2393.06	1.66663
2393.3	-2.98652
2393.53	-0.18931
2393.76	0.746694
2394	-1.10701
2394.23	-1.1022
2394.46	0.76239
2394.69	0.771918
2394.93	1.71331
2395.16	-0.13322
2395.39	-1.96078
2395.63	-0.0849209
2395.86	-1.0094
2396.09	1.80884
2396.33	-0.0419512
2396.56	1.82166
2396.79	-0.971088
2397.02	-0.0306568
2397.26	0.910771
2397.49	1.85276
2397.73	2.79453
2397.96	0.937409
2398.19	1.8784
2398.42	2.81988
2398.66	0.031023
2398.89	0.972382
2399.12	0.0497131
2399.36	0.0591135
2399.59	1.00118
2399.82	0.0777092
