#Acq. time (s)=	30
#Accumulations=	2
#Range (cm-¹)=	1200...2365
#Windows=	3
#Auto scanning=	Off
#Autofocus=	Off
#Macrospot=	Off
#AutoExposure=	Off
#Spike filter=	Multiple accum.
#Delay time (s)=	2
#Binning=	1
#Readout mode=	Signal
#DeNoise=	Off
#ICS correction=	On
#Dark correction=	Off
#Inst. Process=	Off
#Detector Gain=	Best Dynamic
#Detector ADC=	50 kHz HS
#Detector temperature (°C)=	-60.09
#Instrument=	LabRAM HR Evol
#Detector=	SIN-EM FIVIS
#Objective=	x100_VIS_LWD
#Grating=	1800 (450-850nm)
#ND Filter=	100%
#Laser=	532nm_Edge
#Hole=	49.98
#Temperature=	0
#Range=	Visible
#StageXY=	75x50mm Scan+
#StageZ=	Z motor
#X (µm)=	0
#Y (µm)=	0
#Z (µm)=	64.1
#Full time(mm:ss)=	3:19
#Project=	21_11_22
#Sample=	BU19w
#Site=	
#Title=	BU19w-D-FF2-FI10-V_1800 (450-850nm)_532nm_Edge_100%_x100_VIS_LWD_H50um_30sX2
#Remark=	
#Date=	22.11.2021 13:57
#Acquired=	22.11.2021 13:57:50
#Base:Fit=	16.12.2021 17:39:50
#Base:Fit=	16.12.2021 17:41:01
#Base:Sub=	16.12.2021 17:41:02
1202.84	3.62702
1203.12	3.63131
1203.4	-0.653976
1203.67	-0.647083
1203.95	2.57444
1204.23	0.441147
1204.51	-4.896
1204.78	-1.66354
1205.06	-6.99276
1205.34	2.66253
1205.62	6.9576
1205.9	2.6934
1206.17	4.84881
1206.45	-3.68163
1206.73	3.83174
1207.01	2.78966
1207.29	0.672619
1207.56	1.75026
1207.84	-1.44644
1208.12	-1.43383
1208.39	-0.355946
1208.67	-1.40967
1208.95	-3.53332
1209.23	-4.58958
1209.51	2.8865
1209.78	3.96518
1210.06	-1.34866
1210.34	2.92933
1210.62	-2.37276
1210.89	5.09798
1211.17	-2.32344
1211.45	5.16093
1211.72	-0.131741
1212	-3.29626
1212.28	-1.1396
1212.56	1.01606
1212.84	1.04173
1213.11	-1.07164
1213.39	1.06598
1213.67	2.13305
1213.94	1.07442
1214.22	2.14767
1214.5	-4.21465
1214.78	6.41845
1215.05	4.30835
1215.33	1.13849
1215.61	-5.21424
1215.89	-0.948116
1216.16	7.56511
1216.44	-5.14534
1216.72	-1.94033
1216.99	3.37983
1217.27	-1.89853
1217.55	-0.809483
1217.83	0.27536
1218.1	3.47972
1218.38	2.43543
1218.66	0.332653
1218.93	1.40408
1219.21	-1.76917
1219.49	0.351192
1219.77	1.40836
1220.04	-4.94061
1220.32	0.350674
1220.6	-2.81861
1220.88	-7.03661
1221.15	-0.690548
1221.43	-3.84648
1221.71	1.44889
1221.98	1.46641
1222.26	0.434769
1222.54	-0.589443
1222.81	0.499405
1223.09	-1.57942
1223.37	-2.61068
1223.64	1.63464
1223.92	3.76206
1224.2	3.77742
1224.48	6.94059
1224.75	-0.468117
1225.03	0.574318
1225.31	3.72572
1225.58	3.69802
1225.86	0.523762
1226.14	-2.61275
1226.41	0.684479
1226.69	4.00151
1226.97	0.828175
1227.24	6.06758
1227.52	2.90627
1227.8	9.25756
1228.07	12.4146
1228.35	4.94516
1228.63	11.2799
1228.9	14.4569
1229.18	10.2773
1229.46	8.19238
1229.73	13.4693
1230.01	19.7944
1230.29	16.6599
1230.56	18.783
1230.84	12.5086
1231.12	16.742
1231.39	25.1791
1231.67	27.3167
1231.95	24.2034
1232.22	33.6945
1232.5	29.5222
1232.78	30.609
1233.05	34.8475
1233.33	32.7694
1233.61	31.7324
1233.88	36.9993
1234.16	37.0059
1234.43	32.7976
1234.71	29.6402
1234.99	31.7344
1235.26	32.7774
1235.54	27.5246
1235.82	21.2321
1236.09	25.4373
1236.37	24.4022
1236.65	25.4664
1236.92	15.0029
1237.2	15.025
1237.47	14.0007
1237.75	12.9787
1238.03	10.91
1238.3	15.1305
1238.58	3.61998
1238.85	9.92198
1239.13	7.8424
1239.41	3.67504
1239.68	13.1355
1239.96	11.0714
1240.24	6.91331
1240.51	3.79301
1240.79	6.96169
1241.06	13.2801
1241.34	8.06342
1241.62	7.03551
1241.89	8.10267
1242.17	3.92309
1242.45	3.93269
1242.72	10.2224
1243	8.13045
1243.27	6.05062
1243.55	10.2575
1243.83	8.18773
1244.1	-0.161873
1244.38	10.3248
1244.65	8.25391
1244.93	9.31946
1245.2	11.4154
1245.48	8.28653
1245.76	10.3991
1246.03	9.38071
1246.31	15.686
1246.59	14.6616
1246.86	14.683
1247.14	15.754
1247.41	11.5839
1247.69	18.9096
1247.96	15.782
1248.24	19.9727
1248.51	26.2531
1248.79	23.1301
1249.07	22.0965
1249.34	20.0188
1249.62	24.206
1249.89	23.1707
1250.17	21.0933
1250.45	20.0663
1250.72	21.1339
1251	28.4747
1251.27	28.5145
1251.55	29.6008
1251.82	24.4135
1252.1	24.4391
1252.38	26.5581
1252.65	24.4951
1252.93	23.4721
1253.2	24.544
1253.48	27.7076
1253.75	23.5667
1254.03	18.3735
1254.3	21.5294
1254.58	24.6767
1254.86	21.5618
1255.13	16.3602
1255.41	16.3795
1255.68	14.3104
1255.96	11.1867
1256.23	20.6018
1256.51	14.3734
1256.78	15.4476
1257.06	14.4642
1257.33	13.4273
1257.61	13.4381
1257.88	7.17721
1258.16	10.3171
1258.44	6.15923
1258.71	14.5307
1258.99	5.21714
1259.26	14.721
1259.54	6.44903
1259.81	9.50634
1260.09	11.5444
1260.36	8.39355
1260.64	11.6118
1260.91	6.46473
1261.19	10.7226
1261.46	9.75103
1261.74	7.64322
1262.01	4.51603
1262.29	9.76653
1262.56	9.7895
1262.84	5.62245
1263.11	16.0958
1263.39	10.9013
1263.66	13.025
1263.94	14.1079
1264.21	9.96686
1264.49	15.2381
1264.76	10.0529
1265.04	13.238
1265.31	9.10434
1265.59	0.776451
1265.86	6.05056
1266.14	8.18148
1266.41	13.4542
1266.69	3.00108
1266.96	3.01543
1267.24	10.3559
1267.51	6.17973
1267.79	10.3793
1268.06	6.20765
1268.34	8.32214
1268.61	7.29475
1268.89	7.3233
1269.16	14.6886
1269.44	4.2644
1269.71	9.54758
1269.99	6.44835
1270.26	14.8728
1270.54	7.57976
1270.81	7.62181
1271.09	6.61533
1271.36	7.70086
1271.64	6.68211
1271.91	9.85366
1272.18	13.0266
1272.46	6.76539
1272.74	4.70283
1273.01	8.93645
1273.28	3.72915
1273.56	9.01533
1273.83	11.1535
1274.11	13.2895
1274.38	10.18
1274.66	8.12052
1274.93	8.16168
1275.21	6.09808
1275.48	12.4432
1275.76	8.28214
1276.03	10.4222
1276.3	8.35681
1276.58	4.17282
1276.85	15.7664
1277.13	12.6296
1277.4	12.6529
1277.68	8.47797
1277.95	8.50923
1278.23	10.6547
1278.5	12.8071
1278.77	7.58141
1279.05	8.65904
1279.32	11.8489
1279.6	12.9383
1279.87	10.8513
1280.15	8.74849
1280.42	9.7718
1280.69	10.8228
1280.97	8.75056
1281.24	20.3468
1281.52	12.1159
1281.79	6.88584
1282.07	24.831
1282.34	24.8216
1282.61	35.3481
1282.89	50.1132
1283.16	76.4904
1283.44	110.224
1283.71	143.908
1283.99	190.26
1284.26	179.747
1284.53	128.162
1284.81	92.3729
1285.08	43.9741
1285.36	26.11
1285.63	16.6681
1285.9	18.8047
1286.18	9.36864
1286.45	9.40701
1286.73	13.6573
1287	2.1129
1287.28	6.3639
1287.55	4.28609
1287.82	11.6808
1288.1	2.22537
1288.37	6.46516
1288.64	4.38581
1288.92	8.62463
1289.19	3.38609
1289.47	1.31086
1289.74	-3.92916
1290.01	2.41322
1290.29	-0.716747
1290.56	0.37854
1290.84	2.53513
1291.11	2.58487
1291.38	-6.86887
1291.66	-1.56875
1291.93	-0.488804
1292.21	-2.56391
1292.48	4.86816
1292.75	-0.352848
1293.03	0.765068
1293.3	0.817081
1293.57	6.13646
1293.85	2.99511
1294.12	-0.152313
1294.4	-4.35957
1294.67	4.11172
1294.94	4.12774
1295.22	7.31015
1295.49	5.2292
1295.76	-2.13688
1296.04	1.05109
1296.31	0.0164375
1296.58	4.25911
1296.86	0.0633354
1297.13	2.21035
1297.4	2.24453
1297.68	-5.11683
1297.95	0.188763
1298.22	1.27083
1298.5	3.41248
1298.77	3.44881
1299.04	6.65376
1299.32	1.40582
1299.59	-1.73334
1299.87	-1.70549
1300.14	1.48861
1300.41	-0.600857
1300.69	-1.63679
1300.96	-7.94674
1301.23	-4.75001
1301.51	3.72589
1301.78	-1.52625
1302.05	0.608559
1302.33	-5.70555
1302.6	2.75659
1302.87	0.662971
1303.15	-1.43066
1303.42	-3.52168
1303.69	3.88426
1303.97	1.80251
1304.24	-5.54766
1304.51	2.92009
1304.79	-1.2714
1305.06	1.91997
1305.33	4.06142
1305.6	4.08574
1305.88	-1.15786
1306.15	0.987778
1306.42	-3.19759
1306.7	1.05834
1306.97	-1.01898
1307.24	0.0635834
1307.52	-0.966839
1307.79	-0.938992
1308.06	-0.908993
1308.34	1.23259
1308.61	2.31831
1308.88	2.35002
1309.15	-3.94742
1309.43	1.36668
1309.7	0.342758
1309.97	7.76137
1310.25	-1.72134
1310.52	-2.75113
1310.79	1.4958
1311.06	3.63106
1311.34	-0.563332
1311.61	6.85618
1311.88	-1.55609
1312.16	-6.80134
1312.43	0.62307
1312.7	4.88159
1312.98	2.80421
1313.25	2.83111
1313.52	-4.53706
1313.79	-5.56696
1314.07	1.85219
1314.34	-1.2883
1314.61	0.858009
1314.89	-3.33435
1315.16	-2.24716
1315.43	2.00857
1315.7	-1.13172
1315.98	2.06582
1316.25	-0.0204697
1316.52	0.00571442
1316.79	5.31358
1317.07	6.40085
1317.34	1.14762
1317.61	3.28601
1317.88	-1.97432
1318.16	-0.900105
1318.43	0.170837
1318.7	3.34962
1318.97	3.36857
1319.25	0.216949
1319.52	-2.92622
1319.79	3.42318
1320.06	-1.82846
1320.34	4.51441
1320.61	2.43957
1320.88	1.41497
1321.16	-2.77399
1321.43	-3.80257
1321.7	-0.610565
1321.97	-2.69413
1322.25	2.61053
1322.52	0.518093
1322.79	-3.69033
1323.06	0.527039
1323.33	-2.63834
1323.61	-3.67665
1323.88	-0.498184
1324.15	-1.51072
1324.42	2.76036
1324.7	-0.355343
1324.97	-2.41974
1325.24	-0.267403
1325.51	-0.222012
1325.79	-1.23454
1326.06	3.01972
1326.33	4.0935
1326.6	3.07197
1326.87	2.04235
1327.15	1.01083
1327.42	-1.07751
1327.69	3.16013
1327.96	0.0127029
1328.23	2.13461
1328.51	3.19754
1328.78	-3.1166
1329.05	0.0536575
1329.32	0.0679169
1329.6	2.18576
1329.87	-4.115
1330.14	0.1031
1330.41	2.2173
1330.68	2.22943
1330.96	1.19207
1331.23	3.30631
1331.5	7.5202
1331.77	-5.06313
1332.04	-3.9956
1332.32	1.26974
1332.59	-0.810783
1332.86	0.25684
1333.13	1.32451
1333.4	4.48976
1333.67	0.315571
1333.95	-0.711639
1334.22	0.358727
1334.49	4.57385
1334.76	-1.69337
1335.03	0.418808
1335.3	0.433743
1335.58	3.59542
1335.85	5.70843
1336.12	0.492855
1336.39	1.56447
1336.66	-2.59654
1336.94	4.76218
1337.21	-4.63538
1337.48	3.76981
1337.75	2.75045
1338.02	-0.366085
1338.29	0.705067
1338.57	1.77499
1338.84	-0.298248
1339.11	1.81441
1339.38	-2.3562
1339.65	6.02974
1339.93	0.811527
1340.2	3.96802
1340.47	-0.193741
1340.74	-2.26157
1341.01	2.99266
1341.28	0.927166
1341.55	1.99863
1341.82	4.11185
1342.1	0.992767
1342.37	2.05373
1342.64	-3.16049
1342.91	1.03318
1343.18	4.17699
1343.45	1.04702
1343.73	2.10019
1344	4.19807
1344.27	-3.09269
1344.54	-4.12193
1344.81	3.19266
1345.08	4.25365
1345.35	4.27414
1345.63	6.37991
1345.9	-1.93892
1346.17	-0.880016
1346.44	3.30286
1346.71	1.23592
1346.98	2.29366
1347.25	4.39223
1347.52	1.2853
1347.8	3.38035
1348.07	1.31215
1348.34	3.40923
1348.61	4.46178
1348.88	6.5613
1349.15	-0.694508
1349.42	2.45396
1349.69	2.4876
1349.96	1.48566
1350.24	0.474503
1350.51	-0.507507
1350.78	-2.52189
1351.05	3.71761
1351.32	0.549126
1351.59	5.71714
1351.86	4.70725
1352.13	2.65887
1352.41	1.62852
1352.68	3.71833
1352.95	-0.399342
1353.22	4.82643
1353.49	11.0714
1353.76	2.77991
1354.03	4.87656
1354.3	1.77983
1354.57	4.91261
1354.84	0.775646
1355.11	3.90554
1355.39	4.95813
1355.66	4.97306
1355.93	3.94927
1356.2	11.2239
1356.47	-0.169453
1356.74	5.03301
1357.01	8.15478
1357.28	-0.129345
1357.55	5.06236
1357.82	3.00353
1358.09	-2.15724
1358.36	5.11544
1358.63	4.10072
1358.9	6.19209
1359.18	5.17359
1359.45	8.2972
1359.72	7.27925
1359.99	4.19329
1360.26	4.21811
1360.53	10.4615
1360.8	4.27649
1361.07	8.44778
1361.34	2.25501
1361.61	2.27407
1361.88	2.29151
1362.15	7.48345
1362.42	7.49439
1362.69	9.57452
1362.97	5.4451
1363.24	7.52531
1363.51	7.53517
1363.78	8.57671
1364.05	1.34486
1364.32	4.45916
1364.59	8.60972
1364.86	18.972
1365.13	7.6287
1365.4	6.61932
1365.67	9.74488
1365.94	9.76917
1366.21	6.69276
1366.48	16.0232
1366.75	7.76712
1367.02	11.9173
1367.29	11.9321
1367.56	8.83952
1367.83	8.85291
1368.1	14.03
1368.37	15.0684
1368.64	16.1027
1368.91	18.1648
1369.18	23.3206
1369.45	20.2242
1369.72	16.1035
1369.99	7.86668
1370.26	17.1566
1370.54	13.047
1370.81	14.0919
1371.08	15.1376
1371.34	17.214
1371.62	12.0789
1371.89	17.2456
1372.16	10.0476
1372.43	16.2492
1372.7	15.2463
1372.97	18.3552
1373.24	14.2582
1373.51	20.444
1373.78	13.2404
1374.05	20.4483
1374.32	19.41
1374.59	26.6399
1374.86	21.529
1375.13	22.6021
1375.4	30.894
1375.67	35.0792
1375.94	28.9265
1376.21	35.1296
1376.48	31.015
1376.75	39.2697
1377.02	32.0591
1377.29	29.9898
1377.56	34.0653
1377.83	42.2803
1378.09	36.0914
1378.36	41.269
1378.64	43.3246
1378.91	43.3042
1379.18	42.2527
1379.44	56.6122
1379.71	57.622
1379.98	54.5226
1380.25	59.6438
1380.52	57.5799
1380.79	60.6568
1381.06	56.5573
1381.33	60.6793
1381.6	59.6795
1381.87	64.8429
1382.14	51.5522
1382.41	67.0004
1382.68	66.0199
1382.95	58.876
1383.22	55.8246
1383.49	59.9711
1383.76	59.9986
1384.03	57.9616
1384.3	50.7309
1384.57	63.889
1384.84	57.5886
1385.11	59.5726
1385.38	63.791
1385.65	63.9744
1385.92	63.0937
1386.19	81.6678
1386.45	116.599
1386.72	184.418
1386.99	298.322
1387.26	416.062
1387.53	395.348
1387.8	247.73
1388.07	135.897
1388.34	83.6275
1388.61	54.9403
1388.88	46.7388
1389.15	38.5377
1389.42	34.4394
1389.69	27.275
1389.96	28.3052
1390.23	24.2184
1390.49	17.0627
1390.76	29.3544
1391.03	21.1773
1391.3	20.1651
1391.57	16.0838
1391.84	22.2359
1392.11	13.0473
1392.38	16.142
1392.65	21.2821
1392.92	20.2771
1393.19	12.1015
1393.46	13.1359
1393.73	12.1212
1393.99	15.1992
1394.26	14.1808
1394.53	17.2541
1394.8	14.1943
1395.07	15.2308
1395.34	10.1344
1395.61	12.2005
1395.88	7.10357
1396.15	14.2824
1396.42	9.18876
1396.68	17.3961
1396.95	15.3688
1397.22	16.4064
1397.49	7.21473
1397.76	13.3836
1398.03	3.16404
1398.3	6.24891
1398.57	11.3883
1398.84	8.3297
1399.11	9.38281
1399.38	11.4735
1399.64	6.39011
1399.91	12.5815
1400.18	13.6387
1400.45	7.50124
1400.72	9.56905
1400.99	10.5997
1401.26	6.48029
1401.53	8.55139
1401.79	13.6902
1402.06	8.56799
1402.33	7.54679
1402.6	11.6526
1402.87	3.45393
1403.14	4.4845
1403.41	8.59249
1403.68	5.52591
1403.94	9.64025
1404.21	9.65619
1404.48	11.7232
1404.75	9.68819
1405.02	12.7793
1405.29	4.59169
1405.56	10.7588
1405.82	5.64705
1406.09	7.71439
1406.36	9.78151
1406.63	9.79741
1406.9	10.8379
1407.17	6.74728
1407.44	18.0322
1407.7	12.9014
1407.97	9.82123
1408.24	25.1932
1408.51	21.0948
1408.78	29.294
1409.05	27.2529
1409.31	24.1993
1409.58	17.0535
1409.85	12.9949
1410.12	12.0429
1410.39	6.95394
1410.66	7.96083
1410.92	5.85179
1411.19	6.89616
1411.46	4.88522
1411.73	7.9996
1412	0.820114
1412.27	10.0723
1412.53	7.0029
1412.8	5.9878
1413.07	-0.158939
1413.34	6.01629
1413.61	1.92294
1413.88	5.01873
1414.14	6.06129
1414.41	-2.14207
1414.68	8.14672
1414.95	4.04944
1415.22	0.977417
1415.48	4.07153
1415.75	6.13903
1416.02	4.09362
1416.29	2.04908
1416.56	1.0269
1416.82	2.05644
1417.09	2.05744
1417.36	4.11328
1417.63	1.03322
1417.9	2.06033
1418.17	5.14105
1418.43	4.11928
1418.7	4.13041
1418.97	3.12328
1419.24	3.14712
1419.5	3.16939
1419.77	4.22854
1420.04	0.157635
1420.31	3.29186
1420.58	3.21978
1420.84	10.2931
1421.11	6.22158
1421.38	2.08825
1421.65	3.11521
1421.92	3.13984
1422.18	2.14554
1422.45	4.21967
1422.72	6.26577
1422.99	5.26671
1423.26	3.21982
1423.52	2.19518
1423.79	3.21772
1424.06	5.26435
1424.33	3.20943
1424.59	5.24947
1424.86	3.19343
1425.13	-0.901848
1425.4	4.22222
1425.66	9.34957
1425.93	6.28782
1426.2	3.22673
1426.47	2.21463
1426.73	1.20374
1427	3.26846
1427.27	9.43548
1427.54	-1.82221
1427.81	4.3475
1428.07	5.39887
1428.34	1.31708
1428.61	2.35753
1428.88	1.33857
1429.14	2.36462
1429.41	4.41338
1429.68	5.43883
1429.94	1.33062
1430.21	-0.728439
1430.48	8.48456
1430.75	2.32602
1431.02	5.39386
1431.28	2.32325
1431.55	2.34627
1431.82	4.41224
1432.08	3.39537
1432.35	8.52541
1432.62	3.40675
1432.89	3.41067
1433.15	0.340015
1433.42	4.44125
1433.69	6.49194
1433.96	7.51755
1434.22	5.47049
1434.49	0.353188
1434.76	4.45128
1435.02	2.40593
1435.29	3.43717
1435.56	-3.72156
1435.83	7.5557
1436.09	4.4891
1436.36	0.398354
1436.63	-2.66488
1436.89	1.44771
1437.16	4.53947
1437.43	-1.60188
1437.7	-1.59468
1437.96	-2.61465
1438.23	2.51949
1438.5	1.49594
1438.77	0.468739
1439.03	3.54502
1439.3	9.71011
1439.57	3.56342
1439.83	2.55073
1440.1	3.57589
1440.37	1.52219
1440.63	2.54575
1440.9	2.5456
1441.17	0.497696
1441.43	3.57896
1441.7	-0.506626
1441.97	-0.493725
1442.24	-0.476509
1442.5	2.60206
1442.77	-1.50164
1443.03	1.57629
1443.3	1.57653
1443.57	1.57708
1443.84	3.62863
1444.1	5.67989
1444.37	-0.473499
1444.64	-0.475018
1444.9	1.57461
1445.17	2.60229
1445.44	-0.463642
1445.7	3.65094
1445.97	2.63119
1446.24	1.60823
1446.5	3.65912
1446.77	-2.49606
1447.04	1.60215
1447.3	1.59815
1447.57	0.572426
1447.84	1.59707
1448.1	1.59656
1448.37	4.67028
1448.64	-3.52928
1448.9	-0.456352
1449.17	1.59224
1449.44	1.5928
1449.7	3.64474
1449.97	-0.449429
1450.24	5.70538
1450.5	4.68728
1450.77	0.590809
1451.04	1.61496
1451.3	2.63937
1451.57	0.591915
1451.83	5.71763
1452.1	3.66907
1452.37	3.66806
1452.63	-1.45307
1452.9	0.604908
1453.17	3.68545
1453.43	-2.46242
1453.7	-2.46361
1453.97	7.77902
1454.23	4.69922
1454.5	1.624
1454.77	1.62282
1455.03	1.62239
1455.3	0.599586
1455.56	3.67493
1455.83	2.65411
1456.1	-1.44075
1456.36	2.65988
1456.63	-0.411716
1456.9	0.612526
1457.16	6.75805
1457.43	1.63363
1457.69	1.63126
1457.96	-2.46914
1458.23	-2.47303
1458.49	-0.428917
1458.76	-4.52907
1459.02	2.63177
1459.29	0.577927
1459.56	0.570621
1459.82	2.60897
1460.09	3.62292
1460.36	3.61333
1460.62	2.58223
1460.89	-2.53149
1461.15	5.6605
1461.42	2.61218
1461.69	4.67429
1461.95	3.66992
1462.22	3.64582
1462.48	1.52281
1462.75	-3.61414
1463.02	-0.558304
1463.28	-2.58765
1463.55	5.57604
1463.81	0.455177
1464.08	0.44825
1464.35	-1.58806
1464.61	-1.59063
1464.88	1.46675
1465.14	0.444473
1465.41	-0.576683
1465.67	-1.59797
1465.94	3.49947
1466.21	1.4551
1466.47	2.46948
1466.74	-1.61705
1467	-0.607082
1467.27	2.44238
1467.54	1.41695
1467.8	1.41152
1468.07	2.42646
1468.33	1.40171
1468.6	1.39296
1468.86	-1.66872
1469.13	-4.72734
1469.39	-1.6749
1469.66	-5.74991
1469.93	3.4119
1470.19	-1.68288
1470.46	-0.671246
1470.72	-1.69606
1470.99	-1.70177
1471.25	-1.70583
1471.52	-1.7074
1471.79	2.3653
1472.05	-3.74001
1472.32	-0.687443
1472.58	-1.70778
1472.85	-2.7302
1473.11	3.36905
1473.38	-1.7242
1473.64	4.37545
1473.91	-0.71904
1474.17	-0.727001
1474.44	1.30193
1474.71	1.29871
1474.97	-1.75491
1475.24	6.37396
1475.5	2.29696
1475.77	1.27245
1476.03	-0.768028
1476.3	-5.85727
1476.56	0.230564
1476.83	-1.81134
1477.09	6.30342
1477.36	3.24002
1477.62	4.24061
1477.89	3.2151
1478.15	2.19421
1478.42	4.21418
1478.68	5.22976
1478.95	1.17548
1479.22	-4.909
1479.48	0.17104
1479.75	2.20536
1480.01	2.20317
1480.28	2.20545
1480.54	1.19034
1480.81	0.172615
1481.07	-0.846542
1481.34	0.151371
1481.6	2.15685
1481.87	-5.9961
1482.13	1.04132
1482.4	-2.01554
1482.66	5.02493
1482.93	4.11079
1483.19	4.12101
1483.46	1.09602
1483.72	-0.976959
1483.99	4.10582
1484.25	3.09713
1484.52	3.08175
1484.78	-0.982586
1485.05	-0.990788
1485.31	-0.999817
1485.58	0.00128937
1485.84	1.0009
1486.11	-2.04556
1486.37	1.99456
1486.64	-0.0355949
1486.9	-0.0415726
1487.17	2.98991
1487.43	-0.0486565
1487.7	2.97815
1487.96	-0.0674362
1488.22	1.94374
1488.49	0.925385
1488.75	-1.10184
1489.02	-0.0944824
1489.28	10.0144
1489.55	-5.1558
1489.81	-2.12819
1490.08	3.93257
1490.34	2.91821
1490.61	-1.13178
1490.87	2.90643
1491.14	-1.14009
1491.4	-4.17402
1491.67	-0.130543
1491.93	-2.15744
1492.19	0.865677
1492.46	-1.17049
1492.72	0.832447
1492.99	3.8467
1493.25	-0.203651
1493.52	4.83493
1493.78	3.81641
1494.05	2.79715
1494.31	-0.234966
1494.58	-0.239086
1494.84	-0.24527
1495.1	-0.250156
1495.37	4.79221
1495.63	-1.2662
1495.9	1.75883
1496.16	-1.27139
1496.43	3.7738
1496.69	-2.28325
1496.96	-0.265015
1497.22	1.75153
1497.48	-0.271992
1497.75	0.732082
1498.01	7.79343
1498.28	0.718708
1498.54	-0.302666
1498.81	4.73645
1499.07	0.694389
1499.34	-1.32958
1499.6	1.6899
1499.86	-5.38453
1500.13	-3.37855
1500.39	-1.36979
1500.66	5.67693
1500.92	2.64719
1501.18	-1.38669
1501.45	1.63599
1501.71	1.63198
1501.98	2.63423
1502.24	-0.399315
1502.5	0.598621
1502.77	-5.4639
1503.03	0.56432
1503.3	-1.45788
1503.56	-3.4784
1503.83	4.57785
1504.09	-0.458115
1504.35	-0.461235
1504.62	-0.46402
1504.88	-4.49961
1505.15	1.53925
1505.41	1.53226
1505.67	5.55873
1505.94	2.53287
1506.2	1.52122
1506.47	2.52364
1506.73	-0.504242
1506.99	1.51047
1507.26	0.501278
1507.52	-4.5492
1507.78	1.48419
1508.05	-0.544384
1508.31	0.447193
1508.58	1.43353
1508.84	0.401493
1509.1	1.3815
1509.37	5.37693
1509.63	-0.674431
1509.9	3.32796
1510.16	-5.72356
1510.42	-4.73096
1510.69	-2.73131
1510.95	3.29579
1511.21	2.30327
1511.48	0.2939
1511.74	4.30237
1512.01	2.27942
1512.27	-1.75248
1512.53	5.25913
1512.8	2.23056
1513.06	-3.80535
1513.32	0.193523
1513.59	0.184616
1513.85	1.17919
1514.11	1.17152
1514.38	4.17321
1514.64	0.158329
1514.9	1.15876
1515.17	4.16958
1515.43	3.16419
1515.7	-2.85598
1515.96	-4.86504
1516.22	-2.86077
1516.49	3.15654
1516.75	-4.87281
1517.01	1.14112
1517.28	1.13252
1517.54	1.12455
1517.8	-2.89112
1518.07	1.12043
1518.33	3.12574
1518.59	-0.891434
1518.86	-1.90136
1519.12	1.1001
1519.38	-4.92853
1519.65	-3.9347
1519.91	1.07124
1520.17	3.06519
1520.44	-0.962498
1520.7	-4.99107
1520.96	-3.00182
1521.23	2.99511
1521.49	-2.02477
1521.75	-3.03719
1522.02	-0.0342979
1522.28	-0.0375366
1522.54	0.960236
1522.81	9.97563
1523.07	2.96673
1523.33	-0.0335655
1523.59	-0.0305824
1523.86	0.969967
1524.12	-2.04308
1524.38	-0.0491562
1524.65	1.94746
1524.91	-4.07375
1525.17	-1.07578
1525.44	7.93158
1525.7	-4.10024
1525.96	-0.101849
1526.23	0.892559
1526.49	2.88996
1526.75	0.87899
1527.02	0.867168
1527.28	-4.14685
1527.54	-0.143124
1527.8	-0.140377
1528.07	3.86999
1528.33	3.8716
1528.59	-0.140675
1528.86	0.853363
1529.12	-4.16057
1529.38	1.84048
1529.64	2.84196
1529.91	-2.16344
1530.17	1.85523
1530.43	-1.14564
1530.69	3.87002
1530.96	0.858997
1531.22	-8.17491
1531.48	4.85854
1531.75	0.837826
1532.01	2.83422
1532.27	3.82819
1532.53	-3.20327
1532.8	1.78401
1533.06	0.764355
1533.32	-3.25627
1533.59	4.73656
1533.85	1.71212
1534.11	1.69313
1534.37	1.68245
1534.64	-6.3345
1534.9	4.6637
1535.16	-0.350471
1535.42	1.63126
1535.69	2.6217
1535.95	2.61197
1536.21	3.61766
1536.48	2.63668
1536.74	4.66466
1537	4.6821
1537.26	4.69549
1537.53	-3.30963
1537.79	-1.29931
1538.05	2.71214
1538.31	8.70366
1538.58	2.68218
1538.84	-4.34929
1539.1	2.65012
1539.36	-0.370548
1539.62	1.61745
1539.89	1.60276
1540.15	0.587597
1540.41	1.57338
1540.67	-0.445553
1540.94	4.53571
1541.2	4.5327
1541.46	0.529617
1541.72	4.53421
1541.98	-3.46243
1542.25	-0.457127
1542.51	3.55871
1542.77	5.56626
1543.03	7.57037
1543.3	-0.44286
1543.56	2.55478
1543.82	-3.45853
1544.08	-0.453823
1544.35	1.54979
1544.61	-0.454521
1544.87	4.54194
1545.13	2.51058
1545.39	-0.498219
1545.66	-3.506
1545.92	-0.493504
1546.18	1.46748
1546.44	3.41873
1546.71	1.4043
1546.97	2.42209
1547.23	-1.54404
1547.49	2.52003
1547.75	-4.46473
1548.02	1.59553
1548.28	4.57372
1548.54	2.56542
1548.8	2.55271
1549.06	1.53007
1549.33	-0.4645
1549.59	3.56554
1549.85	3.55511
1550.11	5.54716
1550.37	1.49533
1550.64	7.50287
1550.9	4.4852
1551.16	6.47752
1551.42	4.45449
1551.68	-1.5784
1551.94	2.4108
1552.21	2.40076
1552.47	7.40193
1552.73	1.38671
1552.99	-2.62239
1553.25	3.38456
1553.52	-2.63665
1553.78	-1.63913
1554.04	1.36402
1554.3	3.36551
1554.56	0.356503
1554.82	4.35688
1555.09	3.34296
1555.35	4.32602
1555.61	6.31282
1555.87	4.29142
1556.13	2.27263
1556.39	6.25746
1556.65	1.24356
1556.92	2.23158
1557.18	-2.77662
1557.44	1.21302
1557.7	3.20415
1557.96	4.19656
1558.22	2.19318
1558.49	4.19051
1558.75	5.19386
1559.01	2.20227
1559.27	4.21131
1559.53	-2.7935
1559.79	2.20108
1560.05	5.19342
1560.32	3.19146
1560.58	2.18315
1560.84	2.17613
1561.1	2.18668
1561.36	-1.80333
1561.62	7.20451
1561.88	0.192566
1562.15	4.16821
1562.41	-3.90071
1562.67	2.9798
1562.93	1.92122
1563.19	2.09215
1563.45	5.14102
1563.71	2.11573
1563.98	2.0826
1564.24	3.11216
1564.5	2.14733
1564.76	4.13497
1565.02	5.09902
1565.28	7.10011
1565.54	3.10339
1565.8	3.10279
1566.07	5.09496
1566.33	0.0769234
1566.59	4.0615
1566.85	-0.938431
1567.11	2.05918
1567.37	0.057663
1567.63	5.05169
1567.89	5.04716
1568.15	3.04286
1568.42	2.03615
1568.68	3.02511
1568.94	6.01052
1569.2	3.00883
1569.46	4.99755
1569.72	-0.00772476
1569.98	2.97824
1570.24	-3.02113
1570.5	7.94877
1570.77	0.952469
1571.03	8.93394
1571.29	4.94655
1571.55	4.95354
1571.81	5.95969
1572.07	0.973461
1572.33	4.97661
1572.59	7.97968
1572.85	3.98132
1573.11	3.97484
1573.37	3.97081
1573.64	11.9562
1573.9	4.94463
1574.16	2.92723
1574.42	2.90854
1574.68	2.89044
1574.94	2.87357
1575.2	4.85197
1575.46	-1.14151
1575.72	3.83778
1575.98	2.83739
1576.24	2.83403
1576.5	4.82528
1576.76	3.82784
1577.03	7.81985
1577.29	3.83166
1577.55	5.82408
1577.81	2.82782
1578.07	1.823
1578.33	3.80734
1578.59	7.78594
1578.85	-0.199211
1579.11	3.77487
1579.37	5.76147
1579.63	4.75932
1579.89	3.75694
1580.15	11.7204
1580.41	6.7359
1580.67	2.74798
1580.93	3.73695
1581.19	2.73827
1581.46	1.74344
1581.72	7.72023
1581.98	3.7352
1582.24	8.7129
1582.5	4.72343
1582.76	4.71989
1583.02	6.70514
1583.28	1.71326
1583.54	4.68691
1583.8	8.65766
1584.06	6.65848
1584.32	6.65115
1584.58	4.65489
1584.84	4.65038
1585.1	6.63829
1585.36	9.62486
1585.62	5.64787
1585.88	8.63824
1586.14	0.679066
1586.4	6.65523
1586.66	10.6399
1586.92	4.66592
1587.18	0.681183
1587.44	6.65667
1587.7	-0.310593
1587.96	6.66268
1588.22	3.67169
1588.48	5.66128
1588.74	2.66887
1589	4.65406
1589.26	7.62876
1589.52	8.60693
1589.78	-1.35587
1590.04	4.6053
1590.3	4.58718
1590.56	9.53791
1590.82	11.5028
1591.08	5.52743
1591.34	2.53977
1591.6	4.52458
1591.86	9.49501
1592.12	3.5422
1592.38	2.55285
1592.64	9.50767
1592.9	12.4629
1593.16	8.48743
1593.42	5.50626
1593.68	-0.454128
1593.94	0.539234
1594.2	8.48735
1594.46	3.52321
1594.72	6.50626
1594.98	9.48429
1595.24	4.51136
1595.5	10.4614
1595.76	12.4324
1596.02	3.48402
1596.28	9.42976
1596.54	16.3666
1596.8	9.41068
1597.06	-1.51099
1597.32	10.3838
1597.58	10.373
1597.84	8.37673
1598.1	9.35178
1598.36	11.316
1598.62	4.36506
1598.88	1.38148
1599.14	10.2819
1599.4	4.33239
1599.66	6.30114
1599.92	8.26774
1600.18	9.24535
1600.44	5.27959
1600.7	9.22839
1600.96	1.31362
1601.22	8.23301
1601.48	8.23317
1601.73	6.25649
1601.99	14.1666
1602.25	1.31293
1602.51	5.26927
1602.77	11.2059
1603.03	13.1895
1603.29	10.2286
1603.55	13.2026
1603.81	7.27158
1604.07	4.30695
1604.33	12.2238
1604.59	9.2544
1604.85	10.2417
1605.11	9.25133
1605.37	8.26101
1605.63	10.2387
1605.89	4.29872
1606.14	2.30914
1606.4	6.25093
1606.66	4.26219
1606.92	11.1669
1607.18	12.1468
1607.44	8.23234
1607.7	5.44932
1607.96	15.9327
1608.22	9.30288
1608.48	10.8753
1608.74	6.38686
1609	12.5974
1609.26	11.0224
1609.51	14.9947
1609.77	5.33131
1610.03	8.38374
1610.29	12.6631
1610.55	7.87516
1610.81	11.9422
1611.07	14.4567
1611.33	10.1156
1611.59	6.57764
1611.85	6.26919
1612.11	11.1119
1612.36	10.6074
1612.62	10.6894
1612.88	12.7113
1613.14	15.0727
1613.4	11.1649
1613.66	13.6065
1613.92	15.3979
1614.18	11.2972
1614.44	6.37355
1614.7	12.4701
1614.95	11.9871
1615.21	11.5556
1615.47	11.9337
1615.73	12.8945
1615.99	14.5033
1616.25	8.43921
1616.51	8.08007
1616.77	12.3294
1617.03	7.79248
1617.28	11.2851
1617.54	9.58121
1617.8	13.4353
1618.06	11.8709
1618.32	13.4831
1618.58	12.3553
1618.84	10.445
1619.1	12.7156
1619.35	13.0104
1619.61	12.177
1619.87	14.4426
1620.13	14.5621
1620.39	17.5294
1620.65	12.4605
1620.91	12.374
1621.17	11.126
1621.42	9.9674
1621.68	9.035
1621.94	10.9667
1622.2	10.7148
1622.46	11.6062
1622.72	14.5388
1622.98	13.8073
1623.23	12.0637
1623.49	11.1706
1623.75	11.1989
1624.01	12.7065
1624.27	11.6296
1624.53	13.9019
1624.79	12.4923
1625.04	11.6558
1625.3	14.4324
1625.56	14.4482
1625.82	13.6889
1626.08	9.47
1626.34	14.8208
1626.59	16.1519
1626.85	13.3004
1627.11	17.1212
1627.37	8.86048
1627.63	10.7861
1627.89	10.3529
1628.14	14.5147
1628.4	16.2674
1628.66	15.8635
1628.92	14.1463
1629.18	15.9487
1629.44	17.467
1629.69	14.4394
1629.95	14.0777
1630.21	14.6913
1630.47	12.2902
1630.73	10.0221
1630.99	15.5682
1631.24	15.8748
1631.29	15.7207
1631.55	15.726
1631.81	16.7155
1632.07	15.7317
1632.33	18.6892
1632.59	18.6885
1632.86	15.7301
1633.12	16.7127
1633.38	20.6501
1633.64	17.6902
1633.9	13.7454
1634.16	14.7246
1634.42	18.658
1634.68	12.7492
1634.95	9.79624
1635.21	14.7173
1635.47	12.7465
1635.73	10.7786
1635.99	19.6416
1636.25	19.645
1636.51	15.7106
1636.77	17.6823
1637.03	14.7315
1637.3	16.702
1637.56	18.679
1637.82	14.7546
1638.08	13.7798
1638.34	15.7533
1638.6	16.7368
1638.86	19.6887
1639.12	18.7041
1639.39	15.7518
1639.65	16.7375
1639.91	12.8017
1640.17	14.7723
1640.43	11.8225
1640.69	17.7297
1640.95	18.7128
1641.21	17.726
1641.47	12.8006
1641.73	15.7513
1641.99	10.8348
1642.25	19.7006
1642.52	20.6944
1642.78	14.7991
1643.04	21.6901
1643.3	13.8159
1643.56	18.7331
1643.82	10.8615
1644.08	18.7328
1644.34	18.7296
1644.6	17.7451
1644.86	7.90989
1645.12	18.7324
1645.38	14.8052
1645.65	17.7718
1645.91	13.852
1646.17	14.8738
1646.43	11.9236
1646.69	20.7839
1646.95	21.7647
1647.21	15.8664
1647.47	12.9376
1647.73	14.9205
1647.99	19.8619
1648.25	14.9508
1648.51	16.9322
1648.77	21.8663
1649.03	13.0018
1649.29	13.0068
1649.55	12.0288
1649.82	16.9527
1650.08	17.9368
1650.34	29.7623
1650.6	14.0044
1650.86	16.9682
1651.12	15.0086
1651.38	16.9872
1651.64	18.9655
1651.9	23.9032
1652.16	16.0312
1652.42	18.0203
1652.68	11.139
1652.94	18.0683
1653.2	14.1379
1653.46	14.1504
1653.72	18.1079
1653.98	19.1021
1654.24	20.0918
1654.5	18.1175
1654.76	14.1694
1655.02	13.1844
1655.28	16.1458
1655.54	14.1715
1655.81	18.1153
1656.07	18.1124
1656.33	19.0957
1656.58	15.1483
1656.84	21.0603
1657.11	14.157
1657.37	14.1674
1657.63	17.1381
1657.89	19.125
1658.15	22.1002
1658.41	18.1714
1658.67	15.2265
1658.93	15.2387
1659.19	11.2824
1659.45	10.2968
1659.71	16.3148
1659.97	7.45276
1660.23	14.3567
1660.49	15.3499
1660.75	14.3143
1661.01	9.33368
1661.27	14.3141
1661.53	16.3031
1661.79	15.3336
1662.05	22.2819
1662.31	6.47589
1662.57	14.3064
1662.83	14.3379
1663.09	13.4526
1663.35	14.4483
1663.61	14.4616
1663.87	10.3594
1664.13	11.3308
1664.39	16.3612
1664.65	18.3293
1664.91	17.3417
1665.17	14.38
1665.43	14.3789
1665.69	15.3776
1665.95	15.4158
1666.21	13.4684
1666.47	12.4906
1666.72	14.4739
1666.99	16.4579
1667.25	13.4911
1667.51	15.4821
1667.76	14.5321
1668.02	13.5572
1668.28	15.5349
1668.54	11.5847
1668.8	14.5539
1669.06	13.5768
1669.32	19.5175
1669.58	15.5718
1669.84	11.6233
1670.1	9.65327
1670.36	11.6385
1670.62	13.6247
1670.88	12.6467
1671.14	8.70401
1671.4	7.72843
1671.66	13.6748
1671.92	15.6671
1672.18	13.7063
1672.44	11.7406
1672.7	15.7097
1672.96	13.7369
1673.22	13.7429
1673.48	15.7319
1673.74	6.83396
1674	11.7905
1674.25	7.83717
1674.51	9.82041
1674.77	11.8018
1675.03	10.8116
1675.29	9.81929
1675.55	11.7939
1675.81	12.7814
1676.07	10.8044
1676.33	11.7944
1676.59	12.7861
1676.85	9.82256
1677.11	9.82502
1677.37	7.85212
1677.63	10.8187
1677.89	12.7972
1678.15	17.7401
1678.4	12.8055
1678.66	10.8362
1678.92	11.831
1679.18	8.87461
1679.44	9.87037
1679.7	10.866
1679.96	10.8713
1680.22	8.9017
1680.48	9.89647
1680.74	10.8913
1681	7.93341
1681.25	4.97357
1681.51	9.91329
1681.77	3.99186
1682.03	7.94732
1682.29	7.95341
1682.55	9.93509
1682.81	10.93
1683.07	8.96305
1683.33	10.9472
1683.59	9.97297
1683.84	8.01337
1684.1	9.01265
1684.36	6.05634
1684.62	10.9991
1684.88	11.9888
1685.14	6.06558
1685.4	6.06898
1685.66	14.9581
1685.92	11.9951
1686.18	6.07095
1686.43	8.04492
1686.69	7.05787
1686.95	3.11048
1687.21	10.0133
1687.47	6.07915
1687.73	8.06811
1687.99	12.0278
1688.25	14.0131
1688.51	8.10254
1688.76	10.0905
1689.02	7.14024
1689.28	6.16053
1689.54	5.17852
1689.8	6.16566
1690.06	12.0843
1690.32	9.12156
1690.58	4.18653
1690.84	6.15323
1691.09	9.11092
1691.35	10.0943
1691.61	8.12235
1691.87	7.13968
1692.13	6.16381
1692.39	9.13017
1692.64	5.19995
1692.9	10.1367
1693.16	6.2071
1693.42	7.20761
1693.68	6.23326
1693.94	6.23988
1694.2	6.243
1694.46	12.1531
1694.71	5.25361
1694.97	4.26621
1695.23	3.28183
1695.49	9.18905
1695.75	5.2533
1696.01	9.19238
1696.26	7.23006
1696.52	7.23796
1696.78	5.28081
1697.04	9.2253
1697.3	3.32881
1697.56	2.34605
1697.81	6.28842
1698.07	0.392147
1698.33	3.34915
1698.59	3.35322
1698.85	2.37113
1699.11	6.30468
1699.37	3.35605
1699.62	1.3909
1699.88	5.3243
1700.14	2.38272
1700.4	6.32015
1700.66	2.39525
1700.91	7.31257
1701.17	6.33778
1701.43	5.36824
1701.69	5.38114
1701.95	7.35539
1702.21	7.36154
1702.46	8.35065
1702.72	1.48138
1702.98	10.331
1703.24	2.47252
1703.5	5.41894
1703.75	5.41739
1704.01	6.397
1704.27	3.45116
1704.53	5.41296
1704.79	2.46688
1705.04	1.48246
1705.3	8.34124
1705.56	2.45493
1705.82	6.36805
1706.08	7.34323
1706.33	6.36363
1706.59	4.40886
1706.85	5.39423
1707.11	2.46593
1707.37	0.517551
1707.62	5.4226
1707.88	3.47794
1708.14	3.49191
1708.4	-3.35101
1708.66	4.49608
1708.91	5.48698
1709.17	8.43361
1709.43	6.47691
1709.69	5.49235
1709.95	1.56948
1710.2	2.53957
1710.46	6.44578
1710.72	0.572453
1710.98	6.43261
1711.23	4.48051
1711.49	6.4381
1711.75	-0.39378
1712.01	1.56658
1712.27	0.598766
1712.52	0.617393
1712.78	3.5624
1713.04	3.56999
1713.3	2.59802
1713.55	1.62372
1713.81	2.60043
1714.07	0.64502
1714.33	4.54399
1714.58	5.51023
1714.84	-0.352253
1715.1	2.5664
1715.36	4.50833
1715.61	3.53143
1715.87	1.58502
1716.13	-0.356972
1716.39	1.59953
1716.64	4.52835
1716.9	4.53461
1717.16	4.54924
1717.42	8.45234
1717.68	-1.27985
1717.93	0.668896
1718.19	3.58602
1718.45	2.61531
1718.71	4.56128
1718.96	-2.2464
1719.22	3.58728
1719.48	2.61406
1719.74	-0.301857
1719.99	3.58483
1720.25	3.58564
1720.51	-2.23839
1720.76	2.62252
1721.02	-2.22315
1721.28	-2.21797
1721.54	1.67334
1721.79	-0.266685
1722.05	1.67284
1722.31	2.63622
1722.56	-3.18606
1722.82	4.56543
1723.08	3.59711
1723.34	1.66502
1723.59	1.6771
1723.85	2.65095
1724.11	-2.19143
1724.37	-2.19324
1724.62	3.62959
1724.88	-2.16606
1725.14	2.68258
1725.39	3.65177
1725.65	0.733177
1725.91	3.58726
1726.17	3.54437
1726.42	0.649014
1726.68	4.54196
1726.94	-0.259007
1727.19	6.51718
1727.45	3.60698
1727.71	-2.18491
1727.96	0.729504
1728.22	-2.13013
1728.48	1.74668
1728.74	-0.176792
1728.99	2.73054
1729.25	-2.09495
1729.51	1.776
1729.76	3.71295
1730.02	1.7836
1730.28	-0.14772
1730.53	0.815121
1730.79	3.70408
1731.05	1.76909
1731.3	-1.12636
1731.56	1.76408
1731.82	3.6886
1732.08	1.75814
1732.33	3.68176
1732.59	5.60658
1732.85	-2.094
1733.1	3.68622
1733.36	1.7669
1733.62	2.73408
1733.87	0.813709
1734.13	1.77992
1734.39	0.821579
1734.64	2.74993
1734.9	-3.97827
1735.16	1.7941
1735.41	0.833927
1735.67	-0.125561
1735.93	6.60244
1736.18	1.79762
1736.44	3.71616
1736.7	5.62919
1736.95	2.74108
1737.21	2.73451
1737.47	0.812027
1737.72	4.64473
1737.98	3.68632
1738.24	2.72845
1738.49	1.77147
1738.75	1.77317
1739.01	2.73435
1739.26	4.655
1739.52	-2.03966
1739.78	0.838078
1740.03	4.67252
1740.29	1.80828
1740.54	-1.05491
1740.8	-1.0505
1741.06	2.77807
1741.31	-1.0449
1741.57	-1.04127
1741.83	-0.0765991
1742.08	-1.9804
1742.34	1.85555
1742.6	2.82081
1742.85	-0.042057
1743.11	1.87445
1743.36	1.87537
1743.62	-1.94907
1743.88	1.87183
1744.13	-5.76917
1744.39	-0.0394554
1744.65	1.87275
1744.9	1.87236
1745.16	0.92477
1745.42	0.933449
1745.67	-0.965855
1745.93	0.954178
1746.18	0.965969
1746.44	1.93467
1746.7	0.995171
1746.95	0.056591
1747.21	1.02925
1747.46	3.9138
1747.72	1.06296
1747.98	2.02995
1748.23	-1.78062
1748.49	3.00804
1748.74	0.142876
1749	-1.77013
1749.26	-6.5472
1749.51	0.14106
1749.77	2.05217
1750.02	-0.811188
1750.28	0.144836
1750.54	0.147404
1750.79	-1.75766
1751.05	-4.61624
1751.31	0.154438
1751.56	-0.797386
1751.82	4.92683
1752.07	0.164219
1752.33	0.169064
1752.59	3.98524
1752.84	-1.72992
1753.1	3.98735
1753.35	1.12931
1753.61	-2.68046
1753.86	-1.73015
1754.12	-1.73161
1754.38	-0.779438
1754.63	1.12756
1754.89	2.08495
1755.14	4.00131
1755.4	1.16507
1755.66	-0.726425
1755.91	3.08931
1756.17	0.243916
1756.42	0.25378
1756.68	-2.59116
1756.93	0.271343
1757.19	5.03509
1757.44	0.28318
1757.7	-9.22499
1757.96	0.292805
1758.21	1.24652
1758.47	-3.50613
1758.72	2.2019
1758.98	0.30547
1759.23	0.311485
1759.49	2.22266
1759.75	0.335789
1760	0.347546
1760.26	-0.594818
1760.51	-3.43912
1760.77	1.32521
1761.02	6.09153
1761.28	-0.552303
1761.53	0.41777
1761.79	-3.36968
1762.05	-6.21146
1762.3	0.463818
1762.56	-5.23634
1762.81	-0.465694
1763.07	3.35211
1763.32	2.40846
1763.58	4.31944
1763.83	-4.24292
1764.09	-0.427814
1764.34	-3.27609
1764.6	1.48844
1764.85	3.3945
1765.11	1.49543
1765.37	1.49889
1765.62	1.5067
1765.88	-1.34461
1766.13	-0.402103
1766.39	1.48933
1766.64	-1.3709
1766.9	-0.418846
1767.15	0.5411
1767.41	0.561398
1767.66	2.47451
1767.92	1.53384
1768.17	-1.30471
1768.43	-0.333851
1768.68	3.48865
1768.94	-1.25557
1769.19	0.657684
1769.45	1.62408
1769.7	1.63985
1769.96	-0.249813
1770.21	-0.237427
1770.47	3.58182
1770.72	-2.11693
1770.98	3.60585
1771.23	-2.09496
1771.49	-1.13286
1771.74	0.78162
1772	-2.0616
1772.26	0.80632
1772.51	-0.129524
1772.76	-1.05843
1773.02	1.81617
1773.27	0.874744
1773.53	1.83675
1773.78	-3.87725
1774.04	3.75168
1774.29	2.80064
1774.55	-1.00697
1774.8	2.80579
1775.06	-0.0503235
1775.31	1.85619
1775.57	-3.85552
1775.82	3.76139
1776.08	-1.95106
1776.33	3.75772
1776.59	1.85845
1776.84	-2.88811
1777.1	1.8857
1777.35	-0.959076
1777.61	3.81054
1777.86	1.91825
1778.12	0.977161
1778.37	3.8421
1778.63	1.94809
1778.88	1.9598
1779.13	3.8776
1779.39	0.0826874
1779.65	-2.76032
1779.9	5.82762
1780.15	0.122372
1780.41	-1.77193
1780.66	1.09983
1780.92	-1.74759
1781.17	0.172199
1781.43	-4.58142
1781.68	-2.65913
1781.94	0.215057
1782.19	2.13313
1782.45	1.18621
1782.7	3.0996
1782.95	-0.712551
1783.21	-1.661
1783.46	1.20961
1783.72	0.267204
1783.97	4.09776
1784.23	1.25098
1784.48	4.13329
1784.74	2.2479
1784.99	-0.589603
1785.24	-1.51659
1785.5	-2.44692
1785.75	1.40021
1786.01	2.37161
1786.26	4.30553
1786.52	-3.33865
1786.77	-1.4082
1787.03	0.520222
1787.28	4.36695
1787.54	0.543377
1787.79	1.5089
1788.04	-4.23669
1788.3	1.5061
1788.55	-3.28938
1788.81	1.50332
1789.06	0.550911
1789.31	0.559303
1789.57	0.567623
1789.82	2.49394
1790.08	-1.32649
1790.33	0.599518
1790.59	-1.31
1790.84	1.57454
1791.09	-4.16451
1791.35	-2.23903
1791.6	5.43
1791.86	1.60077
1792.11	-3.16523
1792.36	7.41565
1792.62	-0.237133
1792.87	-0.223026
1793.13	4.5902
1793.38	-1.15721
1793.64	-0.183468
1793.89	-3.0516
1794.14	-0.155849
1794.4	-0.142757
1794.65	-2.05301
1794.9	-2.04209
1795.16	-2.03169
1795.41	1.82401
1795.67	2.79425
1795.92	-0.0839348
1796.17	-2.00252
1796.43	-1.03814
1796.68	-2.95934
1796.94	1.84631
1797.19	1.84728
1797.44	1.84917
1797.7	-1.0298
1797.95	3.77709
1798.21	0.900391
1798.46	-2.93571
1798.71	1.87387
1798.97	-1.96003
1799.22	-0.0296745
1799.47	1.90202
1799.73	-2.89068
1799.98	4.80991
1800.24	0.979431
1800.49	0.0320816
1800.74	1.00543
1801	2.93765
1801.25	2.94612
1801.5	-1.85097
1801.76	1.04806
1802.01	-0.863819
1802.27	0.113132
1802.52	0.128036
1802.77	-0.820461
1803.03	0.155838
1803.28	-2.72239
1803.53	4.03369
1803.79	-3.66471
1804.04	0.198734
1804.29	1.16943
1804.55	-2.67928
1804.8	0.218475
1805.05	1.18907
1805.31	0.232124
1805.56	2.16699
1805.81	0.24651
1806.07	0.253967
1806.32	-3.59457
1806.58	-1.65936
1806.83	1.24045
1807.08	-2.6086
1807.34	0.290859
1807.59	-0.667339
1807.84	0.3008
1808.1	-1.62276
1808.35	-5.47338
1808.6	-0.647827
1808.86	0.321957
1809.11	1.29264
1809.36	-2.55566
1809.62	-0.617664
1809.87	1.32213
1810.12	2.29877
1810.38	2.30825
1810.63	1.3523
1810.88	-0.566021
1811.14	1.37819
1811.39	-2.46893
1811.64	1.40991
1811.9	0.459042
1812.15	1.43734
1812.4	0.481091
1812.65	4.35499
1812.91	-0.47007
1813.16	-1.42921
1813.41	2.44405
1813.67	3.42013
1813.92	-1.40793
1814.17	0.530067
1814.43	-0.440418
1814.68	-1.41689
1814.93	3.41171
1815.19	0.522991
1815.44	-3.32874
1815.69	-1.38178
1815.95	3.4562
1816.2	1.52885
1816.45	2.50377
1816.7	5.41357
1816.96	-2.31098
1817.21	4.46503
1817.46	-2.29348
1817.72	-0.349937
1817.97	1.59265
1818.22	1.6015
1818.47	2.57932
1818.73	-1.28023
1818.98	4.53564
1819.23	3.57699
1819.49	-1.25437
1819.74	-0.279438
1819.99	1.66359
1820.24	-0.266079
1820.5	2.6412
1820.75	0.707138
1821	-0.259426
1821.26	1.68217
1821.51	-0.245731
1821.76	-0.238014
1822.01	4.6106
1822.27	-0.221924
1822.52	0.754822
1822.77	-2.14391
1823.03	3.67175
1823.28	-4.07127
1823.53	-4.06552
1823.78	3.68776
1824.04	-1.14915
1824.29	1.76398
1824.54	-0.165352
1824.79	-0.156872
1825.05	3.72636
1825.3	-2.08376
1825.55	1.79516
1825.8	4.70138
1826.06	-1.11107
1826.31	0.828289
1826.56	0.831917
1826.81	0.834782
1827.07	-1.0997
1827.32	1.80492
1827.57	0.837826
1827.82	2.77458
1828.08	-1.09149
1828.33	0.853661
1828.58	-1.07437
1828.83	-0.0970764
1829.09	1.84849
1829.34	3.79498
1829.59	2.83553
1829.84	4.78618
1830.1	1.88644
1830.35	-1.987
1830.6	3.83426
1830.85	0.934227
1831.11	-0.0303612
1831.36	0.945423
1831.61	2.8744
1831.86	-2.95348
1832.12	-0.0590172
1832.37	-0.0695305
1832.62	3.79629
1832.87	1.85637
1833.13	-0.0728531
1833.38	2.83812
1833.63	-3.79401
1833.88	-0.92701
1834.13	3.88705
1834.39	-1.93496
1834.64	0.948841
1834.89	-0.0365257
1835.14	0.899902
1835.39	2.82116
1835.65	-0.065361
1835.9	-1.93869
1836.15	8.73289
1836.4	-1.90829
1836.65	4.88168
1836.91	-1.89277
1837.16	1.98845
1837.41	1.95631
1837.66	0.970547
1837.92	1.92192
1838.17	1.90857
1838.42	-1.00248
1838.67	0.918636
1838.92	-1.98702
1839.18	-0.0646477
1839.43	6.68041
1839.68	-0.07547
1839.93	-0.0675926
1840.18	4.75632
1840.43	0.904541
1840.69	-3.91601
1840.94	1.874
1841.19	0.909809
1841.44	-5.83774
1841.7	-0.0440025
1841.95	-1.00673
1842.2	0.921963
1842.45	3.81984
1842.7	2.86302
1842.95	0.951054
1843.2	0.968285
1843.46	-0.944098
1843.71	1.00097
1843.96	-0.955172
1844.21	-1.00056
1844.46	-1.03686
1844.72	1.84684
1844.97	-0.069561
1845.22	1.87628
1845.47	0.920246
1845.72	1.87144
1845.97	-0.0569839
1846.23	1.86987
1846.48	3.78997
1846.73	-0.0672569
1846.98	0.887585
1847.23	2.80224
1847.48	2.79294
1847.74	-1.05887
1847.99	-0.103039
1848.24	-1.06793
1848.49	3.73146
1848.74	-0.112267
1848.99	0.847794
1849.25	-2.03146
1849.5	2.77205
1849.75	-0.106133
1850	2.77674
1850.25	-1.06314
1850.5	-2.98327
1850.75	0.855099
1851.01	1.80959
1851.26	-0.117256
1851.51	5.62912
1851.76	0.827568
1852.01	0.825798
1852.26	1.78025
1852.51	0.812374
1852.76	-2.06929
1853.02	0.802601
1853.27	-3.98733
1853.52	1.76075
1853.77	4.63672
1854.02	3.68011
1854.27	0.80703
1854.52	-1.10991
1854.78	3.67618
1855.03	1.7587
1855.28	2.71198
1855.53	2.70641
1855.78	-4.95455
1856.03	-0.175957
1856.28	4.59963
1856.53	0.767437
1856.79	2.67716
1857.04	1.72372
1857.29	-0.187115
1857.54	4.59901
1857.79	-0.172817
1858.04	-0.166534
1858.29	-4.94293
1858.54	-0.151474
1858.79	0.811363
1859.04	-1.10045
1859.3	3.68307
1859.55	3.67807
1859.8	0.801907
1860.05	3.66427
1860.3	-3.03511
1860.55	3.65058
1860.8	1.73323
1861.05	5.5502
1861.3	-0.18708
1861.56	0.763943
1861.81	0.759239
1862.06	1.7081
1862.31	-0.208897
1862.56	-0.217556
1862.81	0.726486
1863.06	-1.19254
1863.31	4.51399
1863.56	4.4993
1863.81	-1.22829
1864.06	3.51905
1864.32	1.60283
1864.57	0.640358
1864.82	6.33826
1865.07	1.58047
1865.32	-2.22466
1865.57	3.47864
1865.82	0.629375
1866.07	2.53364
1866.32	2.53334
1866.57	-6.97413
1866.82	-0.320744
1867.07	-0.321568
1867.32	-1.27273
1867.57	1.57796
1867.83	-0.323189
1868.08	1.57783
1868.33	2.52839
1868.58	1.5756
1868.83	2.52233
1869.08	0.616756
1869.33	0.614288
1869.58	0.611397
1869.83	0.605171
1870.08	2.49836
1870.33	-1.30201
1870.58	1.54552
1870.83	3.4411
1871.08	-2.25831
1871.33	-0.366074
1871.58	2.47302
1871.84	-0.380558
1872.08	0.559814
1872.33	4.34277
1872.59	0.541912
1872.84	-2.31271
1873.09	0.511322
1873.34	-0.445118
1873.59	-0.453926
1873.84	0.485569
1874.09	-2.35796
1874.34	3.29618
1874.59	1.38152
1874.84	1.3555
1875.09	-1.42286
1875.34	-2.2845
1875.59	1.44664
1875.84	5.22592
1876.09	1.44631
1876.34	-3.25774
1876.59	-2.3041
1876.84	-0.421095
1877.09	-1.37516
1877.34	-0.429291
1877.59	-2.32262
1877.84	-1.37181
1878.09	0.515079
1878.34	0.510731
1878.59	5.22628
1878.84	-3.30368
1879.09	3.29787
1879.34	1.38881
1879.59	1.36797
1879.84	1.3483
1880.1	1.33463
1880.34	-2.39442
1880.59	0.554649
1880.84	2.30632
1881.1	5.07387
1881.34	1.31455
1881.59	-1.50602
1881.84	-1.51442
1882.1	1.3279
1882.34	1.34095
1882.59	0.401634
1882.85	-2.42184
1883.1	2.31081
1883.34	-0.515421
1883.59	1.37536
1883.85	-1.46497
1884.09	1.35554
1884.34	2.29115
1884.59	6.0564
1884.84	0.386818
1885.09	-1.5083
1885.34	0.366573
1885.59	-1.53103
1885.84	2.22619
1886.09	-2.49426
1886.34	-3.44429
1886.59	-0.623772
1886.84	4.08039
1887.09	-2.50952
1887.34	2.20148
1887.59	1.26777
1887.84	2.21467
1888.09	0.331367
1888.34	5.03724
1888.59	-2.49964
1888.84	0.323669
1889.09	3.14565
1889.34	-1.56447
1889.59	1.25695
1889.84	3.13361
1890.09	3.12429
1890.34	-2.53748
1890.59	4.02691
1890.84	1.19098
1891.09	0.254822
1891.34	-1.63008
1891.59	-0.700228
1891.84	1.17297
1892.09	0.231415
1892.34	-4.46557
1892.59	-1.64548
1892.83	3.99495
1893.08	-0.70076
1893.33	2.12237
1893.58	-1.63291
1893.83	3.07331
1894.08	-2.56496
1894.33	1.19972
1894.58	5.90437
1894.83	5.90437
1895.08	-0.68232
1895.33	3.07626
1895.58	-1.63214
1895.83	1.18153
1896.08	0.231869
1896.33	-2.5969
1896.58	-0.723228
1896.83	1.1513
1897.08	0.20541
1897.32	1.14056
1897.57	-0.740051
1897.82	-2.61833
1898.07	-1.67674
1898.32	-0.732267
1898.57	3.03203
1898.82	2.09776
1899.07	3.9836
1899.32	0.230022
1899.57	0.233021
1899.82	0.230015
1900.07	3.04746
1900.31	-3.54162
1900.57	1.15544
1900.81	-0.729353
1901.06	3.9683
1901.31	-3.55634
1901.56	1.14208
1901.81	3.01929
1902.06	1.13532
1902.31	2.07296
1902.56	-2.62964
1902.81	1.12602
1903.06	2.98939
1903.31	-0.777847
1903.55	5.79119
1903.8	2.02832
1904.05	1.08434
1904.3	-2.67564
1904.55	-1.73657
1904.8	2.95827
1905.05	0.145901
1905.3	-1.73021
1905.55	0.148624
1905.79	2.02808
1906.04	3.90997
1906.29	2.03461
1906.54	2.0402
1906.79	2.04761
1907.04	-1.7061
1907.29	3.00711
1907.54	1.13511
1907.79	-3.56537
1908.04	0.205418
1908.28	1.14966
1908.53	2.09231
1908.78	-0.735136
1909.03	-0.737837
1909.28	1.14067
1909.53	3.9627
1909.78	1.13449
1910.03	4.89988
1910.27	0.188492
1910.52	0.188229
1910.77	1.13494
1911.02	-1.68353
1911.27	0.208969
1911.52	0.213013
1911.77	1.16119
1912.02	0.222725
1912.26	1.17013
1912.51	4.00261
1912.76	1.17042
1913.01	5.88438
1913.26	3.04775
1913.51	-0.729486
1913.76	-0.73871
1914	3.96799
1914.25	-2.64098
1914.5	-4.53319
1914.75	3.94674
1915	0.171707
1915.25	-2.65681
1915.49	3.00372
1915.74	-1.706
1915.99	-3.58673
1916.24	2.08225
1916.49	2.09109
1916.74	-1.67336
1916.99	2.11219
1917.23	0.224594
1917.48	0.221886
1917.73	2.10307
1917.98	-0.727381
1918.23	-1.66626
1918.48	1.1754
1918.72	-1.66059
1918.97	1.17893
1919.22	-2.60519
1919.47	4.0117
1919.72	2.11373
1919.97	5.88699
1920.21	1.15251
1920.46	-3.57953
1920.71	-3.58463
1920.96	1.13538
1921.21	-0.762836
1921.46	0.173286
1921.7	0.167614
1921.95	1.10916
1922.2	0.163895
1922.45	-1.72351
1922.7	2.06175
1922.94	-1.71182
1923.19	4.91371
1923.44	2.08266
1923.69	3.03601
1923.94	0.204113
1924.19	2.10042
1924.43	-3.57881
1924.68	2.10434
1924.93	1.15849
1925.18	1.15935
1925.43	-0.734932
1925.67	-0.735477
1925.92	2.1088
1926.17	-4.52345
1926.42	-1.67783
1926.66	4.01553
1926.91	-1.66647
1927.16	2.13297
1927.41	4.03833
1927.66	6.89149
1927.91	-3.54589
1928.15	3.09809
1928.4	2.1457
1928.65	5.93634
1928.9	-2.61509
1929.15	-0.724094
1929.39	1.1662
1929.64	-0.73946
1929.89	3.04805
1930.14	-1.70026
1930.38	3.98484
1930.63	-4.55151
1930.88	-1.69729
1931.13	-1.6834
1931.37	2.137
1931.62	-1.63939
1931.87	6.95032
1932.12	5.06953
1932.37	5.08788
1932.61	0.333103
1932.86	0.332043
1933.11	4.12003
1933.36	0.304161
1933.61	2.20384
1933.85	4.10088
1934.1	5.04191
1934.35	2.17238
1934.6	-0.694727
1934.84	1.1994
1935.09	2.14164
1935.34	3.08455
1935.59	2.13323
1935.83	0.236683
1936.08	2.14103
1936.33	3.09571
1936.58	3.09793
1936.82	-1.66391
1937.07	-1.66322
1937.32	2.14754
1937.57	2.15322
1937.81	5.02292
1938.06	-1.63591
1938.31	1.2312
1938.56	1.2255
1938.8	1.21506
1939.05	-0.710707
1939.3	0.228382
1939.55	3.10748
1939.79	5.0432
1940.04	1.22469
1940.29	4.082
1940.54	-0.709801
1940.78	4.04292
1941.03	1.17605
1941.28	1.1919
1941.52	-0.714815
1941.77	3.10798
1942.02	-3.57269
1942.27	1.20751
1942.51	1.21227
1942.76	2.17249
1943.01	-0.691782
1943.26	-0.689846
1943.5	-1.6454
1943.75	3.13584
1944	-2.60529
1944.24	2.17159
1944.49	1.2083
1944.74	1.20192
1944.99	-1.67099
1945.23	-1.67496
1945.48	-0.723505
1945.73	-3.59703
1945.97	1.18332
1946.22	2.14256
1946.47	0.232758
1946.71	3.10708
1946.96	2.15548
1947.21	2.16284
1947.46	0.258705
1947.7	2.18553
1947.95	-1.63993
1948.2	3.16372
1948.44	3.17443
1948.69	-1.61527
1948.94	-0.650768
1949.19	-2.56916
1949.43	-0.647633
1949.68	3.1932
1949.93	6.07203
1950.17	-0.648243
1950.42	0.310825
1950.67	-1.62461
1950.91	0.276733
1951.16	6.96805
1951.41	1.189
1951.65	4.04327
1951.9	2.11047
1952.15	3.06096
1952.39	3.05785
1952.64	1.14394
1952.89	1.15124
1953.14	5.00156
1953.38	2.14009
1953.63	-4.57227
1953.88	5.99247
1954.12	0.23447
1954.37	-1.68295
1954.62	4.08373
1954.86	5.04707
1955.11	-0.718006
1955.36	2.16428
1955.6	2.16261
1955.85	6.00343
1956.1	-1.69382
1956.34	4.06263
1956.59	2.13418
1956.84	2.1273
1957.08	-0.763992
1957.33	2.10835
1957.58	2.09876
1957.82	1.1284
1958.07	0.158066
1958.31	3.02794
1958.56	1.09959
1958.81	2.0535
1959.05	3.01065
1959.3	2.04868
1959.55	6.84506
1959.79	0.123878
1960.04	1.08109
1960.29	-1.80144
1960.53	2.03548
1960.78	-1.80721
1961.03	-0.84874
1961.27	2.99191
1961.52	2.02979
1961.77	0.103706
1962.01	4.89935
1962.26	-0.86607
1962.5	-1.83086
1962.75	3.92804
1963	-0.87286
1963.24	-3.75209
1963.49	1.05446
1963.74	0.0960808
1963.98	-0.864193
1964.23	-0.866276
1964.48	2.97379
1964.72	3.93255
1964.97	2.96996
1965.21	0.0827408
1965.46	0.0800209
1965.71	0.0741196
1965.95	3.91093
1966.2	-0.90604
1966.44	1.9634
1966.69	1.94753
1966.94	-1.90804
1967.18	0.000400543
1967.43	0.949707
1967.68	1.90081
1967.92	-0.988403
1968.17	-0.0375252
1968.41	-1.96367
1968.66	0.90675
1968.91	-1.0174
1969.15	7.61558
1969.4	-4.85654
1969.64	-1.02234
1969.89	2.80956
1970.14	-1.99491
1970.38	2.79
1970.63	3.73653
1970.87	3.72631
1971.12	-0.116364
1971.37	1.79417
1971.61	3.7062
1971.86	-0.131329
1972.1	-1.09244
1972.35	1.78262
1972.6	-0.134159
1972.84	-0.133263
1973.09	-0.133415
1973.33	2.74292
1973.58	2.74058
1973.82	-2.05892
1974.07	-0.144867
1974.32	0.808659
1974.56	2.71991
1974.81	-1.12506
1975.05	1.74194
1975.3	4.60835
1975.55	0.765007
1975.79	-2.11797
1976.04	0.751881
1976.28	-1.16872
1976.53	-4.04744
1976.77	1.69951
1977.02	-2.13722
1977.26	3.60956
1977.51	-0.233578
1977.76	-2.16065
1978	0.704887
1978.25	-4.09212
1978.49	-5.059
1978.74	-1.23435
1978.98	2.59065
1979.23	1.62766
1979.48	1.62125
1979.72	2.56778
1979.97	-4.14397
1980.21	-2.24186
1980.46	-5.12566
1980.7	2.51842
1980.95	2.51184
1981.19	-4.19089
1981.44	-3.24181
1981.69	1.53263
1981.93	0.568901
1982.18	-1.35462
1982.42	0.544601
1982.67	-2.32888
1982.91	-2.33201
1983.16	0.533997
1983.4	3.4034
1983.65	0.536396
1983.89	4.35839
1984.14	2.44007
1984.38	0.526089
1984.63	7.20436
1984.88	1.45359
1985.12	-1.42904
1985.37	-0.491024
1985.61	4.26101
1985.86	-1.49546
1986.1	1.33946
1986.35	-2.4952
1986.59	2.24524
1986.84	-0.624325
1987.08	5.07641
1987.33	4.12082
1987.57	-0.636906
1987.82	-0.625507
1988.06	-1.57475
1988.31	-2.52303
1988.55	6.06218
1988.8	-0.59174
1989.04	0.368713
1989.29	1.28736
1989.53	1.24137
1989.78	-2.36231
1990.02	1.30258
1990.27	0.311886
1990.52	3.05083
1990.76	-3.06373
1991.01	0.261227
1991.25	1.80128
1991.49	1.71085
1991.74	0.277397
1991.99	-3.77824
1992.23	-0.34671
1992.47	2.60044
1992.72	0.799351
1992.97	0.100582
1993.21	2.46854
1993.45	0.61338
1993.7	4.59908
1993.95	-1.49934
1994.19	-1.56157
1994.43	4.01209
1994.68	-1.73717
1994.93	-1.38719
1995.17	0.22485
1995.41	0.867023
1995.66	1.01031
1995.9	1.10561
1996.15	0.676628
1996.39	2.59034
1996.64	2.04695
1996.88	3.02722
1997.13	0.464848
1997.37	-0.985538
1997.62	2.11975
1997.86	1.40793
1998.11	1.44095
1998.35	2.11813
1998.6	0.0897141
1998.84	2.6627
1999.09	0.104053
1999.33	3.94138
1999.57	-0.421562
1999.82	1.34776
2000.06	2.13791
2000.31	-1.00391
2000.55	2.23792
2000.8	3.18351
2001.04	1.78735
2001.29	-0.975285
2001.53	3.76638
2001.78	-2.7416
2002.02	2.6761
2002.27	0.481373
2002.51	-3.05259
2002.75	-1.04834
2003	1.32992
2003.24	0.986435
2003.49	1.32005
2003.73	2.06436
2003.98	4.7963
2004.22	2.1502
2004.47	-1.33892
2004.71	-0.136539
2004.95	-2.61251
2005.2	1.07201
2005.44	0.0405006
2005.69	1.06599
2005.93	0.0551186
2006.18	1.77663
2006.42	2.45017
2006.66	2.98788
2006.91	2.25256
2007.15	-0.836224
2007.4	-0.156418
2007.64	2.2915
2007.89	0.432987
2008.13	0.261711
2008.38	-0.0500031
2008.62	0.141735
2008.86	0.0392265
2009.11	-0.169075
2009.35	-0.237495
2009.6	-0.371441
2009.84	2.1329
2010.08	2.98443
2010.33	0.792534
2010.57	1.60094
2010.82	3.65262
2011.06	0.857761
2011.3	-1.65265
2011.55	-0.0867424
2011.79	-0.406609
2012.04	1.10058
2012.18	-0.534412
2012.43	1.34332
2012.68	4.16245
2012.93	4.16375
2013.17	3.21992
2013.42	4.15712
2013.67	2.3063
2013.91	-0.510147
2014.16	0.424721
2014.41	3.23571
2014.66	-1.4735
2014.9	-0.547108
2015.15	2.25385
2015.4	1.29705
2015.64	-0.595634
2015.89	1.26477
2016.14	0.310146
2016.38	0.294212
2016.63	4.0306
2016.88	3.08564
2017.13	-0.667873
2017.37	2.13797
2017.62	0.259926
2017.87	1.19167
2018.11	2.12625
2018.36	-0.684456
2018.61	-1.624
2018.86	0.244629
2019.1	-2.57118
2019.35	2.10344
2019.6	1.15736
2019.84	1.14585
2020.09	3.94019
2020.34	2.99294
2020.58	-1.69489
2020.83	2.03536
2021.08	2.02433
2021.32	2.94878
2021.57	2.93453
2021.82	-0.817921
2022.06	1.03547
2022.31	-2.71281
2022.56	-4.5916
2022.8	3.79399
2023.05	-3.68314
2023.3	0.977951
2023.54	-0.879444
2023.79	-0.863144
2024.04	0.0925598
2024.28	0.11795
2024.53	1.06997
2024.78	1.06536
2025.02	-0.827663
2025.27	1.00867
2025.52	1.85145
2025.76	0.982567
2026.01	-2.64229
2026.26	-0.818748
2026.5	1.07617
2026.75	1.0195
2027	-0.890823
2027.24	-0.00146484
2027.49	4.65897
2027.74	0.891533
2027.98	1.84459
2028.23	0.000152588
2028.48	1.85751
2028.72	1.8549
2028.97	1.85152
2029.22	1.85869
2029.46	1.8672
2029.71	3.74538
2029.96	0.952225
2030.2	0.0240631
2030.45	0.962467
2030.69	0.0342712
2030.94	2.84609
2031.19	0.0194702
2031.43	-0.00291443
2031.68	-0.0430946
2031.93	0.873497
2032.17	0.886227
2032.42	-0.0391388
2032.66	-1.89244
2032.91	-0.00190353
2033.16	4.69006
2033.4	2.82019
2033.65	-1.87815
2033.9	-0.0131073
2034.14	0.929073
2034.39	6.53637
2034.63	-0.94825
2034.88	0.915779
2035.13	1.84359
2035.37	-3.77233
2035.62	0.892986
2035.87	-1.91853
2036.11	3.67905
2036.36	-0.0663528
2036.6	0.858963
2036.85	-1.95216
2037.1	0.836578
2037.34	0.824234
2037.59	-0.120499
2037.83	0.801369
2038.08	-0.141243
2038.33	1.71478
2038.57	1.70866
2038.82	5.43289
2039.06	0.764854
2039.31	3.55365
2039.56	1.68038
2039.8	2.60536
2040.05	0.739326
2040.3	0.739117
2040.54	0.744968
2040.79	0.755848
2041.03	3.56596
2041.28	-1.09392
2041.52	-2.96334
2041.77	-3.90521
2042.02	6.3352
2042.26	-0.221256
2042.51	-2.05951
2042.75	-0.178955
2043	-0.141228
2043.25	-1.02372
2043.49	2.69869
2043.74	0.79039
2043.98	-2.03884
2044.23	2.62361
2044.47	-0.186882
2044.72	-1.14657
2044.97	-0.226681
2045.21	-2.09297
2045.46	-0.229233
2045.7	3.49985
2045.95	1.63633
2046.19	-0.222458
2046.44	-0.217861
2046.69	1.6554
2046.93	1.66572
2047.18	0.739834
2047.42	-2.05482
2047.67	1.68522
2047.91	3.55369
2048.16	-1.12145
2048.41	-1.12982
2048.65	-2.0751
2048.9	1.656
2049.14	5.38943
2049.39	0.723171
2049.63	-2.07885
2049.88	1.65858
2050.12	-2.07483
2050.37	-1.1365
2050.62	-0.196018
2050.86	3.55778
2051.11	-0.177383
2051.35	1.69611
2051.6	-0.175377
2051.84	-1.11354
2052.09	-2.98816
2052.33	-2.05645
2052.58	-1.13143
2052.82	-1.1376
2053.07	1.66381
2053.31	-0.211296
2053.56	-3.95633
2053.8	0.713024
2054.05	0.710487
2054.3	1.64474
2054.54	1.64534
2054.79	1.64753
2055.03	2.58627
2055.28	1.654
2055.52	0.725552
2055.77	2.60283
2056.01	0.736931
2056.26	0.740883
2056.5	-3.00329
2056.75	3.54958
2056.99	2.61323
2057.24	-3.94608
2057.48	1.66368
2057.73	-0.215092
2057.97	1.65871
2058.22	3.53437
2058.46	1.66426
2058.71	-1.14462
2058.95	4.47192
2059.2	-4.8918
2059.45	0.726608
2059.69	1.66484
2059.94	0.731346
2060.18	1.67251
2060.43	-3.94477
2060.67	6.36555
2060.92	4.49407
2061.16	0.746521
2061.4	1.68496
2061.65	-0.187817
2061.9	-1.12211
2062.14	0.758823
2062.39	-0.17028
2062.63	3.59114
2062.88	-0.155735
2063.12	-1.08931
2063.37	-3.90308
2063.61	-0.14687
2063.86	1.7326
2064.1	-0.142899
2064.34	4.55497
2064.59	3.61884
2064.83	0.804554
2065.08	-0.131702
2065.32	-2.94918
2065.57	1.75104
2065.81	2.69424
2066.06	-0.125904
2066.3	-1.07198
2066.55	2.67667
2066.79	-2.97626
2067.04	-0.167233
2067.28	-0.166306
2067.53	-2.03411
2067.77	0.800709
2068.02	-1.06388
2068.26	5.51929
2068.51	2.68546
2068.75	0.835789
2069	-1.029
2069.24	5.56008
2069.48	0.847355
2069.73	-1.0385
2069.97	-1.04244
2070.22	2.72174
2070.46	1.77726
2070.71	1.77699
2070.95	1.777
2071.2	-3.87198
2071.44	3.66355
2071.69	-0.0984688
2071.93	-0.0910187
2072.18	-0.0809021
2072.42	-0.0673447
2072.66	-0.0508995
2072.91	0.904491
2073.15	-4.75324
2073.4	4.68677
2073.64	-0.977055
2073.89	0.906635
2074.13	1.84236
2074.38	-0.0538597
2074.62	0.872715
2074.87	5.58117
2075.11	2.75466
2075.35	-0.068306
2075.6	-2.8964
2075.84	-0.0644302
2076.09	0.882744
2076.33	0.888714
2076.58	3.7382
2076.82	2.8004
2077.06	0.916405
2077.31	7.53496
2077.55	2.815
2077.8	-1.90998
2078.04	-0.0246086
2078.29	1.86151
2078.53	1.85926
2078.77	3.74782
2079.02	4.68953
2079.26	1.85704
2079.51	3.74873
2079.75	-0.0298576
2080	4.69512
2080.24	2.80364
2080.48	2.80124
2080.73	3.7436
2080.97	-4.76183
2081.22	-0.0374069
2081.46	0.906162
2081.7	4.68559
2081.95	0.905998
2082.19	-0.039402
2082.44	0.904491
2082.68	3.73907
2082.93	3.73988
2083.17	0.912479
2083.41	3.75973
2083.66	-2.85239
2083.9	-0.95808
2084.14	-0.00896835
2084.39	4.72706
2084.63	-0.000900269
2084.88	0.944923
2085.12	0.944786
2085.36	-0.00152588
2085.61	0.945732
2085.85	0.946888
2086.1	1.8945
2086.34	2.84563
2086.58	2.8513
2086.83	-3.7699
2087.07	-1.87236
2087.32	0.970516
2087.56	2.86707
2087.8	-2.81492
2088.05	7.61106
2088.29	1.9291
2088.54	2.88019
2088.78	-1.8516
2089.02	1.00214
2089.27	0.0641403
2089.51	0.0745773
2089.75	1.03508
2090	0.0949364
2090.24	2.00261
2090.48	2.01135
2090.73	-0.831055
2090.97	-0.824558
2091.22	1.08262
2091.46	1.08479
2091.7	2.03524
2091.95	-1.76963
2092.19	0.128971
2092.43	2.02413
2092.68	1.0668
2092.92	2.01141
2093.17	2.95677
2093.41	2.00345
2093.65	2.9516
2093.9	2.94987
2094.14	1.0452
2094.38	1.98763
2094.63	1.03037
2094.87	3.87487
2095.11	3.87243
2095.36	0.0736008
2095.6	-0.881325
2095.84	-2.77975
2096.09	1.96485
2096.33	2.91143
2096.57	1.01139
2096.82	0.0614014
2097.06	1.01038
2097.3	2.90923
2097.55	-1.83445
2097.79	4.81212
2098.03	-1.82421
2098.28	7.6783
2098.52	0.0856934
2098.76	-1.81173
2099.01	0.0879364
2099.25	1.98633
2099.5	-1.81265
2099.74	-0.864601
2099.98	-1.81945
2100.22	0.0724373
2100.47	1.96658
2100.71	1.01648
2100.95	2.91254
2101.2	-0.884014
2101.44	3.865
2101.68	0.0729256
2101.93	4.8262
2102.17	-2.76649
2102.41	-1.81129
2102.66	3.89674
2102.9	1.05359
2103.14	1.05745
2103.39	-0.839939
2103.63	2.01387
2103.87	5.81791
2104.12	2.01857
2104.36	-0.831917
2104.6	2.01688
2104.85	0.109196
2105.09	2.00123
2105.33	1.04123
2105.57	1.03188
2105.82	-2.77419
2106.06	1.0209
2106.3	1.97154
2106.55	3.87939
2106.79	1.9888
2107.03	4.83935
2107.27	1.9897
2107.52	2.93983
2107.76	3.88989
2108	1.9902
2108.25	0.090168
2108.49	1.98819
2108.73	-0.865768
2108.98	1.03013
2109.22	-2.77033
2109.46	5.7762
2109.7	2.93081
2109.95	5.78465
2110.19	1.03976
2110.43	0.0979919
2110.68	0.10582
2110.92	2.01072
2111.16	0.108669
2111.4	0.105808
2111.65	2.00586
2111.89	2.95805
2112.13	3.90992
2112.38	2.00781
2112.62	3.90569
2112.86	2.95284
2113.1	0.0997543
2113.35	-2.75614
2113.59	-3.7117
2113.83	4.83268
2114.07	1.03251
2114.32	-0.867714
2114.56	1.98267
2114.8	3.87925
2115.04	-0.873184
2115.29	3.86802
2115.53	1.9609
2115.77	-2.79282
2116.01	3.83981
2116.26	3.83228
2116.5	0.0324097
2116.74	-0.922001
2116.99	0.967831
2117.23	0.963142
2117.47	-1.88106
2117.71	-2.82734
2117.96	0.968826
2118.2	0.0251617
2118.44	1.92894
2118.68	1.93835
2118.92	1.94708
2119.17	1.95527
2119.41	2.91162
2119.65	3.86709
2119.9	-1.8219
2120.14	5.77664
2120.38	-0.86462
2120.62	3.88454
2120.86	-0.86404
2121.11	1.03155
2121.35	-3.71879
2121.59	0.0697556
2121.83	2.90273
2122.08	1.9377
2122.32	-1.86815
2122.56	-0.931301
2122.8	0.00629425
2123.04	2.83706
2123.29	-1.90414
2123.53	0.928501
2123.77	2.81399
2124.01	2.80688
2124.26	-4.76531
2124.5	3.74252
2124.74	-0.0405617
2124.98	-0.986961
2125.22	1.84628
2125.47	-2.88173
2125.71	-0.990276
2125.95	2.79197
2126.19	-0.989372
2126.44	1.84438
2126.68	1.84273
2126.92	-1.93821
2127.16	0.896225
2127.4	-0.0498657
2127.65	4.67304
2127.89	-0.0537529
2128.13	0.887844
2128.37	-1.00539
2128.61	0.879227
2128.86	3.70798
2129.1	-0.071579
2129.34	0.869915
2129.58	0.864311
2129.82	-0.0851517
2130.06	0.856007
2130.31	3.68708
2130.55	-5.74675
2130.79	-1.96981
2131.03	0.862782
2131.27	3.69631
2131.52	0.867657
2131.76	3.69914
2132	-1.96322
2132.24	-6.68153
2132.48	4.64221
2132.73	-2.90888
2132.97	-1.02604
2133.21	-1.97764
2133.45	5.55636
2133.69	2.72304
2133.94	2.72514
2134.18	0.842793
2134.42	-1.98381
2134.66	-1.03659
2134.9	-0.0854683
2135.14	-1.02837
2135.39	1.79196
2135.63	1.78524
2135.87	1.79137
2136.11	1.80444
2136.35	3.70095
2136.59	0.858192
2136.84	-1.04062
2137.08	-3.87203
2137.32	-0.106754
2137.56	2.71627
2137.8	-1.05414
2138.04	1.77005
2138.28	3.65214
2138.53	0.828289
2138.77	2.7068
2139.01	1.7583
2139.25	-1.06782
2139.49	3.63992
2139.74	2.70648
2139.98	-1.05256
2140.22	1.80045
2140.46	2.73493
2140.7	1.71124
2140.94	-2.05639
2141.18	-0.168034
2141.43	1.72477
2141.67	-0.142357
2141.91	2.68847
2142.15	-0.149075
2142.39	1.73312
2142.63	-0.14373
2142.87	1.73663
2143.12	-4.84587
2143.36	0.793629
2143.6	2.67233
2143.84	0.79108
2144.08	3.60875
2144.32	-1.09338
2144.56	1.72248
2144.8	-1.09878
2145.05	-7.67622
2145.29	1.7149
2145.53	3.59064
2145.77	1.70935
2146.01	-3.92775
2146.25	-2.05472
2146.49	2.63188
2146.73	3.55658
2146.98	-0.202148
2147.22	3.54071
2147.46	2.59713
2147.7	-2.09173
2147.94	-1.15364
2148.18	0.725243
2148.42	0.732922
2148.66	-1.13715
2148.9	3.55881
2149.15	-2.06414
2149.39	0.756927
2149.63	-0.184372
2149.87	-0.187229
2150.11	2.62101
2150.35	-2.07051
2150.59	1.67781
2150.83	-2.07233
2151.07	-2.07572
2151.31	-0.207706
2151.56	-3.96329
2151.8	1.64248
2152.04	-0.240963
2152.28	-0.254787
2152.52	2.54146
2152.76	-1.20667
2153	3.45918
2153.24	2.5194
2153.48	1.58307
2153.72	-3.08747
2153.97	-4.02049
2154.21	-1.21616
2154.45	-1.212
2154.69	4.40038
2154.93	1.60583
2155.17	1.61393
2155.41	0.682858
2155.65	2.55417
2155.89	1.61998
2156.13	2.5536
2156.37	0.682171
2156.61	-1.19004
2156.86	-3.99692
2157.1	0.667469
2157.34	-0.272949
2157.58	-5.87919
2157.82	0.650299
2158.06	-1.21809
2158.3	2.51485
2158.54	0.647591
2158.78	1.57917
2159.02	0.646957
2159.26	-5.8815
2159.5	-0.281712
2159.74	-1.21294
2159.98	0.652287
2160.22	-0.282913
2160.47	3.44597
2160.71	1.57929
2160.95	-2.15198
2161.19	-0.28894
2161.43	-2.15768
2161.67	3.42715
2161.91	2.49135
2162.15	3.42591
2162.39	-1.22677
2162.63	-1.22408
2162.87	5.30169
2163.11	3.44066
2163.35	-1.21983
2163.59	0.642159
2163.83	-0.292088
2164.07	2.49772
2164.31	-0.299168
2164.55	-1.23531
2164.79	-4.03475
2165.03	3.39591
2165.27	-1.26786
2165.51	-0.341629
2165.76	0.589386
2166	6.17179
2166.24	1.53021
2166.48	2.46969
2166.72	-0.308811
2166.96	-3.08672
2167.2	2.51324
2167.44	-1.20036
2167.68	1.59913
2167.92	1.59959
2168.16	0.664398
2168.4	-3.06044
2168.64	3.44477
2168.88	1.56199
2169.12	3.40978
2169.36	1.54597
2169.6	-1.24544
2169.84	2.46914
2170.08	4.32858
2170.32	1.54326
2170.56	0.616241
2170.8	1.55024
2171.04	2.48651
2171.28	2.49266
2171.52	-1.22053
2171.76	1.57084
2172	3.43205
2172.24	-1.21285
2172.48	5.29308
2172.72	-0.282494
2172.96	-0.280941
2173.2	0.649246
2173.44	-1.20895
2173.68	1.57538
2173.92	4.36243
2174.16	0.649513
2174.4	2.51106
2174.64	-1.20128
2174.88	-1.19939
2175.12	3.44982
2175.36	2.52062
2175.6	3.44228
2175.84	-4.91903
2176.08	2.51032
2176.32	0.65786
2176.56	1.58973
2176.8	-2.12104
2177.04	-0.261307
2177.28	0.669849
2177.52	1.6003
2177.76	1.60098
2178	0.673126
2178.24	3.46014
2178.48	-2.10883
2178.72	1.6031
2178.96	1.60177
2179.2	1.6031
2179.44	-1.18231
2179.68	1.60088
2179.92	-0.254566
2180.16	0.669449
2180.4	0.665024
2180.64	1.58494
2180.88	0.653393
2181.12	2.50451
2181.35	-3.98408
2181.59	-0.27636
2181.83	3.43387
2182.07	1.58727
2182.31	4.37332
2182.55	2.52563
2182.79	2.53308
2183.03	2.54211
2183.27	2.55205
2183.51	-2.07587
2183.75	-0.208534
2183.99	0.732754
2184.23	1.67429
2184.47	1.68771
2184.71	1.69893
2184.95	2.63337
2185.19	0.775513
2185.43	4.48716
2185.67	3.55467
2185.91	4.47816
2186.15	2.61644
2186.38	4.46536
2186.62	2.60151
2186.86	1.66712
2187.1	1.66573
2187.34	0.74025
2187.58	-1.10952
2187.82	-1.10384
2188.06	1.68417
2188.3	2.61454
2188.54	5.40161
2188.78	-3.86474
2189.02	-1.07651
2189.26	-1.07022
2189.5	1.71851
2189.74	-3.84073
2189.97	2.66195
2190.21	4.52792
2190.45	2.68123
2190.69	2.6927
2190.93	0.853539
2191.17	-2.84275
2191.41	-0.0404739
2191.65	-0.030735
2191.89	2.76057
2192.13	-0.958508
2192.37	1.83021
2192.61	5.54561
2192.85	3.68276
2193.08	-3.75474
2193.32	4.59541
2193.56	-0.982723
2193.8	0.868793
2194.04	6.43265
2194.28	2.71898
2194.52	-0.0653038
2194.76	0.86565
2195	0.870502
2195.24	2.73284
2195.47	1.81706
2195.71	-0.0264168
2195.95	4.62913
2196.19	0.00240326
2196.43	0.0160866
2196.67	2.81856
2196.91	1.90479
2197.15	0.995026
2197.39	1.94797
2197.63	1.03744
2197.86	1.05539
2198.1	2.9331
2198.34	-0.781811
2198.58	-3.58442
2198.82	1.97391
2199.06	-1.80933
2199.3	0.929379
2199.54	4.66192
2199.78	2.87298
2200.01	0.117371
2200.25	3.83169
2200.49	2.89817
2200.73	2.92372
2200.97	0.255741
2201.21	-0.716324
2201.45	3.94596
2201.69	2.09322
2201.92	5.80198
2202.16	2.04627
2202.4	2.02216
2202.64	1.07577
2202.88	2.00415
2203.12	2.00852
2203.36	-4.48885
2203.59	2.95763
2203.83	1.08796
2204.07	2.95343
2204.31	2.03319
2204.55	1.11383
2204.79	2.05537
2205.03	1.1368
2205.27	3.00965
2205.5	3.02135
2205.74	1.17027
2205.98	3.97301
2206.22	2.11882
2206.46	5.85069
2206.7	1.19884
2206.93	1.20215
2207.17	-0.655083
2207.41	4.94215
2207.65	1.22563
2207.89	-2.4914
2208.13	0.313656
2208.37	3.11933
2208.6	-2.46342
2208.84	0.344772
2209.08	1.28931
2209.32	3.16447
2209.56	1.30646
2209.8	-1.48969
2210.03	-0.555576
2210.27	1.31098
2210.51	1.31052
2210.75	3.17315
2210.99	3.17939
2211.23	3.19101
2211.47	-0.521667
2211.7	1.36299
2211.94	1.37139
2212.18	-1.42144
2212.42	2.31964
2212.66	1.39238
2212.89	2.33166
2213.13	5.13761
2213.37	-0.460083
2213.61	0.477436
2213.85	1.41432
2214.09	-3.25016
2214.32	1.42235
2214.56	-2.30603
2214.8	-2.29976
2215.04	3.30705
2215.28	3.3114
2215.51	1.45037
2215.75	4.25998
2215.99	-3.20136
2216.23	-1.32306
2216.47	2.4249
2216.71	-4.10675
2216.94	2.44322
2217.18	-0.351868
2217.42	-0.347469
2217.66	-1.27855
2217.9	3.39806
2218.13	3.39958
2218.37	-2.20916
2218.61	4.32552
2218.85	1.52098
2219.08	6.18754
2219.32	-2.21385
2219.56	1.52409
2219.8	4.33216
2220.04	2.47527
2220.27	2.48572
2220.51	-3.10703
2220.75	-3.09488
2220.99	0.65691
2221.23	1.60727
2221.46	1.62247
2221.7	1.63637
2221.94	0.713814
2222.18	0.726368
2222.42	4.48378
2222.65	1.69094
2222.89	0.767727
2223.13	-2.02986
2223.37	2.66652
2223.6	-4.81861
2223.84	5.50208
2224.08	0.828022
2224.32	1.77651
2224.55	0.848518
2224.79	0.856346
2225.03	0.861168
2225.27	-1.01123
2225.5	-2.8833
2225.74	0.870438
2225.98	2.74924
2226.22	2.75293
2226.46	2.75837
2226.69	3.70729
2226.93	2.7845
2227.17	-0.953646
2227.41	3.7492
2227.64	1.88488
2227.88	1.89763
2228.12	-4.66148
2228.36	0.0462952
2228.59	4.75675
2228.83	1.01171
2229.07	0.084465
2229.31	-1.78322
2229.54	3.86939
2229.78	-1.75981
2230.02	-1.74811
2230.26	-0.796015
2230.49	-0.784323
2230.73	-0.772444
2230.97	3.94384
2231.21	-1.69373
2231.44	2.07575
2231.68	3.02012
2231.92	-0.742384
2232.16	4.90345
2232.39	3.95588
2232.63	4.89273
2232.87	1.13773
2233.11	1.14523
2233.34	-2.60869
2233.58	0.220615
2233.82	0.228088
2234.05	3.05782
2234.29	0.249588
2234.53	2.14486
2234.77	-2.54292
2235	2.1847
2235.24	4.0886
2235.48	4.10517
2235.72	6.00653
2235.95	1.3095
2236.19	2.27124
2236.43	-2.4367
2236.66	0.397278
2236.9	5.11539
2237.14	2.2827
2237.37	2.2803
2237.61	1.33996
2237.85	2.30248
2238.09	-1.45049
2238.32	1.38841
2238.56	1.39709
2238.8	-0.481077
2239.04	-3.30362
2239.27	-0.463297
2239.51	-2.34107
2239.75	-3.27483
2239.98	1.45289
2240.22	-0.429951
2240.46	1.46049
2240.69	-2.31318
2240.93	4.29705
2241.17	2.41523
2241.4	4.31041
2241.64	-0.39679
2241.88	2.45162
2242.11	-2.25041
2242.35	3.43683
2242.59	0.616863
2242.83	1.57545
2243.06	5.37148
2243.3	6.33183
2243.54	-0.275951
2243.77	-2.15787
2244.01	0.691936
2244.25	-2.13502
2244.48	1.66071
2244.72	-1.17018
2244.96	1.67584
2245.19	3.57394
2245.43	0.739655
2245.67	0.744617
2245.91	-3.0352
2246.14	2.64751
2246.38	-1.13162
2246.61	-0.173105
2246.85	4.57054
2247.09	-0.154978
2247.32	3.63376
2247.56	2.68791
2247.8	0.795914
2248.03	5.52422
2248.27	-2.04038
2248.51	8.36271
2248.74	-0.141176
2248.98	-0.132767
2249.22	-1.06766
2249.45	1.78163
2249.69	-1.04198
2249.93	1.81375
2250.16	-3.84128
2250.4	1.85994
2250.64	0.929977
2250.87	-0.00232697
2251.11	2.85464
2251.35	1.92077
2251.58	0.984827
2251.82	0.993139
2252.06	0.0494595
2252.29	2.90284
2252.53	1.01439
2252.77	-1.82147
2253	0.0839691
2253.24	2.9421
2253.48	0.11059
2253.71	-2.72245
2253.95	0.136721
2254.18	1.099
2254.42	-0.786501
2254.66	-0.773895
2254.89	-0.762613
2255.13	2.09577
2255.37	-2.64315
2255.6	-1.68377
2255.84	-0.723206
2256.08	2.13895
2256.31	-1.64855
2256.55	-2.58784
2256.78	-0.676947
2257.02	2.18586
2257.26	2.19747
2257.49	2.20879
2257.73	2.22006
2257.96	-0.6194
2258.2	0.349638
2258.44	3.21876
2258.67	-3.43142
2258.91	-1.51859
2259.15	-1.50799
2259.38	-3.40063
2259.62	-2.43675
2259.85	3.28981
2260.09	1.40125
2260.33	-1.43927
2260.56	-3.32738
2260.8	0.503359
2261.03	0.524355
2261.27	-2.3169
2261.51	-0.389843
2261.74	-0.372404
2261.98	-0.356426
2262.21	-1.29658
2262.45	5.40348
2262.69	4.45809
2262.92	2.55754
2263.16	-3.16776
2263.39	0.654558
2263.63	2.56501
2263.87	0.656012
2264.1	2.56608
2264.34	-2.20196
2264.57	-0.289679
2264.81	-0.286022
2265.05	2.57677
2265.28	0.672461
2265.52	1.63256
2265.75	-3.12542
2265.99	-3.11283
2266.22	0.717241
2266.46	-1.17365
2266.7	-0.201984
2266.93	0.770916
2267.17	1.74588
2267.4	3.67609
2267.64	3.69171
2267.87	-3.94049
2268.11	1.80974
2268.35	1.82463
2268.58	-0.0745487
2268.82	3.76407
2269.05	3.77985
2269.29	-0.0340652
2269.53	-0.0243721
2269.76	0.942776
2270	4.7807
2270.23	1.92133
2270.47	1.93223
2270.7	-0.927784
2270.94	0.0400257
2271.18	2.92196
2271.41	1.97552
2271.65	0.0721283
2271.88	-2.78874
2272.12	0.0944843
2272.35	-0.851961
2272.59	-2.75556
2272.82	-3.70481
2273.06	-3.69161
2273.3	-0.802252
2273.53	4.00484
2273.77	-0.769304
2274	3.08008
2274.24	1.17973
2274.47	2.15876
2274.71	-2.6164
2274.94	5.08252
2275.18	5.10773
2275.41	-1.59974
2275.65	-2.54849
2275.88	2.26365
2276.12	1.31155
2276.36	-2.5225
2276.59	-1.55767
2276.83	2.27762
2277.06	0.3584
2277.3	-5.39602
2277.53	-0.597282
2277.77	3.24181
2278	-3.46457
2278.24	0.37689
2278.47	0.382601
2278.71	2.30598
2278.94	0.402351
2279.18	-3.42008
2279.41	1.38735
2279.65	4.2805
2279.89	0.461777
2280.12	-3.35889
2280.36	-0.462046
2280.59	0.519796
2280.83	0.544376
2281.06	0.567657
2281.3	-1.33046
2281.53	-0.35079
2281.77	1.58638
2282	0.641754
2282.24	0.658905
2282.47	-1.25331
2282.71	2.60724
2282.94	0.685888
2283.18	1.6456
2283.41	0.692739
2283.65	1.66701
2283.88	-1.2038
2284.12	-2.14238
2284.35	0.767691
2284.59	0.782715
2284.82	-3.05644
2285.06	0.815191
2285.29	-2.06694
2285.53	1.79185
2285.76	1.79719
2286	2.76457
2286.23	0.839388
2286.47	-2.04907
2286.7	-0.124565
2286.94	-1.08871
2287.17	-2.04407
2287.41	-0.114061
2287.64	-2.02631
2287.88	-1.05399
2288.11	-1.03934
2288.35	-0.0594254
2288.58	5.73395
2288.82	1.90334
2289.05	0.956924
2289.28	2.89821
2289.52	2.91517
2289.75	0.0442524
2289.99	2.95159
2290.22	0.0774403
2290.46	2.01998
2290.69	2.99795
2290.93	-3.73645
2291.16	2.05481
2291.4	3.98895
2291.63	-1.78698
2291.87	2.07154
2292.1	0.151058
2292.34	-3.6949
2292.57	3.05265
2292.81	1.13295
2293.04	-1.74834
2293.28	4.03077
2293.51	-0.783287
2293.74	1.14978
2293.98	1.16307
2294.21	0.215967
2294.45	0.232462
2294.68	-0.712635
2294.92	-0.69359
2295.15	-0.672655
2295.39	-3.54595
2295.62	0.323484
2295.86	3.23202
2296.09	0.35902
2296.32	4.23396
2296.56	-2.50085
2296.79	-2.48713
2297.03	0.417185
2297.26	1.39289
2297.5	-2.45561
2297.73	0.452711
2297.97	-1.46085
2298.2	-2.41132
2298.43	4.35896
2298.67	1.47657
2298.9	-0.442333
2299.14	1.49819
2299.37	-0.423969
2299.61	-0.415068
2299.84	-1.36853
2300.07	4.43255
2300.31	-0.383774
2300.54	-1.33835
2300.78	1.56852
2301.01	1.58263
2301.25	-0.331656
2301.48	1.61517
2301.71	1.62977
2301.95	-1.25199
2302.18	3.59438
2302.42	-2.18723
2302.65	-0.242399
2302.89	-2.16138
2303.12	-2.14678
2303.35	-1.16575
2303.59	0.779688
2303.82	5.62429
2304.05	-0.164463
2304.29	4.67839
2304.52	-0.145861
2304.76	-1.10485
2304.99	-1.0959
2305.23	1.81114
2305.46	-1.07876
2305.69	-1.06768
2305.93	0.877066
2306.16	0.892836
2306.4	0.909204
2306.63	4.79498
2306.86	-1.95214
2307.1	2.90137
2307.33	0.980949
2307.57	0.993004
2307.8	0.0359058
2308.03	-2.85793
2308.27	0.0482006
2308.5	5.84161
2308.74	2.93204
2308.97	1.00056
2309.2	0.0386124
2309.44	0.0454235
2309.67	-0.913677
2309.91	1.98844
2310.14	2.96404
2310.37	0.0840244
2310.61	3.00014
2310.84	3.98973
2311.07	2.07889
2311.31	-1.76568
2311.54	2.1203
2311.78	1.17643
2312.01	2.16528
2312.24	1.21446
2312.48	-1.68415
2312.71	0.253973
2312.94	2.19266
2313.18	0.262236
2313.41	-0.708857
2313.65	-0.705936
2313.88	1.23228
2314.11	-3.58514
2314.35	0.289852
2314.58	2.23404
2314.81	0.321709
2315.05	2.27041
2315.28	2.27075
2315.51	0.34528
2315.75	2.28348
2315.98	4.22031
2316.22	-0.600349
2316.45	0.371532
2316.68	2.30929
2316.92	3.28294
2317.15	2.3292
2317.38	-2.48367
2317.62	-1.5079
2317.85	-3.42433
2318.08	0.451349
2318.32	0.46731
2318.55	-1.44727
2318.78	0.501305
2319.02	0.520723
2319.25	1.50735
2319.48	-3.30684
2319.72	0.573631
2319.95	7.35006
2320.19	0.595463
2320.42	-0.358252
2320.65	2.55501
2320.89	2.56809
2321.12	-0.321051
2321.35	-0.311544
2321.58	2.59869
2321.82	-1.26499
2322.05	1.63633
2322.28	0.670073
2322.52	4.53715
2322.75	2.61002
2322.98	2.61447
2323.22	-1.24234
2323.45	2.6225
2323.68	0.696619
2323.92	0.700802
2324.15	7.45587
2324.38	1.67302
2324.62	2.64311
2324.85	5.54007
2325.08	6.5105
2325.32	1.70352
2325.55	8.46128
2325.78	5.58107
2326.02	8.47565
2326.25	7.51535
2326.48	11.369
2326.71	12.3388
2326.95	14.2737
2327.18	20.0694
2327.41	25.8554
2327.65	33.5663
2327.88	39.3491
2328.11	44.1721
2328.35	22.0368
2328.58	21.0913
2328.81	13.4028
2329.05	11.496
2329.28	10.5315
2329.51	4.75482
2329.75	12.4643
2329.98	8.61707
2330.21	1.88256
2330.44	-0.0366859
2330.68	-0.029932
2330.91	4.78965
2331.14	-2.9039
2331.38	1.91252
2331.61	-0.00954247
2331.84	3.84305
2332.07	-2.88244
2332.31	2.89638
2332.54	4.82751
2332.77	0.0301743
2333	5.81212
2333.24	-0.911364
2333.47	1.98003
2333.7	1.98758
2333.94	1.03417
2334.17	3.92688
2334.4	0.0888596
2334.63	0.0969944
2334.87	1.06517
2335.1	2.99487
2335.33	3.00267
2335.56	2.04909
2335.8	3.01847
2336.03	2.06758
2336.26	5.92223
2336.5	4.0087
2336.73	3.05541
2336.96	1.13954
2337.19	3.06674
2337.43	0.187717
2337.66	4.03425
2337.89	3.07529
2338.12	0.194588
2338.36	-0.765886
2338.59	1.15121
2338.82	0.192007
2339.05	2.11348
2339.29	4.03463
2339.52	4.03809
2339.75	8.83613
2339.98	1.17333
2340.22	-0.736197
2340.45	1.18951
2340.68	-0.720951
2340.91	1.20306
2341.15	0.252974
2341.38	0.262852
2341.61	3.14774
2341.84	1.23741
2342.08	-0.673872
2342.31	-1.62759
2342.54	6.04233
2342.77	4.1248
2343.01	1.25274
2343.24	0.296926
2343.47	5.09063
2343.7	0.308126
2343.93	5.10179
2344.17	7.02106
2344.4	2.23846
2344.63	4.15977
2344.86	2.25271
2345.1	2.26163
2345.33	0.35704
2345.56	-1.54925
2345.79	5.16118
2346.03	-0.580828
2346.26	1.33604
2346.49	1.32999
2346.72	-0.589338
2346.95	0.359344
2347.19	1.30428
2347.42	-1.57552
2347.65	0.303221
2347.88	2.15203
2348.12	1.25471
2348.35	0.405352
2348.58	1.39697
2348.81	5.16295
2349.04	1.31482
2349.28	3.23258
2349.51	0.378267
2349.74	2.27405
2349.97	2.25176
2350.2	1.28325
2350.44	3.202
2350.67	2.25159
2350.9	4.15571
2351.13	-0.601019
2351.36	-0.597197
2351.6	4.17809
2351.83	1.33153
2352.06	1.33527
2352.29	2.29074
2352.52	-0.565701
2352.76	3.24669
2352.99	3.24732
2353.22	-1.51587
2353.45	2.28796
2353.68	3.22917
2353.92	1.3189
2354.15	-0.585369
2354.38	0.364529
2354.61	3.21579
2354.84	2.26408
2355.07	-4.39015
2355.31	0.362661
2355.54	2.26414
2355.77	-0.589497
2356	2.26078
2356.23	2.26161
2356.46	4.16241
2356.7	0.362034
2356.93	1.30938
2357.16	1.30551
2357.39	0.351927
2357.62	1.29659
2357.86	-3.45185
2358.09	-0.609955
2358.32	2.23024
2358.55	3.17265
2358.78	4.11437
2359.01	1.26479
2359.25	0.310726
2359.48	0.304581
2359.71	0.299467
2359.94	-3.49184
2360.17	-0.655701
2360.4	-0.659025
2360.63	-2.55405
2360.87	1.22838
2361.1	1.22539
2361.33	-0.670273
2361.56	0.271605
2361.79	2.15886
2362.02	-0.680931
2362.26	-0.686214
2362.49	1.19825
2362.72	4.01832
2362.95	0.221849
2363.18	2.09538
2363.41	0.203554
2363.64	2.08838
2363.88	-0.741365
2364.11	-1.67475
2364.34	1.17344
2364.57	-3.5403
2364.8	-2.59923
