#Acq. time (s)=	30
#Accumulations=	2
#Range (cm-¹)=	1200...2365
#Windows=	3
#Auto scanning=	Off
#Autofocus=	Off
#Macrospot=	Off
#AutoExposure=	Off
#Spike filter=	Multiple accum.
#Delay time (s)=	2
#Binning=	1
#Readout mode=	Signal
#DeNoise=	Off
#ICS correction=	On
#Dark correction=	Off
#Inst. Process=	Off
#Detector Gain=	Best Dynamic
#Detector ADC=	50 kHz HS
#Detector temperature (°C)=	-60.09
#Instrument=	LabRAM HR Evol
#Detector=	SIN-EM FIVIS
#Objective=	x100_VIS_LWD
#Grating=	1800 (450-850nm)
#ND Filter=	100%
#Laser=	532nm_Edge
#Hole=	49.98
#Temperature=	0
#Range=	Visible
#StageXY=	75x50mm Scan+
#StageZ=	Z motor
#X (µm)=	0
#Y (µm)=	0
#Z (µm)=	58.8
#Full time(mm:ss)=	3:12
#Project=	21_11_22
#Sample=	BU19w
#Site=	
#Title=	BU19w-D-FF2-FI06-V_1800 (450-850nm)_532nm_Edge_100%_x100_VIS_LWD_H50um_30sX2
#Remark=	
#Date=	22.11.2021 13:14
#Acquired=	22.11.2021 13:14:09
#Base:Fit=	16.12.2021 17:39:50
#Base:Fit=	16.12.2021 17:44:22
#Base:Sub=	16.12.2021 17:44:24
1202.84	2.91257
1203.12	7.15491
1203.4	7.10337
1203.67	1.69189
1203.95	2.71543
1204.23	5.88312
1204.51	2.62887
1204.78	3.66051
1205.06	6.83512
1205.34	3.58669
1205.62	6.75634
1205.9	8.85505
1206.17	4.53787
1206.45	2.3655
1206.73	6.61226
1207.01	2.30508
1207.29	3.33953
1207.56	5.43481
1207.84	4.32381
1208.12	2.14911
1208.39	7.44585
1208.67	6.34001
1208.95	0.966187
1209.23	1.99329
1209.51	3.0234
1209.78	1.92252
1210.06	7.21321
1210.34	1.85554
1210.62	5.02138
1210.89	2.86067
1211.17	0.709072
1211.45	9.20493
1211.72	0.666012
1212	-2.55032
1212.28	4.8791
1212.56	8.0494
1212.84	3.76763
1213.11	-0.519535
1213.39	-0.551888
1213.67	0.476288
1213.94	-1.68435
1214.22	-3.83973
1214.5	3.56854
1214.78	-1.77229
1215.05	2.44825
1215.33	1.35971
1215.61	2.39467
1215.89	0.24958
1216.16	3.41303
1216.44	2.33102
1216.72	-2.99446
1216.99	0.164413
1217.27	5.44957
1217.55	0.130814
1217.83	-5.19003
1218.1	3.27611
1218.38	-0.987663
1218.66	-4.18874
1218.93	-3.15216
1219.21	-3.17883
1219.49	-0.030571
1219.77	0.996387
1220.04	-1.15088
1220.32	-4.35199
1220.6	0.906189
1220.88	-0.175499
1221.15	-1.25714
1221.43	-4.4462
1221.71	-1.29668
1221.98	-1.31355
1222.26	1.8404
1222.54	-1.3342
1222.81	2.88247
1223.09	-1.34705
1223.37	-6.63771
1223.64	0.740917
1223.92	-0.330666
1224.2	0.709095
1224.48	3.84799
1224.75	-0.412521
1225.03	-1.49786
1225.31	1.63219
1225.58	1.59056
1225.86	2.60411
1226.14	3.64061
1226.41	-0.494995
1226.69	6.96394
1226.97	0.603958
1227.24	0.562244
1227.52	2.64658
1227.8	3.69774
1228.07	4.72844
1228.35	11.995
1228.63	10.9425
1228.9	13.0386
1229.18	10.9312
1229.46	8.81918
1229.73	15.1178
1230.01	13.0102
1230.29	16.1526
1230.56	19.2984
1230.84	10.8939
1231.12	21.4009
1231.39	23.5048
1231.67	23.5105
1231.95	26.672
1232.22	24.5728
1232.5	23.525
1232.78	25.6335
1233.05	26.6894
1233.33	22.4826
1233.61	25.6287
1233.88	24.5674
1234.16	22.4533
1234.43	20.3326
1234.71	21.3627
1234.99	23.4424
1235.26	18.1744
1235.54	21.3026
1235.82	23.3841
1236.09	16.0347
1236.37	19.1742
1236.65	13.9283
1236.92	10.782
1237.2	16.0234
1237.47	11.8326
1237.75	11.8363
1238.03	13.938
1238.3	5.55681
1238.58	4.50925
1238.85	4.50525
1239.13	3.45587
1239.41	6.6034
1239.68	8.70652
1239.96	12.9083
1240.24	9.77588
1240.51	10.829
1240.79	7.68879
1241.06	7.69684
1241.34	7.70259
1241.62	8.75362
1241.89	6.65913
1242.17	5.60892
1242.45	7.69999
1242.72	7.69231
1243	5.58992
1243.27	7.68334
1243.55	8.73386
1243.83	10.834
1244.1	11.888
1244.38	12.9386
1244.65	11.8982
1244.93	9.80918
1245.2	16.0794
1245.48	10.8459
1245.76	9.80603
1246.03	12.9547
1246.31	17.1514
1246.59	18.2043
1246.86	22.3949
1247.14	14.0379
1247.41	19.2678
1247.69	12.9909
1247.96	19.2613
1248.24	21.3507
1248.51	28.6649
1248.79	24.4861
1249.07	23.4418
1249.34	26.5749
1249.62	29.7068
1249.89	25.5295
1250.17	29.7039
1250.45	23.4475
1250.72	35.9811
1251	23.4796
1251.27	23.5029
1251.55	31.8806
1251.82	25.6354
1252.1	22.5165
1252.38	24.6223
1252.65	21.5034
1252.93	24.6468
1253.2	24.6627
1253.48	26.7695
1253.75	22.6149
1254.03	25.7663
1254.3	16.3778
1254.58	18.4735
1254.86	23.7046
1255.13	24.7592
1255.41	11.196
1255.68	20.6031
1255.96	8.07904
1256.23	14.3545
1256.51	14.3765
1256.78	15.44
1257.06	12.3493
1257.33	14.4411
1257.61	10.2709
1257.88	16.5316
1258.16	14.4485
1258.44	11.3276
1258.71	4.04364
1258.99	7.226
1259.26	11.4762
1259.54	12.5911
1259.81	5.21416
1260.09	7.27069
1260.36	12.4695
1260.64	5.23013
1260.91	14.6795
1261.19	10.5592
1261.46	14.7976
1261.74	9.55499
1262.01	9.56093
1262.29	12.7146
1262.56	12.7316
1262.84	17.965
1263.11	23.2078
1263.39	16.9614
1263.66	24.3029
1263.94	12.8356
1264.21	17.0482
1264.49	19.1735
1264.76	12.9327
1265.04	10.8755
1265.31	7.77478
1265.59	12.0012
1265.86	6.79399
1266.14	11.0123
1266.41	9.99132
1266.69	8.96358
1266.96	5.83294
1267.24	2.70068
1267.51	6.90156
1267.79	6.91353
1268.06	3.78785
1268.34	7.99253
1268.61	5.91672
1268.89	8.03313
1269.16	4.92464
1269.44	4.95796
1269.71	9.18387
1269.99	7.12348
1270.26	10.3006
1270.54	8.23883
1270.81	7.22458
1271.09	8.30735
1271.36	5.19129
1271.64	7.31493
1271.91	10.4839
1272.18	3.16473
1272.46	9.48609
1272.74	9.51672
1273.01	9.54796
1273.28	3.28445
1273.56	10.6643
1273.83	5.44682
1274.11	7.57709
1274.38	12.8631
1274.66	10.7978
1274.93	8.73134
1275.21	4.55997
1275.48	7.74565
1275.76	8.8344
1276.03	6.76262
1276.3	11.0035
1276.58	7.87048
1276.85	5.78897
1277.13	12.1199
1277.4	8.98762
1277.68	9.01665
1277.95	10.0972
1278.23	9.08131
1278.5	8.06892
1278.77	9.15421
1279.05	13.3891
1279.32	4.99751
1279.6	13.4523
1279.87	11.3667
1280.15	9.27011
1280.42	16.6161
1280.69	17.6711
1280.97	22.9539
1281.24	26.1412
1281.52	29.4709
1281.79	41.0998
1282.07	57.9919
1282.34	82.1996
1282.61	116.926
1282.89	160.116
1283.16	234.956
1283.44	309.767
1283.71	332.883
1283.99	281.316
1284.26	180.257
1284.53	93.9351
1284.81	59.2079
1285.08	42.3866
1285.36	30.8374
1285.63	17.1861
1285.9	21.4271
1286.18	15.1473
1286.45	12.0258
1286.73	7.85025
1287	13.153
1287.28	7.9231
1287.55	4.79228
1287.82	4.81668
1288.1	2.73637
1288.37	6.97746
1288.64	4.89931
1288.92	2.82066
1289.19	0.742908
1289.47	1.82734
1289.74	3.96162
1290.01	6.09369
1290.29	0.858252
1290.56	1.95044
1290.84	1.994
1291.11	3.09208
1291.38	-1.09047
1291.66	2.10229
1291.93	0.0210686
1292.21	0.0547409
1292.48	7.48253
1292.75	0.144173
1293.03	4.42125
1293.3	0.241175
1293.57	1.33212
1293.85	0.306047
1294.12	2.44692
1294.4	3.52792
1294.67	1.43773
1294.94	0.403969
1295.22	5.70602
1295.49	5.73829
1295.76	3.65527
1296.04	1.56788
1296.31	1.59362
1296.58	4.78545
1296.86	0.592554
1297.13	0.627865
1297.4	-1.44945
1297.68	1.74969
1297.95	3.8906
1298.22	-0.303291
1298.5	3.95184
1298.77	-3.40397
1299.04	-1.25651
1299.32	6.17123
1299.59	3.03429
1299.87	2.00865
1300.14	2.03748
1300.41	-1.10363
1300.69	-2.13369
1300.96	0.00749969
1301.23	-3.12869
1301.51	-0.985706
1301.78	1.15686
1302.05	0.128746
1302.33	1.21019
1302.6	-0.876501
1302.87	1.25831
1303.15	-1.88303
1303.42	1.30629
1303.69	-2.88417
1303.97	-0.743996
1304.24	0.344725
1304.51	-2.78688
1304.79	1.46296
1305.06	2.54841
1305.33	-2.6916
1305.6	4.72074
1305.88	-3.68451
1306.15	-2.59367
1306.42	-3.61341
1306.7	-1.46723
1306.97	-3.54334
1307.24	-3.51234
1307.52	4.9596
1307.79	1.82518
1308.06	0.80275
1308.34	1.89163
1308.61	-0.186155
1308.88	-1.20776
1309.15	1.99585
1309.43	2.03252
1309.7	-0.0449905
1309.97	-2.12566
1310.25	3.18013
1310.52	1.09899
1310.79	-3.09418
1311.06	-4.1201
1311.34	-1.97737
1311.61	3.33371
1311.88	3.36864
1312.16	-0.818539
1312.43	-0.78331
1312.7	0.308306
1312.98	0.344292
1313.25	3.54405
1313.52	0.405361
1313.79	-0.620062
1314.07	-0.589092
1314.34	0.49865
1314.61	0.534502
1314.89	2.68208
1315.16	0.603298
1315.43	-1.4762
1315.7	-1.44367
1315.98	-1.41166
1316.25	3.9017
1316.52	0.76325
1316.79	-1.31879
1317.07	0.827536
1317.34	-0.196262
1317.61	0.890656
1317.88	0.918455
1318.16	3.05597
1318.43	-0.0881672
1318.7	-2.17656
1318.97	2.0715
1319.25	3.14935
1319.52	2.12194
1319.79	-2.06914
1320.06	-0.986479
1320.34	-0.960979
1320.61	-0.925737
1320.88	-3.00155
1321.16	1.24893
1321.43	-0.829309
1321.7	3.42101
1321.97	1.34237
1322.25	-2.84071
1322.52	-0.706427
1322.79	-0.686983
1323.06	2.48938
1323.33	0.392788
1323.61	-1.68876
1323.88	4.65184
1324.15	3.6402
1324.42	1.58857
1324.7	-1.52947
1324.97	-1.48856
1325.24	2.77002
1325.51	1.75933
1325.79	-0.308929
1326.06	1.83698
1326.33	0.808495
1326.6	-4.4316
1326.87	4.03937
1327.15	-0.151375
1327.42	0.931459
1327.69	3.06704
1327.96	-1.12625
1328.23	-0.0484257
1328.51	1.02632
1328.78	1.04485
1329.05	-2.09271
1329.32	-1.01594
1329.6	3.21655
1329.87	3.23734
1330.14	3.25754
1330.41	0.125074
1330.68	2.24949
1330.96	0.171175
1331.23	5.44596
1331.5	3.36843
1331.77	0.242687
1332.04	2.36691
1332.32	-1.8049
1332.59	3.46689
1332.86	-1.75226
1333.13	-0.676792
1333.4	1.44734
1333.67	0.425882
1333.95	2.55037
1334.22	1.53014
1334.49	1.55853
1334.76	0.538258
1335.03	1.61065
1335.3	-1.50845
1335.58	-0.434149
1335.85	1.68694
1336.12	5.90257
1336.39	-2.4446
1336.66	1.77517
1336.94	-0.286983
1337.21	3.93303
1337.48	2.91728
1337.75	1.90177
1338.02	-3.30454
1338.29	-0.133514
1338.57	-0.104967
1338.84	5.15773
1339.11	0.995546
1339.38	2.0667
1339.65	5.22867
1339.93	1.06612
1340.2	3.1839
1340.47	1.11989
1340.74	-3.03448
1341.01	4.31614
1341.28	5.39245
1341.55	1.23909
1341.82	3.35832
1342.1	-0.79892
1342.37	3.40707
1342.64	2.38272
1342.91	0.315388
1343.18	-1.75249
1343.45	0.353344
1343.73	1.41745
1344	4.5687
1344.27	4.58875
1344.54	3.56694
1344.81	5.67562
1345.08	5.70083
1345.35	5.72732
1345.63	1.58579
1345.9	1.61102
1346.17	-2.53213
1346.44	1.65907
1346.71	6.89038
1346.98	4.83107
1347.25	-0.350677
1347.52	-0.326305
1347.8	6.98112
1348.07	2.84029
1348.34	0.783848
1348.61	1.84604
1348.88	3.95195
1349.15	3.97993
1349.42	1.9318
1349.69	4.04636
1349.96	0.962744
1350.24	3.07562
1350.51	4.16842
1350.78	6.31409
1351.05	4.23252
1351.32	6.2959
1351.59	0.0545616
1351.86	9.43676
1352.13	2.1953
1352.41	4.29199
1352.68	3.27432
1352.95	2.27207
1353.22	3.34355
1353.49	2.32598
1353.76	4.42853
1354.03	6.53102
1354.3	5.51729
1354.57	5.54116
1354.84	2.4495
1355.11	3.51049
1355.39	4.57081
1355.66	2.51792
1355.93	4.61501
1356.2	2.562
1356.47	2.58533
1356.74	3.64614
1357.01	5.74017
1357.28	0.575953
1357.55	4.74071
1357.82	3.72592
1358.09	1.67856
1358.36	3.77666
1358.63	6.91013
1358.9	4.86369
1359.18	1.78037
1359.45	4.91073
1359.72	4.9346
1359.99	0.818445
1360.26	1.88182
1360.53	6.055
1360.8	7.12136
1361.07	12.3309
1361.34	4.07057
1361.61	2.02336
1361.88	4.11836
1362.15	3.10417
1362.42	7.26555
1362.69	10.3894
1362.97	11.4424
1363.24	7.32195
1363.51	5.27161
1363.78	8.39136
1364.05	7.37238
1364.32	5.32538
1364.59	12.5822
1364.86	8.47747
1365.13	9.53951
1365.4	9.56703
1365.67	10.6283
1365.94	8.58804
1366.21	10.6838
1366.48	10.7115
1366.75	13.8347
1367.02	10.7541
1367.29	5.60695
1367.56	9.7584
1367.83	12.8782
1368.1	11.8636
1368.37	17.0428
1368.64	24.2815
1368.91	25.3196
1369.18	23.2621
1369.45	13.9884
1369.72	11.9406
1369.99	10.9279
1370.26	13.009
1370.54	14.0593
1370.81	9.95764
1371.08	16.1613
1371.34	11.0308
1371.62	14.1433
1371.89	7.98345
1372.16	16.2437
1372.43	15.2385
1372.7	15.2673
1372.97	14.2599
1373.24	14.2863
1373.51	19.4506
1373.78	17.4045
1374.05	24.6211
1374.32	17.4196
1374.59	20.5348
1374.86	19.5393
1375.13	23.6977
1375.4	22.7131
1375.67	21.7323
1375.94	20.7327
1376.21	25.9095
1376.48	23.8641
1376.75	23.8805
1377.02	26.9857
1377.29	29.0498
1377.56	32.1165
1377.83	31.0854
1378.09	26.9704
1378.36	34.2031
1378.64	32.1554
1378.91	35.2361
1379.18	37.2839
1379.44	43.442
1379.71	41.3874
1379.98	41.384
1380.25	45.4919
1380.52	38.3141
1380.79	48.579
1381.06	39.3623
1381.33	46.5627
1381.6	48.6403
1381.87	44.5725
1382.14	53.8427
1382.41	52.8691
1382.68	47.7779
1382.95	49.8693
1383.22	48.8721
1383.49	44.8005
1383.76	48.937
1384.03	48.958
1384.3	55.093
1384.57	60.0865
1384.84	66.1019
1385.11	71.1635
1385.38	78.4471
1385.65	109.369
1385.92	149.563
1386.19	190.778
1386.45	358.169
1386.72	556.446
1386.99	765.725
1387.26	569.224
1387.53	299.286
1387.8	150.64
1388.07	98.3097
1388.34	62.4473
1388.61	45.0394
1388.88	39.9215
1389.15	33.7793
1389.42	32.7622
1389.69	27.6528
1389.96	25.6179
1390.23	22.5609
1390.49	22.5756
1390.76	18.497
1391.03	20.5596
1391.3	17.5057
1391.57	16.4991
1391.84	17.5397
1392.11	17.5621
1392.38	18.611
1392.65	16.5876
1392.92	16.6085
1393.19	19.6969
1393.46	12.5473
1393.73	19.7259
1393.99	13.5991
1394.26	13.6112
1394.53	15.6687
1394.8	10.5689
1395.07	9.56364
1395.34	13.6751
1395.61	10.628
1395.88	11.6715
1396.15	12.7143
1396.42	11.7141
1396.68	10.7122
1396.95	14.8271
1397.22	8.70344
1397.49	9.74843
1397.76	13.869
1398.03	9.79473
1398.3	10.8353
1398.57	6.75949
1398.84	10.8732
1399.11	10.9002
1399.38	11.9599
1399.64	4.81743
1399.91	9.97676
1400.18	10.0039
1400.45	4.89265
1400.72	9.01659
1400.99	13.1335
1401.26	12.1045
1401.53	4.94319
1401.79	12.139
1402.06	12.1516
1402.33	13.1878
1402.6	12.172
1402.87	7.05586
1403.14	11.1677
1403.41	13.2303
1403.68	12.2182
1403.94	12.2354
1404.21	3.0281
1404.48	11.247
1404.75	8.18894
1405.02	9.23154
1405.29	10.274
1405.56	11.3166
1405.82	15.4361
1406.09	10.3269
1406.36	13.4216
1406.63	15.4911
1406.9	13.4567
1407.17	22.7048
1407.44	19.6346
1407.7	26.8163
1407.97	28.8663
1408.24	32.9686
1408.51	42.1958
1408.78	35.0303
1409.05	23.773
1409.31	21.7442
1409.58	18.6954
1409.85	12.5792
1410.12	6.47341
1410.39	10.6169
1410.66	4.44982
1410.92	5.45255
1411.19	11.624
1411.46	9.60679
1411.73	5.52991
1412	11.7013
1412.27	7.60967
1412.53	9.6767
1412.8	0.450731
1413.07	9.70696
1413.34	8.69631
1413.61	6.65847
1413.88	8.72883
1414.14	3.60929
1414.41	7.73478
1414.68	6.72344
1414.95	3.65555
1415.22	9.83434
1415.48	6.76555
1415.75	6.77985
1416.02	2.68205
1416.29	6.80627
1416.56	3.73335
1416.82	7.85127
1417.09	5.80359
1417.36	4.7841
1417.63	4.79141
1417.9	3.77159
1418.17	3.77928
1418.43	5.84167
1418.7	6.88144
1418.97	3.82
1419.24	6.92152
1419.5	2.8325
1419.77	1.82858
1420.04	1.85816
1420.31	0.860516
1420.58	5.97103
1420.84	1.81409
1421.11	5.93759
1421.38	5.92415
1421.65	6.95625
1421.92	5.95315
1422.18	4.95299
1422.45	4.97284
1422.72	3.95101
1422.99	4.99781
1423.26	5.00696
1423.52	6.03942
1423.79	3.9927
1424.06	3.99694
1424.33	5.02548
1424.59	6.05076
1424.86	4.00403
1425.13	5.03448
1425.4	2.99534
1425.66	3.00596
1425.93	6.08936
1426.2	3.02957
1426.47	4.06652
1426.73	4.08022
1427	3.07081
1427.27	6.16119
1427.54	5.15188
1427.81	7.21959
1428.07	7.24102
1428.34	-0.948788
1428.61	4.19604
1428.88	1.12692
1429.14	-0.919542
1429.41	4.21529
1429.68	3.19508
1429.94	5.24898
1430.21	2.17341
1430.48	3.19816
1430.75	5.24685
1431.02	4.22545
1431.28	1.15989
1431.55	3.22618
1431.82	2.2163
1432.08	2.22604
1432.35	3.25979
1432.62	0.193846
1432.89	4.30027
1433.15	1.23357
1433.42	4.3143
1433.69	2.27165
1433.96	2.27795
1434.22	2.28436
1434.49	2.2919
1434.76	7.41875
1435.02	3.32889
1435.29	4.36212
1435.56	5.39807
1435.83	5.40845
1436.09	0.294903
1436.36	-0.720711
1436.63	2.3639
1436.89	1.35153
1437.16	0.339844
1437.43	1.37548
1437.7	2.40979
1437.96	1.39231
1438.23	3.45186
1438.5	2.43226
1438.77	-0.639797
1439.03	6.54198
1439.3	7.57963
1439.57	3.4859
1439.83	3.49764
1440.1	5.55313
1440.37	1.4544
1440.63	0.433018
1440.9	0.437775
1441.17	1.46877
1441.43	2.50163
1441.7	2.51462
1441.97	-0.550684
1442.24	2.54064
1442.5	3.5713
1442.77	0.497911
1443.03	-3.60063
1443.3	1.53298
1443.57	4.61462
1443.84	-2.56008
1444.1	0.521311
1444.37	4.62708
1444.64	-0.496361
1444.9	1.55797
1445.17	3.61388
1445.44	1.5729
1445.7	8.76281
1445.97	7.74479
1446.24	4.67334
1446.5	5.70263
1446.77	1.60322
1447.04	1.60536
1447.3	4.68273
1447.57	1.61095
1447.84	2.63966
1448.1	4.69305
1448.37	2.6467
1448.64	1.62498
1448.9	6.75123
1449.17	1.63154
1449.44	0.611132
1449.7	2.66543
1449.97	1.64673
1450.24	2.67869
1450.5	0.636112
1450.77	0.641216
1451.04	0.644556
1451.3	1.67276
1451.57	-2.4215
1451.83	1.68199
1452.1	-0.363386
1452.37	2.71369
1452.63	1.69361
1452.9	-0.348022
1453.17	-0.341805
1453.43	3.76234
1453.7	2.73991
1453.97	-1.35844
1454.23	6.83905
1454.5	0.694305
1454.77	0.697041
1455.03	-0.324276
1455.3	-0.320274
1455.56	1.73279
1455.83	4.81119
1456.1	-2.35552
1456.36	-0.302143
1456.63	2.77578
1456.9	0.729479
1457.16	-1.31725
1457.43	2.78272
1457.69	1.76004
1457.96	-1.3115
1458.23	0.737783
1458.49	2.78654
1458.76	-1.30875
1459.02	2.78627
1459.29	-0.285069
1459.56	-1.30904
1459.82	0.736397
1460.09	0.734877
1460.36	2.77839
1460.62	-1.31307
1460.89	-0.288801
1461.15	0.74209
1461.42	-2.31523
1461.69	1.78763
1461.95	1.79969
1462.22	1.79036
1462.48	3.7963
1462.75	-0.302929
1463.02	0.717064
1463.28	-1.31568
1463.55	1.7479
1463.81	0.720913
1464.08	-2.34056
1464.35	-0.295935
1464.61	0.725309
1464.88	1.74619
1465.14	0.727291
1465.41	1.74908
1465.67	-2.32946
1465.94	0.731586
1466.21	-1.30815
1466.47	1.75093
1466.74	0.729393
1467	-1.31214
1467.27	0.724537
1467.54	-0.295477
1467.8	1.74185
1468.07	1.7419
1468.33	2.75959
1468.6	1.73838
1468.86	-1.31813
1469.13	-3.35456
1469.39	-1.31722
1469.66	-2.33454
1469.93	2.75736
1470.19	0.720877
1470.46	2.75537
1470.72	2.75333
1470.99	-0.301277
1471.25	-0.301527
1471.52	0.717117
1471.79	-0.297886
1472.05	1.74012
1472.32	4.79492
1472.58	1.74181
1472.85	-0.294504
1473.11	-0.296087
1473.38	-0.297142
1473.64	-1.31535
1473.91	-0.300051
1474.17	2.74883
1474.44	0.713604
1474.71	0.71353
1474.97	-1.32024
1475.24	3.76259
1475.5	-0.307781
1475.77	1.72291
1476.03	0.703985
1476.3	0.701094
1476.56	-0.318192
1476.83	-0.321833
1477.09	-2.35659
1477.36	-1.3469
1477.62	-0.336887
1477.89	-1.35517
1478.15	1.68718
1478.42	-1.3595
1478.68	0.671038
1478.95	0.674168
1479.22	2.70754
1479.48	-1.34844
1479.75	-1.34568
1480.01	-2.36093
1480.28	0.68705
1480.54	-0.327192
1480.81	0.688221
1481.07	-0.328028
1481.34	0.679596
1481.6	0.668707
1481.87	2.67482
1482.13	1.63289
1482.4	-4.44719
1482.66	1.60411
1482.93	1.65159
1483.19	-0.369385
1483.46	-0.361477
1483.72	-1.39568
1483.99	1.65254
1484.25	-2.39804
1484.52	-1.39053
1484.78	0.630404
1485.05	-1.39849
1485.31	-3.4272
1485.58	1.63047
1485.84	0.612524
1486.11	0.607971
1486.37	0.604933
1486.64	-0.409388
1486.9	0.600021
1487.17	2.62225
1487.43	-0.413883
1487.7	1.60601
1487.96	-1.43315
1488.22	1.59567
1488.49	-1.44057
1488.75	-2.45353
1489.02	0.57819
1489.28	-1.44414
1489.55	-1.44592
1489.81	0.573833
1490.08	1.58279
1490.34	0.570604
1490.61	0.567871
1490.87	1.57656
1491.14	-0.446287
1491.4	0.564383
1491.67	1.57572
1491.93	-0.448357
1492.19	-0.452698
1492.46	-1.47008
1492.72	0.542332
1492.99	-0.474833
1493.25	-0.479841
1493.52	-0.484034
1493.78	0.521505
1494.05	0.517021
1494.31	-0.494146
1494.58	-0.495977
1494.84	1.51962
1495.1	0.508142
1495.37	2.52491
1495.63	0.505093
1495.9	-1.51463
1496.16	-2.52506
1496.43	1.51157
1496.69	-3.53584
1496.96	0.501781
1497.22	2.51974
1497.48	-0.511126
1497.75	0.49577
1498.01	0.493162
1498.28	3.51746
1498.54	2.50163
1498.81	-2.54768
1499.07	2.49538
1499.34	-1.54398
1499.6	0.470337
1499.86	-1.55356
1500.13	-0.550789
1500.39	0.453444
1500.66	1.45581
1500.92	0.445005
1501.18	1.45301
1501.45	-1.57367
1501.71	-0.567387
1501.98	-2.58737
1502.24	2.45015
1502.5	-0.579958
1502.77	2.4363
1503.03	1.41837
1503.3	-2.61537
1503.56	0.403925
1503.83	0.40204
1504.09	-2.62034
1504.35	3.42366
1504.62	1.40675
1504.88	0.396374
1505.15	0.392471
1505.41	-1.62643
1505.67	0.38644
1505.94	-0.623106
1506.2	1.38983
1506.47	2.39451
1506.73	-1.63888
1506.99	3.39888
1507.26	2.39019
1507.52	0.36805
1507.78	-0.645855
1508.05	0.354279
1508.31	1.35305
1508.58	0.335674
1508.84	-2.69546
1509.1	-3.71247
1509.37	3.31219
1509.63	0.285929
1509.9	1.28225
1510.16	0.270529
1510.42	2.27166
1510.69	-1.74851
1510.95	0.260326
1511.21	-0.739372
1511.48	0.264238
1511.74	-1.7498
1512.01	-1.75668
1512.27	2.25138
1512.53	2.24296
1512.8	-0.776785
1513.06	-0.785355
1513.32	-1.79535
1513.59	0.205385
1513.85	0.200712
1514.11	0.196293
1514.38	-0.810036
1514.64	-0.812904
1514.9	3.19605
1515.17	-0.814692
1515.43	2.19206
1515.7	-2.82473
1515.96	-0.820814
1516.22	3.19024
1516.49	-1.82747
1516.75	-1.82985
1517.01	2.17966
1517.28	-0.835066
1517.54	-0.839672
1517.8	-0.841988
1518.07	-0.843508
1518.33	-2.8519
1518.59	2.16244
1518.86	0.151552
1519.12	-0.856796
1519.38	2.14737
1519.65	-0.867746
1519.91	-2.87899
1520.17	0.123369
1520.44	0.114231
1520.7	-0.898859
1520.96	0.0945892
1521.23	3.09194
1521.49	0.0801983
1521.75	-0.927649
1522.02	0.0722466
1522.28	-0.93173
1522.54	3.07151
1522.81	-0.935398
1523.07	-0.935478
1523.33	-0.934103
1523.59	3.07546
1523.86	2.07146
1524.12	1.06519
1524.38	-1.94798
1524.65	-2.95482
1524.91	4.05493
1525.17	3.04747
1525.44	0.0355797
1525.7	0.0299187
1525.96	-2.98052
1526.23	-0.981647
1526.49	0.0161018
1526.75	3.01605
1527.02	4.01021
1527.28	-1.00138
1527.54	-2.00481
1527.8	-1.00324
1528.07	-3.0068
1528.33	1.00026
1528.59	1.99923
1528.86	0.992125
1529.12	0.989183
1529.38	2.98641
1529.64	0.981319
1529.91	1.98528
1530.17	-3.02376
1530.43	1.99246
1530.69	-1.01737
1530.96	-0.0163231
1531.22	-2.02645
1531.48	0.978237
1531.75	2.97905
1532.01	-1.0387
1532.27	-2.04683
1532.53	0.954407
1532.8	-0.0617466
1533.06	-0.071373
1533.32	1.92394
1533.59	-1.09098
1533.85	-1.10153
1534.11	-1.1114
1534.37	-0.117102
1534.64	-0.125475
1534.9	-2.12934
1535.16	-1.13644
1535.42	0.85342
1535.69	-1.15158
1535.95	-2.15684
1536.21	0.843365
1536.48	1.85155
1536.74	-1.13979
1537	-2.13574
1537.26	1.87587
1537.53	-3.13065
1537.79	0.881054
1538.05	1.8829
1538.31	-0.134829
1538.58	-0.139359
1538.84	0.853792
1539.1	2.8488
1539.36	0.836143
1539.62	0.827372
1539.89	-3.18577
1540.15	0.810629
1540.41	-2.20019
1540.67	0.791695
1540.94	-2.21933
1541.2	2.77813
1541.46	-0.224751
1541.72	-0.224504
1541.98	0.778347
1542.25	-0.221893
1542.51	0.783442
1542.77	-0.217249
1543.03	2.78638
1543.3	1.78356
1543.56	-1.22646
1543.82	-1.22933
1544.08	-0.229109
1544.35	1.77337
1544.61	0.770063
1544.87	3.76783
1545.13	1.74891
1545.39	-3.26139
1545.66	-0.260508
1545.92	1.74576
1546.18	-0.278969
1546.44	0.696703
1546.71	0.688042
1546.97	0.695517
1547.23	-1.28957
1547.49	1.74265
1547.75	2.76575
1548.02	2.78545
1548.28	-0.245945
1548.54	2.76477
1548.8	-1.25877
1549.06	-0.265059
1549.33	2.75194
1549.59	-1.25986
1549.85	-1.26593
1550.11	1.73779
1550.37	-0.28846
1550.64	-1.2984
1550.9	-0.300404
1551.16	-0.307859
1551.42	2.6908
1551.68	2.67981
1551.94	2.66814
1552.21	2.66168
1552.47	3.65832
1552.73	1.65114
1552.99	-0.354645
1553.25	1.64577
1553.52	0.637194
1553.78	0.633867
1554.04	2.6351
1554.3	0.62933
1554.56	1.62801
1554.82	-0.380133
1555.09	2.61759
1555.35	2.60698
1555.61	-0.405008
1555.87	1.58628
1556.13	4.57731
1556.39	-0.433157
1556.65	2.55881
1556.92	0.551939
1557.18	-0.453978
1557.44	2.53895
1557.7	2.5337
1557.96	0.530245
1558.22	1.52592
1558.49	1.52393
1558.75	0.524837
1559.01	3.52641
1559.27	2.53006
1559.53	0.526598
1559.79	2.52247
1560.05	-0.482845
1560.32	1.51495
1560.58	0.509546
1560.84	0.504805
1561.1	0.508541
1561.36	4.51587
1561.62	0.512562
1561.88	2.50946
1562.15	1.49424
1562.41	0.455194
1562.67	2.39467
1562.93	0.371059
1563.19	0.452162
1563.45	1.47437
1563.71	3.45947
1563.98	1.44238
1564.24	2.45592
1564.5	1.47264
1564.76	4.46583
1565.02	-0.552984
1565.28	2.44541
1565.54	2.44539
1565.8	-0.556009
1566.07	1.43889
1566.33	-0.571169
1566.59	1.42002
1566.85	2.41634
1567.11	2.41505
1567.37	0.413662
1567.63	1.41031
1567.89	-4.58958
1568.15	4.40089
1568.42	6.39422
1568.68	-2.60493
1568.94	-0.613241
1569.2	-1.61577
1569.46	1.37531
1569.72	1.36816
1569.98	0.363613
1570.24	1.35609
1570.5	0.351442
1570.77	-0.652411
1571.03	-0.654991
1571.29	0.343742
1571.55	2.34235
1571.81	3.34347
1572.07	-1.64808
1572.33	3.34919
1572.59	0.352646
1572.85	3.34899
1573.11	2.34513
1573.37	-1.65527
1573.64	-0.660921
1573.9	1.32799
1574.16	1.31706
1574.42	1.3066
1574.68	3.29203
1574.94	-0.708067
1575.2	1.27779
1575.46	1.27109
1575.72	0.270161
1575.98	3.25805
1576.24	4.25209
1576.5	2.25578
1576.76	2.25436
1577.03	-3.7278
1577.29	3.25118
1577.55	4.24625
1577.81	1.25113
1578.07	2.24319
1578.33	3.23401
1578.59	3.22842
1578.85	1.22801
1579.11	3.21363
1579.37	7.19458
1579.63	4.20149
1579.89	1.20865
1580.15	-0.787241
1580.41	4.19002
1580.67	0.202831
1580.93	2.19022
1581.19	3.18364
1581.46	3.18327
1581.72	-0.801905
1581.98	3.18102
1582.24	4.17457
1582.5	3.1748
1582.76	1.17983
1583.02	2.17147
1583.28	3.15971
1583.54	0.165279
1583.8	2.14996
1584.06	5.13021
1584.32	4.13022
1584.58	0.14604
1584.84	3.12756
1585.1	7.10522
1585.36	1.1352
1585.62	4.12078
1585.88	1.13642
1586.14	1.13689
1586.4	0.141989
1586.66	4.12418
1586.92	4.12297
1587.18	4.1208
1587.44	4.12068
1587.7	6.11311
1587.96	2.12992
1588.22	3.12314
1588.48	2.12514
1588.74	3.11748
1589	6.10031
1589.26	5.09708
1589.52	2.10162
1589.78	3.08942
1590.04	5.07364
1590.3	5.06258
1590.56	2.06861
1590.82	6.03208
1591.08	5.03011
1591.34	6.0181
1591.6	3.03654
1591.86	3.03746
1592.12	3.0404
1592.38	5.02913
1592.64	3.04027
1592.9	3.02786
1593.16	5.01211
1593.42	4.01717
1593.68	1.03603
1593.94	5.00822
1594.2	6.00167
1594.46	3.02209
1594.72	5.00954
1594.98	5.00736
1595.24	1.02987
1595.5	4.99739
1595.76	4.98907
1596.02	4.98143
1596.28	4.97525
1596.54	4.96951
1596.8	3.97162
1597.06	3.96608
1597.32	-0.00668716
1597.58	1.97133
1597.84	2.95593
1598.1	3.93851
1598.36	2.9384
1598.62	3.92004
1598.88	2.92202
1599.14	1.92592
1599.4	5.87955
1599.66	3.8935
1599.92	6.85448
1600.18	5.85813
1600.44	5.85208
1600.7	5.84758
1600.96	1.88925
1601.22	7.81988
1601.48	4.85299
1601.73	11.7739
1601.99	3.863
1602.25	5.84003
1602.51	7.81757
1602.77	6.82988
1603.03	7.82101
1603.29	2.87791
1603.55	4.85847
1603.81	6.83887
1604.07	1.89293
1604.33	3.87159
1604.59	5.84932
1604.85	9.80521
1605.11	4.85676
1605.37	0.8979
1605.63	6.83299
1605.89	2.87282
1606.14	4.84429
1606.4	8.79083
1606.66	5.81728
1606.92	7.7855
1607.18	2.85846
1607.44	3.80805
1607.7	3.86562
1607.96	2.93761
1608.22	4.97632
1608.48	6.78066
1608.74	6.71116
1609	8.78758
1609.26	10.9926
1609.51	8.67181
1609.77	3.21835
1610.03	7.83553
1610.29	5.12499
1610.55	8.13909
1610.81	5.7409
1611.07	5.67334
1611.33	4.00081
1611.59	7.7492
1611.85	2.48841
1612.11	7.85542
1612.36	4.459
1612.62	6.5814
1612.88	6.51523
1613.14	5.8297
1613.4	4.82747
1613.66	8.50771
1613.92	5.32593
1614.18	6.28137
1614.44	6.16309
1614.7	8.91778
1614.95	7.24194
1615.21	7.6956
1615.47	5.92682
1615.73	8.42535
1615.99	10.5678
1616.25	4.16458
1616.51	8.85601
1616.77	7.78874
1617.03	9.14692
1617.28	7.79674
1617.54	6.09168
1617.8	4.68341
1618.06	6.11963
1618.32	8.11298
1618.58	7.50672
1618.84	10.3411
1619.1	8.21877
1619.35	7.62549
1619.61	9.25131
1619.87	7.09342
1620.13	6.68007
1620.39	7.78856
1620.65	8.06308
1620.91	7.98887
1621.17	6.97408
1621.42	8.19928
1621.68	8.38548
1621.94	7.42709
1622.2	6.95292
1622.46	8.43632
1622.72	8.32866
1622.98	11.1797
1623.23	10.2344
1623.49	8.38747
1623.75	6.77671
1624.01	7.23101
1624.27	8.10365
1624.53	8.54265
1624.79	8.99957
1625.04	9.74414
1625.3	9.88109
1625.56	9.5013
1625.82	5.89269
1626.08	8.59671
1626.34	10.2144
1626.59	9.93567
1626.85	11.153
1627.11	7.97722
1627.37	9.74311
1627.63	9.90812
1627.89	9.48389
1628.14	8.23986
1628.4	8.19008
1628.66	8.90106
1628.92	9.88901
1629.18	9.85723
1629.44	5.43095
1629.69	6.89566
1629.95	11.1543
1630.21	10.9276
1630.47	10.1256
1630.73	6.63435
1630.99	8.56361
1631.24	7.38134
1631.29	7.02938
1631.55	9.0035
1631.81	10.9771
1632.07	8.0212
1632.33	9.99312
1632.59	12.9498
1632.86	10.978
1633.12	11.9622
1633.38	8.01933
1633.64	9.98824
1633.9	5.06119
1634.16	10.9683
1634.42	5.05757
1634.68	12.9347
1634.95	6.04321
1635.21	12.9343
1635.47	9.98011
1635.73	8.01206
1635.99	8.99871
1636.25	6.04766
1636.51	13.9243
1636.77	11.9575
1637.03	11.9589
1637.3	9.00722
1637.56	9.01161
1637.82	12.9568
1638.08	10.0085
1638.34	7.05684
1638.6	12.9646
1638.86	10.9949
1639.12	11.9797
1639.39	10.0117
1639.65	9.02837
1639.91	12.967
1640.17	10.9996
1640.43	14.9387
1640.69	9.03417
1640.95	11.0025
1641.21	9.03354
1641.47	9.03128
1641.73	9.03129
1641.99	10.0167
1642.25	11.9907
1642.52	7.076
1642.78	11.0171
1643.04	9.05058
1643.3	7.08227
1643.56	7.08193
1643.82	9.04955
1644.08	12.9856
1644.34	8.06634
1644.6	12.0006
1644.86	9.05021
1645.12	9.05322
1645.38	13.9742
1645.65	8.08154
1645.91	13.0087
1646.17	14.0151
1646.43	9.09474
1646.69	11.0643
1646.95	11.0632
1647.21	9.09885
1647.47	12.066
1647.73	7.14928
1647.99	13.0679
1648.25	10.1205
1648.51	10.1265
1648.77	10.1304
1649.03	7.17692
1649.29	7.18
1649.55	9.15528
1649.82	8.16886
1650.08	12.1101
1650.34	16.053
1650.6	6.20412
1650.86	10.1498
1651.12	9.17052
1651.38	12.1314
1651.64	9.17914
1651.9	9.18439
1652.16	14.1201
1652.42	9.2004
1652.68	7.23929
1652.94	9.22449
1653.2	8.2464
1653.46	12.2013
1653.72	8.25838
1653.98	7.2753
1654.24	10.2387
1654.5	10.2394
1654.76	8.26609
1655.02	9.2546
1655.28	10.2425
1655.54	12.216
1655.81	10.2421
1656.07	6.29599
1656.33	10.2408
1656.58	11.2262
1656.84	9.25303
1657.11	6.29542
1657.37	11.2304
1657.63	7.29375
1657.89	11.2459
1658.15	9.28192
1658.41	7.31751
1658.67	12.2589
1658.93	8.31864
1659.19	9.30131
1659.45	7.32939
1659.71	12.316
1659.97	11.3477
1660.23	10.3504
1660.49	10.3535
1660.75	10.3295
1661.01	8.33171
1661.27	7.36933
1661.53	6.38981
1661.79	5.41124
1662.05	10.366
1662.31	8.39138
1662.57	5.39783
1662.83	8.37317
1663.09	8.4243
1663.35	10.4061
1663.61	10.4137
1663.87	5.40222
1664.13	6.38213
1664.39	9.38951
1664.65	10.3745
1664.91	10.3751
1665.17	7.41508
1665.43	9.38864
1665.69	8.40889
1665.95	5.46634
1666.21	10.4177
1666.47	10.4236
1666.72	7.46514
1666.99	8.45795
1667.25	5.49432
1667.51	7.47788
1667.76	10.4618
1668.02	10.4696
1668.28	9.4823
1668.54	6.51974
1668.8	9.48777
1669.06	5.54065
1669.32	9.50017
1669.58	5.55106
1669.84	8.5203
1670.1	8.52473
1670.36	10.5069
1670.62	6.55795
1670.88	4.58669
1671.14	8.54863
1671.4	7.56761
1671.66	7.57469
1671.92	7.58239
1672.18	7.59183
1672.44	7.59931
1672.7	8.59517
1672.96	8.5993
1673.22	8.60327
1673.48	9.59871
1673.74	5.64552
1674	6.64013
1674.25	9.61308
1674.51	6.64675
1674.77	9.61756
1675.03	4.67076
1675.29	6.64918
1675.55	10.6045
1675.81	5.66017
1676.07	5.66174
1676.33	6.65218
1676.59	5.66635
1676.85	9.62208
1677.11	5.67079
1677.37	7.65014
1677.63	10.6165
1677.89	5.67814
1678.15	8.64478
1678.4	6.67253
1678.66	4.70098
1678.92	9.645
1679.18	6.68594
1679.44	5.70294
1679.7	4.71985
1679.96	5.71152
1680.22	1.76414
1680.48	8.68374
1680.74	4.73678
1681	5.72853
1681.25	4.74354
1681.51	8.69582
1681.77	6.72355
1682.03	9.68969
1682.29	6.73127
1682.55	5.74824
1682.81	5.75298
1683.07	5.75803
1683.33	4.77612
1683.59	6.75879
1683.84	5.78
1684.1	7.76252
1684.36	5.79148
1684.62	4.80656
1684.88	4.80891
1685.14	8.76184
1685.4	3.82679
1685.66	4.81673
1685.92	7.77958
1686.18	6.79265
1686.43	3.83304
1686.69	7.781
1686.95	1.86208
1687.21	5.80807
1687.47	5.81465
1687.73	5.82385
1687.99	6.81814
1688.25	5.83832
1688.51	5.8443
1688.76	0.91794
1689.02	4.87183
1689.28	7.83741
1689.54	5.86701
1689.8	2.90799
1690.06	4.88236
1690.32	5.86856
1690.58	3.89537
1690.84	3.89422
1691.09	7.83824
1691.35	2.91145
1691.61	4.88285
1691.87	7.84032
1692.13	3.90596
1692.39	5.88274
1692.64	3.91873
1692.9	3.92516
1693.16	5.90241
1693.42	1.96938
1693.68	0.990318
1693.94	1.98041
1694.2	4.93962
1694.46	6.91068
1694.71	4.93979
1694.97	1.0009
1695.23	2.97163
1695.49	3.95794
1695.75	1.99166
1696.01	3.96269
1696.26	1.99888
1696.52	1.02007
1696.78	2.9944
1697.04	3.9838
1697.3	4.97276
1697.56	3.00658
1697.81	5.96274
1698.07	3.01574
1698.33	4.00352
1698.59	7.94104
1698.85	4.0085
1699.11	1.06022
1699.37	0.0793724
1699.62	5.97861
1699.88	4.01522
1700.14	5.00227
1700.4	5.9895
1700.66	5.99327
1700.91	4.03182
1701.17	2.07199
1701.43	4.04443
1701.69	5.03464
1701.95	1.10964
1702.21	2.09677
1702.46	-0.846313
1702.72	4.07209
1702.98	4.07666
1703.24	2.11389
1703.5	3.09749
1703.75	3.09834
1704.01	2.11728
1704.27	3.0999
1704.53	3.10097
1704.79	3.10101
1705.04	1.13916
1705.3	3.09985
1705.56	3.0989
1705.82	4.07714
1706.08	2.11799
1706.33	4.07796
1706.59	2.12295
1706.85	1.14856
1707.11	0.175104
1707.37	4.09688
1707.62	1.16617
1707.88	3.13198
1708.14	-1.75616
1708.4	4.12682
1708.66	2.17533
1708.91	1.2026
1709.17	3.16693
1709.43	3.16962
1709.69	0.231798
1709.95	0.230717
1710.2	3.16359
1710.46	0.228931
1710.72	0.227852
1710.98	5.11405
1711.23	1.20841
1711.49	1.21199
1711.75	-0.737257
1712.01	1.221
1712.27	1.22667
1712.52	4.16778
1712.78	2.22191
1713.04	3.20406
1713.3	2.23089
1713.55	2.23357
1713.81	3.21162
1714.07	3.21152
1714.33	-1.66952
1714.58	1.25628
1714.84	4.17809
1715.1	4.17588
1715.36	2.22515
1715.61	1.25161
1715.87	-2.64102
1716.13	1.25796
1716.39	-3.60445
1716.64	6.13716
1716.9	1.27363
1717.16	1.28174
1717.42	1.2872
1717.68	1.29078
1717.93	1.29308
1718.19	4.21285
1718.45	3.24223
1718.71	0.325752
1718.96	2.27267
1719.22	3.246
1719.48	2.27484
1719.74	1.30429
1719.99	2.27754
1720.25	-0.634319
1720.51	1.31131
1720.76	2.28643
1721.02	1.32138
1721.28	3.26707
1721.54	0.359362
1721.79	-0.608876
1722.05	1.33333
1722.31	1.33197
1722.56	0.362173
1722.82	0.361967
1723.08	1.33358
1723.34	2.30706
1723.59	3.28341
1723.85	3.28704
1724.11	1.35154
1724.37	1.3518
1724.62	2.3273
1724.88	0.399139
1725.14	-1.53423
1725.39	0.405401
1725.65	1.36922
1725.91	2.3161
1726.17	1.33301
1726.42	-0.595236
1726.68	1.35057
1726.94	3.29658
1727.19	2.3387
1727.45	-1.52738
1727.71	0.405867
1727.96	-0.549844
1728.22	-1.49787
1728.48	1.40806
1728.74	-0.518919
1728.99	0.452845
1729.25	0.457462
1729.51	1.42797
1729.76	1.43171
1730.02	-0.497294
1730.28	1.43644
1730.53	3.36749
1730.79	-1.45985
1731.05	2.39934
1731.3	-0.493512
1731.56	-0.492477
1731.82	-0.491585
1732.08	0.472788
1732.33	1.43666
1732.59	2.40096
1732.85	0.477819
1733.1	-0.481052
1733.36	-0.476603
1733.62	-0.472574
1733.87	1.45575
1734.13	2.4213
1734.39	-1.42347
1734.64	2.42799
1734.9	2.43129
1735.16	2.43366
1735.41	2.4356
1735.67	-1.40684
1735.93	1.47869
1736.18	1.4802
1736.44	3.40159
1736.7	-0.440353
1736.95	4.35641
1737.21	1.47655
1737.47	0.517315
1737.72	-0.440068
1737.98	-1.39607
1738.24	-1.3935
1738.49	2.44073
1738.75	-0.430128
1739.01	1.48849
1739.26	2.45021
1739.52	-1.37454
1739.78	0.544443
1740.03	1.50583
1740.29	-1.36072
1740.54	1.51617
1740.8	1.5196
1741.06	0.564693
1741.31	-0.388494
1741.57	1.52789
1741.83	-1.33632
1742.08	-0.374051
1742.34	0.588528
1742.6	-2.27544
1742.85	0.598721
1743.11	0.602097
1743.36	0.604298
1743.62	-1.30602
1743.88	-0.349123
1744.13	-1.3017
1744.39	-0.345525
1744.65	1.56709
1744.9	-1.29535
1745.16	0.61867
1745.42	-1.28491
1745.67	2.53935
1745.93	0.636699
1746.18	-2.22052
1746.44	-0.30345
1746.7	-2.20518
1746.95	-2.19678
1747.21	0.678174
1747.46	-3.13501
1747.72	-0.259471
1747.98	-0.252958
1748.23	1.66652
1748.49	-0.240043
1748.74	3.58634
1749	-0.236028
1749.26	-1.19004
1749.51	-0.232379
1749.77	-1.18482
1750.02	2.63614
1750.28	0.729058
1750.54	-0.222486
1750.79	-0.219357
1751.05	0.73758
1751.31	-0.214116
1751.56	-0.211619
1751.82	0.745153
1752.07	-2.11111
1752.33	0.752358
1752.59	0.755769
1752.84	-1.14723
1753.1	3.61835
1753.35	0.762035
1753.61	0.763081
1753.86	-0.188289
1754.12	1.71561
1754.38	-0.185455
1754.63	-0.181767
1754.89	1.72487
1755.14	-2.07222
1755.4	-2.06363
1755.66	0.797446
1755.91	-1.09984
1756.17	0.808945
1756.42	0.814911
1756.68	-2.03399
1756.93	0.825825
1757.19	-1.07296
1757.44	-1.06873
1757.7	0.838057
1757.96	-0.109756
1758.21	0.844145
1758.47	-0.104376
1758.72	0.849361
1758.98	-1.04815
1759.23	1.80784
1759.49	-1.98849
1759.75	-1.03027
1760	-0.0728483
1760.26	0.883254
1760.51	0.888377
1760.77	1.84531
1761.02	-1.00073
1761.28	0.908381
1761.53	1.86976
1761.79	0.928458
1762.05	0.936299
1762.3	-0.00834179
1762.56	-0.00170898
1762.81	1.90864
1763.07	0.010273
1763.32	2.8717
1763.58	0.972169
1763.83	-1.87978
1764.09	0.980751
1764.34	-1.87014
1764.6	-1.86611
1764.85	-0.911285
1765.11	-2.81073
1765.37	0.99836
1765.62	1.00329
1765.88	-1.84781
1766.13	1.00304
1766.39	0.0498867
1766.64	1.94643
1766.9	0.999088
1767.15	1.95476
1767.41	-0.884144
1767.66	1.02297
1767.92	2.92872
1768.17	1.03529
1768.43	-1.80542
1768.68	0.105497
1768.94	0.111331
1769.19	1.06876
1769.45	1.077
1769.7	0.134025
1769.96	0.141186
1770.21	0.148054
1770.47	2.05836
1770.72	1.11335
1770.98	1.11989
1771.23	0.174158
1771.49	0.180049
1771.74	-0.766113
1772	0.193283
1772.26	-0.752776
1772.51	4.97106
1772.76	-0.732879
1773.02	-0.725049
1773.27	-0.718627
1773.53	0.239904
1773.78	-0.709438
1774.04	3.10609
1774.29	-1.65678
1774.55	0.25245
1774.8	2.16002
1775.06	-0.695653
1775.31	-1.64566
1775.57	1.21339
1775.82	1.21469
1776.08	-1.63983
1776.33	0.264739
1776.59	-0.683548
1776.84	-0.677685
1777.1	1.23384
1777.35	0.288024
1777.61	1.24583
1777.86	-0.651657
1778.12	2.21025
1778.37	-0.640504
1778.63	0.317161
1778.88	-2.533
1779.13	0.330472
1779.39	2.24307
1779.65	1.2987
1779.9	0.352875
1780.15	-1.54657
1780.41	-0.58724
1780.66	0.372573
1780.92	-1.52737
1781.17	2.29333
1781.43	-1.51327
1781.68	1.35614
1781.94	0.40892
1782.19	1.36862
1782.45	0.418927
1782.7	-1.48555
1782.95	0.425529
1783.21	-2.4325
1783.46	3.29606
1783.72	-1.46747
1783.97	-1.46057
1784.23	0.455904
1784.48	0.464936
1784.74	-1.43404
1784.99	-2.37728
1785.24	1.46078
1785.5	1.47472
1785.75	-0.430077
1786.01	-0.423035
1786.26	0.543426
1786.52	0.553074
1786.77	1.51899
1787.03	1.52546
1787.28	-0.384945
1787.54	1.53821
1787.79	2.50105
1788.04	-0.370999
1788.3	0.585067
1788.55	0.583616
1788.81	2.50185
1789.06	-2.28311
1789.31	0.594718
1789.57	1.55724
1789.82	-1.31033
1790.08	-0.346615
1790.33	1.57492
1790.59	1.57888
1790.84	-1.28965
1791.09	-2.24251
1791.35	0.637226
1791.6	0.639895
1791.86	-1.27357
1792.11	0.655181
1792.36	-0.289246
1792.62	0.680719
1792.87	-0.271834
1793.13	-0.265243
1793.38	-1.21873
1793.64	0.708861
1793.89	0.716075
1794.14	-1.19847
1794.4	1.69116
1794.65	-1.18583
1794.9	-0.21877
1795.16	-1.17457
1795.41	-1.16937
1795.67	-2.12623
1795.92	0.762369
1796.17	-0.196192
1796.43	-3.07803
1796.68	-0.192288
1796.94	-0.191175
1797.19	0.77136
1797.44	-0.187477
1797.7	1.73624
1797.95	-0.182226
1798.21	-1.13951
1798.46	0.785075
1798.71	1.74968
1798.97	-0.166785
1799.22	-0.161813
1799.47	-1.11718
1799.73	-1.11143
1799.98	0.816891
1800.24	-0.137399
1800.49	-0.13048
1800.74	0.837148
1801	0.841935
1801.25	0.846533
1801.5	0.852821
1801.76	-1.06472
1802.01	0.866026
1802.27	-2.0142
1802.52	-0.0818081
1802.77	-1.03772
1803.03	0.895154
1803.28	-0.0620365
1803.53	0.907408
1803.79	0.913005
1804.04	-1.00982
1804.29	1.88541
1804.55	-1.96606
1804.8	-0.034812
1805.05	0.932835
1805.31	0.936716
1805.56	-0.0231848
1805.81	0.944753
1806.07	-1.94299
1806.32	-1.93899
1806.58	-0.00699139
1806.83	0.961248
1807.08	0.965346
1807.34	-0.959048
1807.59	0.00854588
1807.84	1.93935
1808.1	0.978042
1808.35	0.981314
1808.6	-1.90776
1808.86	-0.94041
1809.11	0.991375
1809.36	0.99577
1809.62	-1.89188
1809.87	1.0066
1810.12	0.0480461
1810.38	1.9822
1810.63	0.0573072
1810.88	0.0629578
1811.14	-0.895481
1811.39	0.0766277
1811.64	-0.881289
1811.9	0.0915842
1812.15	1.06372
1812.4	0.102495
1812.65	3.00605
1812.91	-0.855924
1813.16	3.01416
1813.41	-0.848351
1813.67	1.08959
1813.92	1.09267
1814.17	2.06204
1814.43	2.06056
1814.68	-1.80798
1814.93	0.124428
1815.19	-0.837066
1815.44	-0.83125
1815.69	1.10841
1815.95	0.145363
1816.2	0.148379
1816.45	2.08559
1816.7	0.157424
1816.96	-0.804922
1817.21	0.166134
1817.46	0.170876
1817.72	0.175699
1817.97	0.179905
1818.22	2.11884
1818.47	1.1567
1818.73	-2.7084
1818.98	-0.768567
1819.23	2.1392
1819.49	-1.7283
1819.74	3.11517
1819.99	-2.68937
1820.24	2.15436
1820.5	-0.747927
1820.75	-0.746346
1821	3.12639
1821.26	-0.742002
1821.51	1.19785
1821.76	2.16992
1822.01	-0.730454
1822.27	3.14667
1822.52	1.21441
1822.77	2.18625
1823.03	3.15743
1823.28	2.19147
1823.53	-1.67929
1823.78	-2.64499
1824.04	-0.70507
1824.29	-0.70146
1824.54	-0.697629
1824.79	1.2441
1825.05	-1.65883
1825.3	0.280972
1825.55	0.282931
1825.8	1.25226
1826.06	2.22114
1826.31	-1.65172
1826.56	-2.61814
1826.81	0.289133
1827.07	0.290631
1827.32	0.290934
1827.57	1.26012
1827.82	-0.675416
1828.08	1.26399
1828.33	-4.54135
1828.58	3.20947
1828.83	-0.660066
1829.09	0.312462
1829.34	1.28541
1829.59	-1.61705
1829.84	0.326292
1830.1	1.29926
1830.35	0.331954
1830.6	4.21196
1830.85	0.338452
1831.11	1.31038
1831.36	1.31353
1831.61	0.340504
1831.86	-0.634082
1832.12	2.26624
1832.37	0.325768
1832.62	-0.643109
1832.87	-0.644464
1833.13	0.325353
1833.38	1.29687
1833.63	0.398257
1833.88	0.376637
1834.13	-2.54541
1834.39	1.32874
1834.64	0.350409
1834.89	-0.624296
1835.14	-0.636045
1835.39	-0.639915
1835.65	-0.634728
1835.9	-0.608957
1836.15	-0.601357
1836.4	0.373549
1836.65	1.3459
1836.91	2.31938
1837.16	-0.586001
1837.41	1.33861
1837.66	1.33091
1837.92	1.32406
1838.17	2.28502
1838.42	-0.619115
1838.67	-0.62311
1838.92	3.23478
1839.18	-2.55953
1839.43	0.332351
1839.68	-1.59779
1839.93	-0.629856
1840.18	0.33546
1840.43	-1.5909
1840.69	-0.62494
1840.94	1.30546
1841.19	-1.5878
1841.44	-0.621269
1841.7	1.31088
1841.95	1.31182
1842.2	-1.58189
1842.45	-0.615452
1842.7	-0.612254
1842.95	1.32504
1843.2	-0.598184
1843.46	0.375758
1843.71	0.381405
1843.96	-0.594506
1844.21	0.350815
1844.46	3.2231
1844.72	1.29553
1844.97	0.336841
1845.22	-1.58124
1845.47	-1.57833
1845.72	-0.619353
1845.97	1.30546
1846.23	0.343271
1846.48	-2.54635
1846.73	0.338404
1846.98	0.335372
1847.23	-1.59151
1847.48	1.2896
1847.74	0.325397
1847.99	1.28401
1848.24	0.321367
1848.49	-0.640407
1848.74	0.31928
1848.99	1.27948
1849.25	0.319871
1849.5	2.24136
1849.75	-0.638234
1850	0.322945
1850.25	-1.597
1850.5	1.28353
1850.75	0.32252
1851.01	1.28009
1851.26	-0.642361
1851.51	1.27254
1851.76	1.26992
1852.01	1.26905
1852.26	1.26709
1852.51	2.22118
1852.76	-0.656687
1853.02	-0.657521
1853.27	0.300043
1853.52	2.21608
1853.77	-0.656347
1854.02	0.301965
1854.27	0.302048
1854.52	1.25895
1854.78	-0.657073
1855.03	-0.657976
1855.28	0.297771
1855.53	-0.661528
1855.78	-0.663853
1856.03	0.290462
1856.28	-3.53784
1856.53	-1.62752
1856.79	0.28366
1857.04	1.24065
1857.29	1.24104
1857.54	-0.668878
1857.79	1.24728
1858.04	1.24999
1858.29	-1.61697
1858.54	-0.657112
1858.79	3.17301
1859.04	0.302871
1859.3	1.25914
1859.55	2.21366
1859.8	1.25405
1860.05	1.25093
1860.3	1.2479
1860.55	2.2008
1860.8	1.24228
1861.05	1.23993
1861.3	-0.672973
1861.56	2.19061
1861.81	2.18808
1862.06	0.275488
1862.31	-1.63696
1862.56	0.268052
1862.81	1.21744
1863.06	2.16524
1863.31	-0.700374
1863.56	0.246993
1863.81	2.14611
1864.06	-2.61967
1864.32	0.23061
1864.57	0.225744
1864.82	1.17326
1865.07	0.220757
1865.32	0.219515
1865.57	-0.731624
1865.82	0.21983
1866.07	4.02364
1866.32	0.220357
1866.57	0.219669
1866.82	0.218903
1867.07	2.1193
1867.32	2.11861
1867.57	0.217038
1867.83	2.11743
1868.08	-2.63479
1868.33	1.16654
1868.58	0.214867
1868.83	-1.68719
1869.08	-1.68938
1869.33	1.15916
1869.58	0.207701
1869.83	-2.64407
1870.08	1.15144
1870.33	2.09911
1870.58	-0.74936
1870.83	1.14763
1871.08	0.196111
1871.33	-0.755658
1871.58	-0.758772
1871.84	-1.71062
1872.08	1.13058
1872.33	0.17842
1872.59	-1.7211
1872.84	1.11551
1873.09	0.16048
1873.34	0.15586
1873.59	2.04389
1873.84	-1.74341
1874.09	1.09111
1874.34	-2.69844
1874.59	1.07128
1874.84	1.05949
1875.09	0.138906
1875.34	1.12504
1875.59	-0.794641
1875.84	2.04135
1876.09	0.150647
1876.34	0.163222
1876.59	1.11313
1876.84	-1.73389
1877.09	-0.790242
1877.34	1.10249
1877.59	2.04894
1877.84	0.15666
1878.09	-0.79346
1878.34	2.04414
1878.59	-0.802101
1878.84	1.08234
1879.09	0.129107
1879.34	2.95502
1879.59	0.111972
1879.84	0.10343
1880.1	-1.78901
1880.34	2.00602
1880.59	5.85235
1880.84	0.107089
1881.1	1.02527
1881.34	-0.856137
1881.59	4.80362
1881.84	-0.857648
1882.1	1.97641
1882.34	-0.84831
1882.59	3.87049
1882.85	-0.844742
1883.1	1.0481
1883.34	0.106097
1883.59	2.9397
1883.85	1.04694
1884.09	1.98495
1884.34	1.98063
1884.59	1.97615
1884.84	0.0849447
1885.09	-0.862474
1885.34	1.01795
1885.59	0.069231
1885.84	0.063798
1886.09	1.9419
1886.34	0.0539465
1886.59	-0.8897
1886.84	0.99133
1887.09	-0.892205
1887.34	1.93315
1887.59	0.0527563
1887.84	0.0541792
1888.09	0.0537281
1888.34	0.0517187
1888.59	1.93365
1888.84	0.0485811
1889.09	0.988333
1889.34	0.0452681
1889.59	0.984734
1889.84	0.981378
1890.09	0.0356455
1890.34	-1.85321
1890.59	0.0196962
1890.84	-1.8669
1891.09	0.953729
1891.34	0.950778
1891.59	-0.933733
1891.84	-0.93676
1892.09	0.940615
1892.34	1.87968
1892.59	0.940318
1892.83	0.00109959
1893.08	0.00159836
1893.33	0.942285
1893.58	0.00366592
1893.83	1.8857
1894.08	0.946503
1894.33	1.88764
1894.58	2.82829
1894.83	-1.87578
1895.08	-0.936652
1895.33	-0.938909
1895.58	1.87943
1895.83	1.87518
1896.08	-1.89014
1896.33	-0.0147114
1896.58	0.921659
1896.83	1.85841
1897.08	-1.90303
1897.32	-0.0266724
1897.57	0.911121
1897.82	-0.0287304
1898.07	0.911042
1898.32	-0.966804
1898.57	-1.90561
1898.82	-0.964476
1899.07	1.85748
1899.32	0.919868
1899.57	-0.0202065
1899.82	-0.0222521
1900.07	-2.84654
1900.31	-0.0279427
1900.57	0.909465
1900.81	-1.91401
1901.06	-1.9162
1901.31	-0.0377474
1901.56	-0.0396261
1901.81	0.898433
1902.06	-0.0440445
1902.31	3.71441
1902.56	1.83247
1902.81	0.889629
1903.06	-0.057641
1903.31	0.877082
1903.55	0.873664
1903.8	-0.0687857
1904.05	-1.01068
1904.3	-0.07407
1904.55	-1.95298
1904.8	1.80228
1905.05	1.80393
1905.3	-1.01381
1905.55	0.864271
1905.79	-1.95511
1906.04	0.863832
1906.29	1.80457
1906.54	-0.0738497
1906.79	0.868528
1907.04	0.871426
1907.29	0.87469
1907.54	1.81949
1907.79	-2.88571
1908.04	0.881784
1908.28	-1.94365
1908.53	0.881484
1908.78	0.879991
1909.03	-1.006
1909.28	-0.0671635
1909.53	-3.83692
1909.78	0.870324
1910.03	-0.0732517
1910.27	-0.0750484
1910.52	1.80777
1910.77	0.867089
1911.02	-0.0723534
1911.27	-1.01276
1911.52	-1.95505
1911.77	-0.0680285
1912.02	-0.0669832
1912.26	-0.0662575
1912.51	-0.0665359
1912.76	0.875621
1913.01	-1.01424
1913.26	-1.0174
1913.51	-1.96314
1913.76	-0.0810432
1914	-0.0857582
1914.25	-0.0899191
1914.5	-0.0937643
1914.75	0.845856
1915	-0.0995216
1915.25	-1.98609
1915.49	-0.10007
1915.74	1.78767
1915.99	-1.04028
1916.24	-0.094553
1916.49	2.74015
1916.74	1.80136
1916.99	-0.0856934
1917.23	-1.97567
1917.48	-1.03284
1917.73	2.74191
1917.98	0.853319
1918.23	0.855415
1918.48	-1.03386
1918.72	-1.98023
1918.97	-0.0889425
1919.22	0.855436
1919.47	-1.98432
1919.72	2.7406
1919.97	-0.10091
1920.21	1.786
1920.46	-0.108021
1920.71	-1.05651
1920.96	0.830331
1921.21	1.7708
1921.46	-1.06873
1921.7	1.7622
1921.95	0.81512
1922.2	-1.07563
1922.45	-1.07573
1922.7	1.76071
1922.94	-1.07289
1923.19	-1.07174
1923.44	-3.90862
1923.69	-1.06913
1923.94	1.77224
1924.19	-0.120744
1924.43	-1.06787
1924.68	1.7727
1924.93	-1.06905
1925.18	-2.01711
1925.43	-0.123485
1925.67	-2.01955
1925.92	0.822575
1926.17	0.822268
1926.42	0.822631
1926.66	-2.02033
1926.91	1.77478
1927.16	-3.91552
1927.41	-1.06796
1927.66	-0.118059
1927.91	1.78164
1928.15	0.830402
1928.4	0.828135
1928.65	4.62166
1928.9	1.76911
1929.15	1.76463
1929.39	0.811086
1929.64	1.75546
1929.89	0.802314
1930.14	0.799215
1930.38	0.79531
1930.63	2.69254
1930.88	-0.151011
1931.13	-0.145776
1931.37	2.71274
1931.62	0.823112
1931.87	-0.119144
1932.12	-1.06452
1932.37	0.846786
1932.61	1.80441
1932.86	0.849387
1933.11	0.837533
1933.36	0.834947
1933.61	1.78414
1933.85	1.7793
1934.1	-0.131942
1934.35	-1.09011
1934.6	-2.04744
1934.84	0.803682
1935.09	2.70217
1935.34	1.7454
1935.59	-0.158998
1935.83	-3.01344
1936.08	-0.158194
1936.33	-2.06318
1936.58	-0.158761
1936.82	1.74594
1937.07	1.74554
1937.32	1.74439
1937.57	-0.160279
1937.81	2.7027
1938.06	-1.10588
1938.31	0.803396
1938.56	1.75415
1938.8	-1.11383
1939.05	-2.07572
1939.3	2.68439
1939.55	-0.169452
1939.79	0.79423
1940.04	0.793412
1940.29	-2.07496
1940.54	3.64312
1940.78	1.72524
1941.03	3.6298
1941.28	-0.180488
1941.52	-1.13521
1941.77	1.72955
1942.02	-1.13455
1942.27	-0.178642
1942.51	-1.1334
1942.76	-0.177159
1943.01	0.779139
1943.26	-0.177067
1943.5	-1.13409
1943.75	1.73368
1944	-1.13775
1944.24	0.77179
1944.49	0.767751
1944.74	-1.14854
1944.99	0.761045
1945.23	-0.197947
1945.48	-3.06964
1945.73	0.751865
1945.97	0.750636
1946.22	-0.20562
1946.47	-1.16207
1946.71	-1.16183
1946.96	0.753058
1947.21	0.755101
1947.46	-1.15677
1947.7	0.762571
1947.95	-0.193309
1948.2	-2.10847
1948.44	3.65003
1948.69	-0.185308
1948.94	2.69571
1949.19	-2.10486
1949.43	1.73561
1949.68	0.773945
1949.93	1.73222
1950.17	2.69353
1950.42	1.73122
1950.67	0.762948
1950.91	-0.206801
1951.16	-0.218177
1951.41	-0.2286
1951.65	0.7201
1951.9	-1.20392
1952.15	0.707935
1952.39	-0.252473
1952.64	-1.21095
1952.89	-2.16793
1953.14	-1.20527
1953.38	-1.20084
1953.63	0.719893
1953.88	0.721159
1954.12	1.68161
1954.37	2.64296
1954.62	2.64364
1954.86	2.64379
1955.11	2.64321
1955.36	-0.241317
1955.6	2.64032
1955.85	1.67641
1956.1	-0.250438
1956.34	-0.255463
1956.59	1.66238
1956.84	0.697528
1957.08	0.692433
1957.33	2.60825
1957.58	-2.19884
1957.82	-0.28345
1958.07	-0.288838
1958.31	0.665846
1958.56	0.661002
1958.81	2.57676
1959.05	0.655283
1959.3	2.57273
1959.55	-0.308769
1959.79	-0.310977
1960.04	1.60656
1960.29	-2.23535
1960.53	-0.317803
1960.78	-0.320066
1961.03	-0.321788
1961.27	0.637282
1961.52	0.635383
1961.77	1.59214
1962.01	-0.331683
1962.26	-0.334568
1962.5	-0.337613
1962.75	-0.339749
1963	-1.30105
1963.24	0.61994
1963.49	-0.340308
1963.74	1.5816
1963.98	1.58115
1964.23	0.61812
1964.48	0.615011
1964.72	-1.30963
1964.97	1.57248
1965.21	1.57006
1965.46	-1.31628
1965.71	-0.358469
1965.95	0.598242
1966.2	0.592326
1966.44	1.54622
1966.69	0.57761
1966.94	-2.31031
1967.18	0.563879
1967.43	1.51798
1967.68	-0.406225
1967.92	1.50725
1968.17	-4.25383
1968.41	1.49778
1968.66	0.534286
1968.91	0.530688
1969.15	-0.429595
1969.4	2.44666
1969.64	-2.35245
1969.89	0.522221
1970.14	-0.44158
1970.38	2.42996
1970.63	-0.453147
1970.87	0.500389
1971.12	-0.462734
1971.37	1.45045
1971.61	1.44727
1971.86	1.44471
1972.1	-0.474474
1972.35	2.40008
1972.6	-2.39439
1972.84	1.44042
1973.09	0.480429
1973.33	0.478939
1973.58	0.476844
1973.82	0.474391
1974.07	3.34917
1974.32	-1.45051
1974.56	-2.41357
1974.81	0.459023
1975.05	-0.505155
1975.3	0.448508
1975.55	2.36095
1975.79	-0.519006
1976.04	1.39448
1976.28	-2.44204
1976.53	0.431062
1976.77	0.428222
1977.02	-2.4496
1977.26	1.38166
1977.51	1.3766
1977.76	-2.46232
1978	-1.50883
1978.25	0.403467
1978.49	-0.559691
1978.74	1.35192
1978.98	-0.56738
1979.23	1.34487
1979.48	-0.574348
1979.72	2.29265
1979.97	-0.585077
1980.21	0.36544
1980.46	-0.59857
1980.7	-1.5605
1980.95	2.2622
1981.19	-1.56806
1981.44	-1.57229
1981.69	2.24892
1981.93	-1.58047
1982.18	1.28209
1982.42	2.23105
1982.67	2.22724
1982.91	-1.59818
1983.16	1.2677
1983.4	-0.64464
1983.65	-1.60149
1983.89	1.26486
1984.14	0.305116
1984.38	3.17223
1984.63	-0.65956
1984.88	3.15628
1985.12	-0.67428
1985.37	2.18238
1985.61	0.262176
1985.86	1.20155
1986.1	2.14186
1986.35	1.17688
1986.59	-1.69055
1986.84	-0.744963
1987.08	-1.70183
1987.33	1.15072
1987.57	-0.75339
1987.82	2.10743
1988.06	1.15588
1988.31	0.204553
1988.55	0.206885
1988.8	0.193891
1989.04	-0.737402
1989.29	-0.705853
1989.53	1.09125
1989.78	0.145282
1990.02	1.05085
1990.27	0.106144
1990.52	1.80698
1990.76	0.977493
1991.01	1.04496
1991.25	1.02921
1991.49	-0.661754
1991.74	1.7666
1991.99	0.144185
1992.23	0.177425
1992.47	-0.674639
1992.72	1.81559
1992.97	1.69399
1993.21	0.00345898
1993.45	-1.54873
1993.7	0.416614
1993.95	2.11519
1994.19	2.04973
1994.43	1.58247
1994.68	-1.3389
1994.93	1.43801
1995.17	-0.350403
1995.41	1.57421
1995.66	1.02429
1995.9	-0.376061
1996.15	0.811955
1996.39	0.732525
1996.64	-1.77547
1996.88	-1.04963
1997.13	-0.0203876
1997.37	-0.542457
1997.62	-1.37494
1997.86	-0.514331
1998.11	0.789206
1998.35	0.204027
1998.6	0.759868
1998.84	0.810666
1999.09	-0.196403
1999.33	-0.208006
1999.57	-1.27868
1999.82	1.46475
2000.06	-0.41771
2000.31	0.610705
2000.55	0.56953
2000.8	1.51628
2001.04	-0.852605
2001.29	0.918998
2001.53	0.143222
2001.78	1.44659
2002.02	-0.371634
2002.27	-0.0650291
2002.51	0.413139
2002.75	-0.0384884
2003	-0.732908
2003.24	0.299667
2003.49	1.01067
2003.73	0.276749
2003.98	0.772694
2004.22	0.827913
2004.47	0.0153637
2004.71	1.96785
2004.95	0.895164
2005.2	-0.264059
2005.44	-0.331509
2005.69	0.390363
2005.93	1.00861
2006.18	1.26204
2006.42	1.44897
2006.66	-0.648416
2006.91	0.0214958
2007.15	-0.641563
2007.4	-0.705884
2007.64	0.126213
2007.89	-0.261112
2008.13	0.540616
2008.38	0.985681
2008.62	1.31037
2008.86	1.00631
2009.11	-0.410361
2009.35	-0.557719
2009.6	0.941321
2009.84	1.13599
2010.08	0.040678
2010.33	-1.24725
2010.57	-2.6638
2010.82	-1.03703
2011.06	0.469245
2011.3	0.346088
2011.55	1.31738
2011.79	0.313023
2012.04	-0.347035
2012.18	1.88217
2012.43	3.75936
2012.68	-0.93316
2012.93	0.00544357
2013.17	-1.87489
2013.42	0.00148869
2013.67	0.951758
2013.91	2.83247
2014.16	-0.929784
2014.41	1.88543
2014.66	2.81918
2014.9	0.933519
2015.15	-0.952091
2015.4	0.917096
2015.64	-0.967038
2015.89	-0.0361919
2016.14	-0.0440531
2016.38	1.8226
2016.63	-0.0568151
2016.88	0.876018
2017.13	0.872484
2017.37	-0.0663967
2017.62	2.74072
2017.87	-2.88119
2018.11	-1.94612
2018.36	-0.0738745
2018.61	-1.94894
2018.86	-2.88803
2019.1	1.79172
2019.35	-1.02169
2019.6	-1.02615
2019.84	-1.03134
2020.09	-1.97286
2020.34	-0.106573
2020.58	-0.111648
2020.83	-1.98708
2021.08	1.74793
2021.32	-0.126747
2021.57	2.6703
2021.82	-0.140083
2022.06	-2.01454
2022.31	-0.153478
2022.56	-0.1597
2022.8	0.767352
2023.05	-0.172482
2023.3	1.69145
2023.54	-0.170774
2023.79	-0.163879
2024.04	-2.02326
2024.28	-0.144072
2024.53	0.798256
2024.78	0.795754
2025.02	-1.08515
2025.27	1.70353
2025.52	-2.99891
2025.76	2.62405
2026.01	-1.06211
2026.26	-0.148188
2026.5	0.797743
2026.75	-0.163331
2027	-2.04977
2027.24	1.66385
2027.49	-0.203756
2027.74	0.712235
2027.98	-2.07649
2028.23	0.730331
2028.48	-0.207129
2028.72	0.724324
2028.97	-0.210649
2029.22	2.59176
2029.46	-1.13883
2029.71	4.46841
2029.96	0.736058
2030.2	0.738561
2030.45	-2.06436
2030.69	1.67761
2030.94	1.68029
2031.19	1.66978
2031.43	1.65847
2031.68	-0.227971
2031.93	0.697323
2032.17	1.63593
2032.42	-3.02819
2032.66	0.712523
2032.91	1.65737
2033.16	-0.205797
2033.4	0.72933
2033.65	-3.0208
2033.9	3.52034
2034.14	-0.216082
2034.39	0.717225
2034.63	-1.15512
2034.88	-0.223107
2035.13	-0.226542
2035.37	2.5738
2035.62	-2.10324
2035.87	0.696239
2036.11	-0.242139
2036.36	-0.24624
2036.6	3.48527
2036.85	-0.255093
2037.1	-0.260818
2037.34	-0.26651
2037.59	-0.271959
2037.83	-0.277111
2038.08	-0.281839
2038.33	-0.28605
2038.57	-0.289049
2038.82	0.640776
2039.06	0.637272
2039.31	-2.16226
2039.56	-1.23443
2039.8	1.55753
2040.05	-3.10252
2040.3	1.55559
2040.54	-0.305898
2040.79	-1.23408
2041.03	2.50118
2041.28	0.637243
2041.52	-1.23061
2041.77	-0.302326
2042.02	1.55458
2042.26	-4.04986
2042.51	2.48468
2042.75	-0.305955
2043	-0.289874
2043.25	3.47532
2043.49	0.659543
2043.74	1.57619
2043.98	-1.2383
2044.23	1.55953
2044.47	-1.24533
2044.72	0.608064
2044.97	-0.330304
2045.21	2.46516
2045.46	-0.332191
2045.7	-4.06201
2045.95	-1.26508
2046.19	3.40029
2046.44	-1.26163
2046.69	-0.326091
2046.93	0.611213
2047.18	-0.319448
2047.42	-0.316714
2047.67	-2.18388
2047.91	-0.315955
2048.16	-2.18646
2048.41	-0.322153
2048.65	2.47364
2048.9	-0.329744
2049.14	0.602928
2049.39	2.47147
2049.63	-0.330654
2049.88	1.5377
2050.12	1.53898
2050.37	2.47525
2050.62	0.609008
2050.86	1.55006
2051.11	-0.318215
2051.35	0.618
2051.6	-0.318072
2051.84	-1.25507
2052.09	-2.19248
2052.33	-0.323696
2052.58	0.606443
2052.82	0.603221
2053.07	-0.333688
2053.31	0.598573
2053.56	-0.339258
2053.8	2.46257
2054.05	-1.27774
2054.3	1.52586
2054.54	1.52585
2054.79	-0.343301
2055.03	-0.342202
2055.28	1.52901
2055.52	-0.33895
2055.77	0.598866
2056.01	-1.27077
2056.26	2.47459
2056.5	-0.333825
2056.75	1.53808
2056.99	0.601462
2057.24	0.598272
2057.48	-1.27705
2057.73	1.52728
2057.97	0.592023
2058.22	-0.342891
2058.46	0.593779
2058.71	-1.27913
2058.95	-0.34371
2059.2	3.40086
2059.45	0.591842
2059.69	-0.344167
2059.94	-0.343271
2060.18	1.53179
2060.43	0.596625
2060.67	3.40893
2060.92	-1.27605
2061.16	2.47319
2061.4	1.53615
2061.65	0.599398
2061.9	1.53828
2062.14	2.47856
2062.39	1.5448
2062.63	-0.328391
2062.88	0.612842
2063.12	-0.323842
2063.37	-0.322743
2063.61	3.4332
2063.86	1.55548
2064.1	1.55659
2064.34	-0.321726
2064.59	3.43694
2064.83	0.620105
2065.08	1.56113
2065.32	1.56193
2065.57	0.622123
2065.81	-3.1371
2066.06	1.56301
2066.3	-0.320217
2066.55	0.614573
2066.79	-2.21104
2067.04	1.54165
2067.28	-0.336555
2067.53	0.607624
2067.77	-2.20557
2068.02	-1.25936
2068.26	3.44279
2068.51	0.615527
2068.75	0.629196
2069	2.52083
2069.24	2.5191
2069.48	0.633487
2069.73	-1.25123
2069.97	2.51288
2070.22	0.628633
2070.46	0.626999
2070.71	0.626546
2070.95	-0.315331
2071.2	1.56779
2071.44	2.51036
2071.69	2.51266
2071.93	0.632051
2072.18	0.636456
2072.42	2.52823
2072.66	-1.23697
2072.91	-0.288835
2073.15	-0.286635
2073.4	4.43313
2073.64	-1.23116
2073.89	0.654632
2074.13	0.650675
2074.38	1.58992
2074.62	0.638351
2074.87	1.57808
2075.11	-0.307296
2075.35	2.52506
2075.6	-2.19109
2075.84	1.58313
2076.09	-0.302632
2076.33	0.643373
2076.58	1.59485
2076.82	-1.23604
2077.06	-0.289741
2077.31	-1.23295
2077.55	0.658205
2077.8	2.54794
2078.04	0.655434
2078.29	0.653466
2078.53	-0.292674
2078.77	2.54098
2079.02	-1.23985
2079.26	2.53987
2079.51	3.48543
2079.75	1.59585
2080	2.54054
2080.24	4.42957
2080.48	-1.24179
2080.73	-1.24316
2080.97	-1.24394
2081.22	0.645507
2081.46	1.5895
2081.7	-0.300926
2081.95	0.643834
2082.19	-2.19171
2082.44	-0.302504
2082.68	1.58698
2082.93	2.53208
2083.17	-0.300164
2083.41	-3.13296
2083.66	0.652905
2083.9	0.653831
2084.14	-4.07545
2084.39	0.656894
2084.63	2.55082
2084.88	0.657523
2085.12	1.60352
2085.36	0.656852
2085.61	-3.12895
2085.85	-1.23594
2086.1	1.6038
2086.34	3.49896
2086.58	-1.23283
2086.83	-0.282843
2087.07	3.50734
2087.32	1.61308
2087.56	-0.281095
2087.8	0.667106
2088.05	-2.17449
2088.29	0.66938
2088.54	0.670485
2088.78	-0.274327
2089.02	-0.270571
2089.27	-0.26642
2089.51	3.53349
2089.75	-0.257651
2090	0.695513
2090.24	0.698947
2090.48	1.65248
2090.73	0.705806
2090.97	-0.241894
2091.22	2.61239
2091.46	1.66244
2091.7	1.66196
2091.95	-0.24074
2092.19	-1.19298
2092.43	-0.245235
2092.68	-2.14916
2092.92	-0.251232
2093.17	2.59669
2093.41	-0.25526
2093.65	1.64356
2093.9	-0.257453
2094.14	3.53943
2094.38	1.636
2094.63	0.682563
2094.87	-1.21812
2095.11	0.679205
2095.36	-0.271161
2095.6	-1.22318
2095.84	1.62376
2096.09	-0.275296
2096.33	1.62142
2096.57	-0.277877
2096.82	1.61932
2097.06	0.66996
2097.3	3.51706
2097.55	-2.17694
2097.79	0.671155
2098.03	-0.274734
2098.28	-0.272159
2098.52	2.5786
2098.76	5.42887
2099.01	0.679424
2099.25	4.4777
2099.5	1.62806
2099.74	1.62681
2099.98	0.674178
2100.22	2.56924
2100.47	-0.281364
2100.71	0.667209
2100.95	-1.23271
2101.2	1.6148
2101.44	1.61565
2101.68	3.5168
2101.93	1.62003
2102.17	1.62197
2102.41	1.62444
2102.66	-0.272472
2102.9	2.58127
2103.14	-0.268514
2103.39	-2.16844
2103.63	-1.21744
2103.87	0.684026
2104.12	-0.265661
2104.36	0.685542
2104.6	0.683566
2104.85	-0.27027
2105.09	3.52678
2105.33	2.57117
2105.57	0.666498
2105.82	2.56167
2106.06	0.660748
2106.3	-0.288637
2106.55	3.51334
2106.79	0.667665
2107.03	1.61752
2107.27	0.667264
2107.52	0.666928
2107.76	1.61654
2108	0.66628
2108.25	-1.23412
2108.49	-0.285345
2108.73	-1.23743
2108.98	0.660094
2109.22	-0.290811
2109.46	0.658327
2109.7	2.55886
2109.95	0.660876
2110.19	3.51221
2110.43	1.61594
2110.68	1.61937
2110.92	1.62088
2111.16	1.61993
2111.4	0.667721
2111.65	1.61735
2111.89	0.667382
2112.13	1.618
2112.38	-0.283767
2112.62	4.46616
2112.86	2.56391
2113.1	1.61205
2113.35	0.658691
2113.59	2.55486
2113.83	-0.296261
2114.07	0.652331
2114.32	0.651426
2114.56	2.55095
2114.8	-4.09758
2115.04	0.647473
2115.29	-1.25387
2115.53	1.5894
2115.77	-0.313214
2116.01	2.52856
2116.26	2.52458
2116.5	2.52063
2116.74	-1.27486
2116.99	0.617801
2117.23	3.458
2117.47	1.56159
2117.71	0.614212
2117.96	1.56415
2118.2	-0.32994
2118.44	0.621011
2118.68	-2.22003
2118.92	1.57655
2119.17	0.631239
2119.41	1.58294
2119.65	3.48343
2119.9	-3.15816
2120.14	-1.2584
2120.38	0.641335
2120.62	1.5913
2120.86	3.48863
2121.11	1.58802
2121.35	1.58515
2121.59	2.52967
2121.83	-1.27121
2122.08	3.46201
2122.32	0.610671
2122.56	-0.342206
2122.8	-1.29384
2123.04	0.595273
2123.29	0.590913
2123.53	3.4261
2123.77	1.53
2124.01	-2.25699
2124.26	-0.368749
2124.5	1.52081
2124.74	-0.371145
2124.98	2.46423
2125.22	-0.373771
2125.47	0.570313
2125.71	2.46077
2125.95	1.51555
2126.19	2.46012
2126.44	-0.37689
2126.68	1.51216
2126.92	-1.32386
2127.16	1.51043
2127.4	1.50936
2127.65	-0.381742
2127.89	1.50636
2128.13	0.559593
2128.37	1.50177
2128.61	-2.27855
2128.86	-1.33622
2129.1	-0.39353
2129.34	1.49299
2129.58	-2.28583
2129.82	2.43017
2130.06	1.48469
2130.31	3.37147
2130.55	-0.402394
2130.79	1.48553
2131.03	1.48572
2131.27	1.48628
2131.52	2.43072
2131.76	2.43024
2132	-1.34521
2132.24	-0.401943
2132.48	1.48465
2132.73	-0.404098
2132.97	0.536849
2133.21	3.36165
2133.45	3.35587
2133.69	1.46746
2133.94	1.46786
2134.18	1.46876
2134.42	0.526238
2134.66	1.47067
2134.9	2.41721
2135.14	-0.412507
2135.39	-1.35946
2135.63	1.4652
2135.87	-1.36065
2136.11	-0.413053
2136.35	-0.409437
2136.59	-2.30122
2136.84	1.46302
2137.08	0.517796
2137.32	1.45755
2137.56	2.39746
2137.8	-5.13986
2138.04	-1.37326
2138.28	0.509243
2138.53	-3.25779
2138.77	-0.434994
2139.01	-1.37976
2139.25	-1.3811
2139.49	-2.32243
2139.74	2.38724
2139.98	2.39022
2140.22	2.40345
2140.46	0.514829
2140.7	0.478362
2140.94	0.473756
2141.18	0.477391
2141.43	-1.3977
2141.67	1.42859
2141.91	-1.3898
2142.15	0.483755
2142.39	0.483961
2142.63	-0.45527
2142.87	0.48434
2143.12	1.4233
2143.36	-0.458195
2143.6	0.480688
2143.84	-0.460408
2144.08	-2.34143
2144.32	1.41573
2144.56	1.41357
2144.8	-1.40679
2145.05	0.470582
2145.29	1.40813
2145.53	-0.471992
2145.77	-1.41282
2146.01	-1.41481
2146.25	0.459945
2146.49	1.39489
2146.73	2.32626
2146.98	1.38434
2147.22	1.37992
2147.46	1.37657
2147.7	1.37487
2147.94	-1.43729
2148.18	0.438597
2148.42	-0.496085
2148.66	-0.494489
2148.9	0.445847
2149.15	-1.42871
2149.39	0.449733
2149.63	1.38538
2149.87	-0.492179
2150.11	3.25548
2150.35	-0.49713
2150.59	-0.498218
2150.83	-2.37376
2151.07	-0.501543
2151.31	-1.44169
2151.56	0.426941
2151.8	2.29265
2152.04	-1.457
2152.28	-0.527905
2152.52	1.33766
2152.76	-1.47139
2153	-0.540283
2153.24	2.25994
2153.48	1.324
2153.72	-0.544888
2153.97	-0.54507
2154.21	2.25755
2154.45	-0.543664
2154.69	-0.541472
2154.93	0.395939
2155.17	-0.535828
2155.41	-1.46964
2155.65	-0.534745
2155.89	2.26893
2156.13	1.33308
2156.37	-2.40669
2156.61	-2.40851
2156.86	-0.542496
2157.1	1.32202
2157.34	0.384362
2157.58	-2.41928
2157.82	2.24485
2158.06	-1.4897
2158.3	1.30925
2158.54	1.30802
2158.78	0.373661
2159.02	-0.559622
2159.26	0.373495
2159.5	-1.49201
2159.74	1.3068
2159.98	-2.42559
2160.22	-0.561613
2160.47	-1.49557
2160.71	0.368329
2160.95	-1.49789
2161.19	0.365374
2161.43	1.29466
2161.67	-2.43696
2161.91	1.28798
2162.15	3.152
2162.39	1.29073
2162.63	-1.50426
2162.87	-0.571894
2163.11	3.15606
2163.35	-0.572643
2163.59	-1.50563
2163.83	-2.43884
2164.07	0.353046
2164.31	1.28218
2164.55	-1.51416
2164.79	-0.587152
2165.03	0.336617
2165.27	2.18962
2165.51	0.327475
2165.76	0.327345
2166	1.2582
2166.24	1.26069
2166.48	2.19436
2166.72	0.338933
2166.96	0.344633
2167.2	-0.58002
2167.44	1.28627
2167.68	-0.574341
2167.92	1.28768
2168.16	-0.577145
2168.4	-0.578219
2168.64	-0.583367
2168.88	1.26704
2169.12	2.19054
2169.36	2.18743
2169.6	0.326269
2169.84	-0.604598
2170.08	-0.604722
2170.32	3.11178
2170.56	-0.604362
2170.8	1.2553
2171.04	0.328531
2171.28	0.330473
2171.52	0.331666
2171.76	1.26175
2172	0.332673
2172.24	3.12106
2172.48	-0.597015
2172.72	-1.52681
2172.96	-1.52682
2173.2	0.331338
2173.44	1.25974
2173.68	1.25751
2173.92	0.327935
2174.16	-0.600506
2174.4	1.25825
2174.64	0.330119
2174.88	2.18808
2175.12	-0.597602
2175.36	-0.59832
2175.6	-0.601773
2175.84	2.181
2176.08	2.18094
2176.32	-1.53166
2176.56	3.11154
2176.8	0.326751
2177.04	1.25572
2177.28	2.18464
2177.52	-2.4577
2177.76	0.327304
2178	0.326786
2178.24	-0.601423
2178.48	1.25484
2178.72	1.25345
2178.96	-1.53219
2179.2	-1.53226
2179.44	0.322297
2179.68	0.321321
2179.92	-1.53488
2180.16	-1.53698
2180.4	1.2427
2180.64	0.311332
2180.88	0.308526
2181.12	0.306687
2181.35	0.304916
2181.59	2.15781
2181.83	1.23231
2182.07	-1.54546
2182.31	1.23643
2182.55	2.16508
2182.79	2.16779
2183.03	-0.609999
2183.27	0.320627
2183.51	0.32385
2183.75	-0.598856
2183.99	2.19014
2184.23	2.19591
2184.47	-1.5125
2184.71	2.20623
2184.95	0.350465
2185.19	1.27829
2185.43	2.20473
2185.67	2.20204
2185.91	2.19901
2186.15	-2.44427
2186.38	4.04697
2186.62	1.25919
2186.86	1.2551
2187.1	2.18063
2187.34	2.18043
2187.58	2.1816
2187.82	0.329451
2188.06	-0.59547
2188.3	2.18666
2188.54	2.18838
2188.78	0.335963
2189.02	-1.51665
2189.26	0.340238
2189.5	-0.585283
2189.74	-0.58323
2189.97	1.27543
2190.21	2.20715
2190.45	1.28259
2190.69	-0.569657
2190.93	1.29449
2191.17	-1.48414
2191.41	4.09821
2191.65	3.17293
2191.89	0.384175
2192.13	-0.546482
2192.37	1.31178
2192.61	-1.4778
2192.85	-0.550758
2193.08	3.16139
2193.32	1.29888
2193.56	-0.56209
2193.8	2.21909
2194.04	1.28877
2194.28	0.359201
2194.52	2.21278
2194.76	-2.42404
2195	3.14254
2195.24	2.21757
2195.47	-0.561104
2195.71	-0.556498
2195.95	1.30548
2196.19	2.24074
2196.43	3.17582
2196.67	1.32407
2196.91	-1.45839
2197.15	0.409027
2197.39	-1.4428
2197.63	1.35763
2197.86	1.36533
2198.1	2.303
2198.34	1.37633
2198.58	0.439771
2198.82	1.35592
2199.06	2.25195
2199.3	0.372202
2199.54	0.381032
2199.78	0.408911
2200.01	-0.506975
2200.25	3.2098
2200.49	-0.5122
2200.73	1.35822
2200.97	-2.31693
2201.21	0.465005
2201.45	-0.468127
2201.69	4.19927
2201.92	3.25561
2202.16	4.17127
2202.4	1.36573
2202.64	-0.502533
2202.88	2.28535
2203.12	-0.502597
2203.36	-0.498197
2203.59	1.36406
2203.83	1.35854
2204.07	-1.42851
2204.31	1.36413
2204.55	-0.491757
2204.79	0.442588
2205.03	-2.34418
2205.27	2.31278
2205.5	2.3175
2205.74	3.25284
2205.98	2.32558
2206.22	0.466135
2206.46	0.46833
2206.7	0.469674
2206.93	1.40169
2207.17	2.33471
2207.41	0.475253
2207.65	-2.31609
2207.89	1.41415
2208.13	1.41805
2208.37	0.489748
2208.6	1.42579
2208.84	-0.43428
2209.08	2.3681
2209.32	0.506429
2209.56	1.44193
2209.8	1.44212
2210.03	1.44178
2210.27	1.44144
2210.51	2.37282
2210.75	2.37081
2210.99	-0.424161
2211.23	-1.35257
2211.47	1.45294
2211.7	1.46108
2211.94	1.46423
2212.18	2.40055
2212.42	4.27024
2212.66	1.47166
2212.89	2.40713
2213.13	-2.25971
2213.37	0.542488
2213.61	-1.3238
2213.85	-3.19021
2214.09	0.544964
2214.32	0.546331
2214.56	2.41553
2214.8	1.48416
2215.04	1.48562
2215.28	0.55319
2215.51	-1.31211
2215.75	0.558269
2215.99	1.49583
2216.23	-0.367972
2216.47	0.570537
2216.71	-0.360527
2216.94	2.44627
2217.18	-1.28881
2217.42	0.581677
2217.66	0.582488
2217.9	2.45257
2218.13	-1.28537
2218.37	0.581518
2218.61	3.38084
2218.85	-0.356797
2219.08	1.5092
2219.32	1.50865
2219.56	0.576238
2219.8	-1.28817
2220.04	-0.35095
2220.27	-0.347149
2220.51	2.45887
2220.75	0.596208
2220.99	0.602391
2221.23	-2.19548
2221.46	2.48514
2221.7	0.620604
2221.94	1.56128
2222.18	-2.17634
2222.42	0.636369
2222.65	0.642481
2222.89	1.58422
2223.13	-0.283894
2223.37	0.657895
2223.6	0.662136
2223.84	3.47883
2224.08	-0.265412
2224.32	-0.261254
2224.55	0.680026
2224.79	-1.19263
2225.03	-1.1911
2225.27	-0.252641
2225.5	3.49861
2225.74	-1.18865
2225.98	0.687487
2226.22	0.688501
2226.46	2.56525
2226.69	0.694653
2226.93	2.57635
2227.17	4.45878
2227.41	-0.227289
2227.64	-0.222589
2227.88	-0.217684
2228.12	0.726272
2228.36	0.731844
2228.59	-1.14111
2228.83	1.68216
2229.07	1.68744
2229.31	0.752735
2229.54	2.63805
2229.78	1.70301
2230.02	-1.1133
2230.26	2.65387
2230.49	0.777419
2230.73	1.72343
2230.97	-1.09567
2231.21	-0.150759
2231.44	-2.97314
2231.68	-1.08969
2231.92	2.67504
2232.16	-0.148689
2232.39	-1.09229
2232.63	1.72724
2232.87	-1.09155
2233.11	-0.148444
2233.34	1.73542
2233.58	1.7385
2233.82	1.74135
2234.05	0.803786
2234.29	1.75039
2234.53	-0.125977
2234.77	0.823202
2235	-1.05175
2235.24	-1.04425
2235.48	0.846766
2235.72	-0.0895758
2235.95	0.86016
2236.19	-1.01868
2236.43	-0.0717964
2236.66	0.872646
2236.9	0.872795
2237.14	-0.072113
2237.37	0.869222
2237.61	-0.0729647
2237.85	3.70719
2238.09	1.83033
2238.32	-0.0532398
2238.56	2.78078
2238.8	1.84088
2239.04	-0.0430593
2239.27	1.84816
2239.51	-0.0354147
2239.75	1.8569
2239.98	0.915736
2240.22	0.917535
2240.46	0.918008
2240.69	0.918051
2240.93	0.919267
2241.17	0.921257
2241.4	0.924215
2241.64	3.76064
2241.88	1.88024
2242.11	0.944897
2242.35	-0.936544
2242.59	1.90472
2242.83	0.96523
2243.06	4.75321
2243.3	1.92263
2243.54	0.0362844
2243.77	-0.905638
2244.01	0.99132
2244.25	-0.89626
2244.48	1.00063
2244.72	0.0575333
2244.96	-0.88644
2245.19	1.95476
2245.43	-1.82906
2245.67	0.0654182
2245.91	1.95982
2246.14	1.9616
2246.38	0.0712357
2246.61	-0.86997
2246.85	1.0275
2247.09	1.97659
2247.32	-0.861763
2247.56	1.9769
2247.8	1.97624
2248.03	0.0835218
2248.27	0.0835609
2248.51	-0.861251
2248.74	-1.80468
2248.98	1.03498
2249.22	-1.79722
2249.45	-1.7924
2249.69	-0.841043
2249.93	1.05861
2250.16	-0.823613
2250.4	-0.815267
2250.64	0.139136
2250.87	2.04089
2251.11	-0.796527
2251.35	2.05312
2251.58	2.0584
2251.82	1.11357
2252.06	0.166957
2252.29	-0.777583
2252.53	0.173688
2252.77	0.177215
2253	-2.66389
2253.24	0.186333
2253.48	-0.756423
2253.71	1.14662
2253.95	-0.745667
2254.18	2.10709
2254.42	-0.734939
2254.66	-0.729684
2254.89	1.17406
2255.13	-1.67072
2255.37	-0.717374
2255.6	0.236362
2255.84	2.14058
2256.08	3.09608
2256.31	0.251567
2256.55	1.20645
2256.78	-0.689654
2257.02	-0.684847
2257.26	-1.63068
2257.49	1.22567
2257.73	0.279698
2257.96	1.23605
2258.2	-0.658065
2258.44	0.299562
2258.67	-0.647812
2258.91	-1.5952
2259.15	1.26396
2259.38	0.316951
2259.62	-1.58133
2259.85	2.23287
2260.09	0.335423
2260.33	0.342737
2260.56	0.350674
2260.8	0.359233
2261.03	3.22914
2261.27	0.377546
2261.51	-1.52237
2261.74	1.34846
2261.98	-1.5086
2262.21	-0.547485
2262.45	-0.541528
2262.69	0.417658
2262.92	0.421756
2263.16	1.3793
2263.39	1.37938
2263.63	0.424376
2263.87	3.28784
2264.1	1.37876
2264.34	-1.48289
2264.57	0.426799
2264.81	0.428006
2265.05	1.38197
2265.28	-1.47779
2265.52	3.29238
2265.75	0.435946
2265.99	0.441613
2266.22	-2.41324
2266.46	1.41009
2266.7	0.463806
2266.93	0.471951
2267.17	-2.38436
2267.4	-3.33219
2267.64	-0.459762
2267.87	-0.45436
2268.11	0.5083
2268.35	0.514702
2268.58	-0.435843
2268.82	-0.430188
2269.05	-0.42375
2269.29	-0.418546
2269.53	0.542198
2269.76	-0.410072
2270	0.551251
2270.23	-0.400941
2270.47	-3.26709
2270.7	0.565138
2270.94	0.56979
2271.18	-0.382702
2271.41	-0.378242
2271.65	-1.33083
2271.88	-1.32628
2272.12	-0.364148
2272.35	-0.359508
2272.59	1.56025
2272.82	-1.30872
2273.06	-0.345382
2273.3	1.57754
2273.53	0.627338
2273.77	-2.24021
2274	-1.27538
2274.24	0.648885
2274.47	0.657753
2274.71	-1.25149
2274.94	1.63697
2275.18	0.687672
2275.41	-2.18711
2275.65	1.65956
2275.88	1.66378
2276.12	1.66723
2276.36	-1.21089
2276.59	1.67154
2276.83	0.708553
2277.06	2.62723
2277.3	1.66747
2277.53	0.708769
2277.77	-0.248935
2278	0.711807
2278.24	1.67306
2278.47	0.716631
2278.71	0.719228
2278.94	-0.233529
2279.18	-0.228399
2279.41	-0.222282
2279.65	-1.17429
2279.89	-0.207939
2280.12	-1.16
2280.36	-1.1521
2280.59	0.777336
2280.83	1.74907
2281.06	-0.161862
2281.3	-2.07391
2281.53	-0.143035
2281.77	-1.09899
2282	-0.129745
2282.24	-0.12233
2282.47	0.845361
2282.71	0.850092
2282.94	-1.07321
2283.18	-2.03586
2283.41	-0.108437
2283.65	1.82061
2283.88	0.865412
2284.12	1.83922
2284.35	-1.03887
2284.59	-0.0695276
2284.82	-0.0637608
2285.06	-1.01898
2285.29	0.911149
2285.53	0.913174
2285.76	2.84142
2286	1.87979
2286.23	-0.046031
2286.47	1.87756
2286.7	-1.97137
2286.94	-1.97216
2287.17	0.914703
2287.41	-2.92784
2287.64	2.84457
2287.88	-0.0348148
2288.11	-0.0284252
2288.35	-0.0203781
2288.58	0.950837
2288.82	-0.966042
2289.05	0.00311375
2289.28	-2.87815
2289.52	0.0170212
2289.75	1.95098
2289.99	0.0322638
2290.22	0.0391273
2290.46	0.0456686
2290.69	0.0516338
2290.93	-0.906976
2291.16	0.0602207
2291.4	-1.86438
2291.63	-0.89833
2291.87	1.99363
2292.1	0.0693083
2292.34	-0.891312
2292.57	-0.888779
2292.81	-0.886208
2293.04	2.00481
2293.28	2.00554
2293.51	-1.84508
2293.74	-0.879327
2293.98	0.0883074
2294.21	0.0947199
2294.45	0.101791
2294.68	0.109374
2294.92	0.117743
2295.15	-1.79964
2295.39	1.09809
2295.62	1.10472
2295.86	-1.77953
2296.09	1.12044
2296.32	-0.800584
2296.56	1.13525
2296.79	0.176598
2297.03	0.180799
2297.26	1.14996
2297.5	0.189349
2297.73	0.195399
2297.97	0.202299
2298.2	0.208534
2298.43	1.17973
2298.67	1.1852
2298.9	0.224683
2299.14	1.19391
2299.37	3.12734
2299.61	1.20036
2299.84	0.239995
2300.07	2.17433
2300.31	-1.68247
2300.54	1.21691
2300.78	1.22161
2301.01	1.22748
2301.25	-2.62701
2301.48	3.17231
2301.71	0.281691
2301.95	0.288095
2302.18	-1.63682
2302.42	-0.664959
2302.65	0.306242
2302.89	0.311754
2303.12	0.317904
2303.35	0.324009
2303.59	-0.637579
2303.82	0.333594
2304.05	-0.62884
2304.29	-0.624949
2304.52	0.34464
2304.76	0.347161
2304.99	1.31667
2305.23	0.35339
2305.46	0.35647
2305.69	0.360725
2305.93	-0.60054
2306.16	-0.594301
2306.4	0.37868
2306.63	1.35319
2306.86	-2.50595
2307.1	0.402505
2307.33	0.408091
2307.57	1.38012
2307.8	1.3839
2308.03	0.419214
2308.27	1.38719
2308.5	0.416255
2308.74	0.41125
2308.97	0.410402
2309.2	1.37626
2309.44	-0.552176
2309.67	0.414621
2309.91	-0.548
2310.14	1.38566
2310.37	-1.5035
2310.61	-0.530431
2310.84	-1.48695
2311.07	1.41863
2311.31	1.42713
2311.54	0.4692
2311.78	0.478516
2312.01	0.487292
2312.24	-0.473755
2312.48	-1.4405
2312.71	0.494326
2312.94	1.46218
2313.18	-0.471019
2313.41	0.491682
2313.65	-1.43991
2313.88	1.45898
2314.11	1.4625
2314.35	-0.464125
2314.58	-0.459566
2314.81	0.5137
2315.05	-0.446125
2315.28	0.51897
2315.51	2.45167
2315.75	0.522216
2315.98	-3.33784
2316.22	0.525004
2316.45	-0.438504
2316.68	1.49366
2316.92	0.53127
2317.15	2.46479
2317.38	-0.42604
2317.62	2.47229
2317.85	0.547294
2318.08	-0.41227
2318.32	0.558802
2318.55	-0.400634
2318.78	-0.394314
2319.02	2.51105
2319.25	-0.379613
2319.48	-0.372789
2319.72	2.53211
2319.95	0.601336
2320.19	2.5388
2320.42	0.609654
2320.65	2.54754
2320.89	4.48584
2321.12	-0.345345
2321.35	3.52509
2321.58	-0.340206
2321.82	3.52644
2322.05	4.49066
2322.28	2.55522
2322.52	1.58869
2322.75	1.58875
2322.98	0.623308
2323.22	2.55385
2323.45	2.55332
2323.68	3.51758
2323.92	2.55213
2324.15	3.51588
2324.38	3.51487
2324.62	2.55107
2324.85	4.47893
2325.08	7.37101
2325.32	7.37474
2325.55	8.34143
2325.78	9.30852
2326.02	9.30651
2326.25	13.1587
2326.48	17.9704
2326.71	22.7859
2326.95	24.713
2327.18	39.1696
2327.41	44.9475
2327.65	76.7283
2327.88	77.6855
2328.11	68.0548
2328.35	48.8014
2328.58	25.6956
2328.81	21.8508
2329.05	14.1526
2329.28	13.1836
2329.51	10.2909
2329.75	11.2525
2329.98	10.2882
2330.21	4.51025
2330.44	5.47252
2330.68	3.54713
2330.91	3.54732
2331.14	2.58435
2331.38	1.62117
2331.61	1.61888
2331.84	1.61823
2332.07	0.656538
2332.31	1.61924
2332.54	-0.303385
2332.77	0.66021
2333	-0.299169
2333.24	1.62513
2333.47	0.663205
2333.7	0.663535
2333.94	1.6256
2334.17	-0.296791
2334.4	0.665055
2334.63	2.58828
2334.87	0.665277
2335.1	-1.25728
2335.33	-1.25696
2335.56	-0.29557
2335.8	0.665951
2336.03	-1.25517
2336.26	1.62942
2336.5	1.62998
2336.73	-0.292312
2336.96	1.62933
2337.19	2.58891
2337.43	1.62575
2337.66	-0.297821
2337.89	-1.26094
2338.12	-0.303936
2338.36	0.651867
2338.59	1.60612
2338.82	1.60187
2339.05	-1.27808
2339.29	1.59653
2339.52	0.635332
2339.75	1.59223
2339.98	-1.28477
2340.22	-1.28535
2340.45	-1.28563
2340.68	0.630469
2340.91	1.5879
2341.15	1.58753
2341.38	-2.24658
2341.61	-0.329608
2341.84	3.50375
2342.08	0.62606
2342.31	-1.29331
2342.54	1.57868
2342.77	-0.342472
2343.01	-0.346012
2343.24	1.56577
2343.47	0.605767
2343.7	-0.353983
2343.93	3.4742
2344.17	1.55624
2344.4	-1.31874
2344.63	1.55154
2344.86	0.592756
2345.1	0.591836
2345.33	0.591649
2345.56	-2.28224
2345.79	3.46176
2346.03	0.585258
2346.26	-1.33415
2346.49	-0.384586
2346.72	2.47734
2346.95	-0.401505
2347.19	-0.411814
2347.42	-1.37881
2347.65	-0.44362
2347.88	1.42906
2348.12	1.45069
2348.35	-0.413764
2348.58	2.46843
2348.81	-3.30046
2349.04	1.45708
2349.28	2.40985
2349.51	-2.36454
2349.74	0.487099
2349.97	0.47077
2350.2	3.31458
2350.44	-2.40078
2350.67	3.31007
2350.9	-2.41178
2351.13	-0.510661
2351.36	1.38955
2351.6	-0.516206
2351.83	1.3883
2352.06	1.38342
2352.29	-1.48049
2352.52	-0.533456
2352.76	-0.539415
2352.99	1.35937
2353.22	0.399441
2353.45	0.389963
2353.68	0.378189
2353.92	0.367752
2354.15	-1.54251
2354.38	-0.599123
2354.61	-1.5575
2354.84	1.28691
2355.07	-0.621924
2355.31	2.22207
2355.54	-0.636168
2355.77	-1.59508
2356	0.297527
2356.23	-0.659719
2356.46	2.18283
2356.7	-0.675009
2356.93	-0.683847
2357.16	-3.54171
2357.39	0.245933
2357.62	0.235684
2357.86	-0.723417
2358.09	-1.68222
2358.32	0.204118
2358.55	0.193231
2358.78	0.182129
2359.01	0.170827
2359.25	-0.788264
2359.48	0.147401
2359.71	-0.810637
2359.94	-2.71484
2360.17	1.06093
2360.4	-0.84257
2360.63	1.98611
2360.87	1.97562
2361.1	0.0728292
2361.33	0.0618143
2361.56	0.0506277
2361.79	0.984956
2362.02	0.974051
2362.26	0.0163546
2362.49	0.00388241
2362.72	-0.0124483
2362.95	3.74588
2363.18	0.896389
2363.41	-1.00285
2363.64	0.873246
2363.88	-1.02337
2364.11	-0.0843811
2364.34	-0.0868368
2364.57	-1.03667
2364.8	-0.10394
