#Acq. time (s)=	30
#Accumulations=	2
#Range (cm-¹)=	1200...2365
#Windows=	3
#Auto scanning=	Off
#Autofocus=	Off
#Macrospot=	Off
#AutoExposure=	Off
#Spike filter=	Multiple accum.
#Delay time (s)=	2
#Binning=	1
#Readout mode=	Signal
#DeNoise=	Off
#ICS correction=	On
#Dark correction=	Off
#Inst. Process=	Off
#Detector Gain=	Best Dynamic
#Detector ADC=	50 kHz HS
#Detector temperature (°C)=	-60.09
#Instrument=	LabRAM HR Evol
#Detector=	SIN-EM FIVIS
#Objective=	x50_VIS_LWD
#Grating=	1800 (450-850nm)
#ND Filter=	100%
#Laser=	532nm_Edge
#Hole=	49.98
#Temperature=	0
#Range=	Visible
#StageXY=	75x50mm Scan+
#StageZ=	Z motor
#X (µm)=	0
#Y (µm)=	0
#Z (µm)=	1.4
#Full time(mm:ss)=	3:22
#Project=	21_11_26
#Sample=	BU19(2)w
#Site=	
#Title=	BU19(2)w-A-FF2b-FI01-V_1800 (450-850nm)_532nm_Edge_100%_x50_VIS_LWD_H50um_30sX2
#Remark=	
#Date=	26.11.2021 14:41
#Acquired=	26.11.2021 14:41:45
#Base:Fit=	16.12.2021 16:00:56
#Base:Fit=	16.12.2021 16:10:06
#Base:Fit=	16.12.2021 16:10:07
#Base:Sub=	16.12.2021 16:10:08
1202.72	2.29826
1203	2.43364
1203.28	-1.79221
1203.56	1.48033
1203.84	-1.71481
1204.11	-1.66959
1204.39	2.6781
1204.67	-4.7815
1204.95	7.11138
1205.23	-0.361469
1205.5	3.98092
1205.78	4.02092
1206.06	1.91031
1206.34	-4.49203
1206.61	0.90921
1206.89	-0.127834
1207.17	6.33622
1207.45	-3.2691
1207.73	5.34036
1208	1.09832
1208.28	3.28302
1208.56	-4.16763
1208.84	0.149628
1209.11	3.39511
1209.39	-1.91545
1209.67	0.264622
1209.95	3.51609
1210.23	-3.9264
1210.5	2.52291
1210.78	3.61609
1211.06	-2.7673
1211.34	1.53222
1211.61	-2.71182
1211.89	-2.68337
1212.17	5.87197
1212.45	2.69412
1212.72	2.71985
1213	5.94035
1213.28	0.636734
1213.56	2.79367
1213.83	-1.43629
1214.11	-1.41068
1214.39	0.753944
1214.67	0.78812
1214.94	-0.244083
1215.22	0.851448
1215.5	-3.37812
1215.78	-0.156513
1216.05	-0.130688
1216.33	-1.17691
1216.61	0.964382
1216.89	-4.3434
1217.16	3.10912
1217.44	0.996254
1217.72	3.13422
1218	-1.10187
1218.27	-3.21062
1218.55	-2.13413
1218.83	5.3096
1219.1	2.14285
1219.38	1.10033
1219.66	0.0563812
1219.94	-3.11091
1220.21	1.14499
1220.49	-2.01903
1220.77	1.18177
1221.04	2.2582
1221.32	2.27148
1221.6	-0.900028
1221.88	6.5301
1222.15	1.23343
1222.43	2.29196
1222.71	0.169487
1222.98	1.2219
1223.26	4.38957
1223.54	0.153011
1223.81	-5.13571
1224.09	-6.19223
1224.37	-3.02377
1224.65	-3.02142
1224.92	-0.906124
1225.2	-0.900921
1225.48	-3.00314
1225.76	-0.877514
1226.03	-0.864162
1226.31	3.37349
1226.59	-2.95605
1226.86	-4.00674
1227.14	2.32748
1227.42	-8.22719
1227.69	0.201897
1227.97	1.22294
1228.25	0.150307
1228.52	-0.920132
1228.8	-4.10756
1229.08	-3.07983
1229.35	-3.07864
1229.63	0.177429
1229.91	1.32265
1230.18	4.45021
1230.46	-4.01823
1230.74	0.184086
1231.01	0.190498
1231.29	0.168266
1231.57	-0.960678
1231.84	6.40335
1232.12	3.25058
1232.4	-3.05538
1232.67	3.24408
1232.95	2.192
1233.23	-4.11457
1233.5	-4.1191
1233.78	1.13088
1234.06	3.23252
1234.33	2.18395
1234.61	6.38881
1234.89	-2.01372
1235.16	1.14294
1235.44	1.1432
1235.71	0.0924873
1235.99	0.0938301
1236.27	-2.00959
1236.54	1.13984
1236.82	2.18155
1237.1	-4.13651
1237.37	0.0541878
1237.65	-1.01514
1237.93	-7.33558
1238.2	-1.05434
1238.48	1.02436
1238.76	4.15042
1239.03	0.98558
1239.31	-0.0767174
1239.58	0.959385
1239.86	1.99639
1240.14	-2.20651
1240.41	5.12217
1240.69	0.921597
1240.97	7.20424
1241.24	4.05391
1241.52	-5.38739
1241.79	0.890354
1242.07	1.92231
1242.35	5.05244
1242.62	1.90057
1242.9	-1.24989
1243.18	3.98709
1243.45	6.08015
1243.73	2.92513
1244	1.86753
1244.28	-1.28458
1244.56	-1.29512
1244.83	-0.259632
1245.11	7.06315
1245.39	5.99441
1245.66	3.87672
1245.94	6.9925
1246.21	3.82489
1246.49	1.71395
1246.76	6.93306
1247.04	-0.405071
1247.32	3.76956
1247.59	2.70768
1247.87	6.88164
1248.14	13.1437
1248.42	15.2041
1248.7	6.81409
1248.97	8.89142
1249.25	4.69869
1249.52	7.82787
1249.8	5.72046
1250.08	8.84415
1250.35	5.69455
1250.63	7.76357
1250.9	2.51139
1251.18	10.8503
1251.45	4.55756
1251.73	4.53673
1252.01	7.64973
1252.28	4.49463
1252.56	9.69436
1252.83	4.45167
1253.11	4.42887
1253.39	0.232548
1253.66	12.7372
1253.94	5.41964
1254.21	5.41367
1254.49	5.40901
1254.76	2.27331
1255.04	8.52868
1255.31	5.38258
1255.59	7.46117
1255.87	4.31472
1256.14	4.29886
1256.42	8.46438
1256.69	7.41027
1256.97	16.8041
1257.24	15.7487
1257.52	17.821
1257.79	18.8432
1258.07	15.6913
1258.35	21.9382
1258.62	10.4341
1258.9	19.8103
1259.17	18.7384
1259.45	18.7231
1259.72	15.5848
1260	16.6234
1260.27	22.8999
1260.55	18.693
1260.82	35.3669
1261.1	29.0645
1261.37	34.2498
1261.65	49.8701
1261.92	48.8259
1262.2	57.2457
1262.48	61.5431
1262.75	75.1945
1263.02	89.6129
1263.3	82.1392
1263.58	86.24
1263.85	79.0451
1264.13	75.9902
1264.4	61.4497
1264.68	40.5666
1264.95	34.2294
1265.23	35.2425
1265.5	25.8227
1265.78	25.8037
1266.05	25.7782
1266.33	17.4058
1266.6	13.2171
1266.88	19.4819
1267.15	15.2992
1267.43	18.436
1267.7	17.3934
1267.98	14.2594
1268.25	12.1721
1268.53	16.3709
1268.8	16.3794
1269.08	11.1406
1269.35	10.0891
1269.63	16.3699
1269.9	14.2585
1270.18	8.99633
1270.45	19.4404
1270.73	19.4152
1271	18.3416
1271.28	17.2726
1271.55	20.3961
1271.83	15.1443
1272.1	9.90474
1272.38	18.2781
1272.65	8.86105
1272.93	13.0583
1273.2	19.3468
1273.47	17.2557
1273.75	6.7785
1274.03	15.1677
1274.3	19.3666
1274.57	13.0723
1274.85	19.3576
1275.12	19.3443
1275.4	11.9913
1275.67	14.0847
1275.95	18.2801
1276.22	16.1815
1276.5	18.2844
1276.77	21.4346
1277.05	18.2866
1277.32	15.1345
1277.6	19.3403
1277.87	21.4468
1278.14	23.5542
1278.42	27.7623
1278.69	21.4577
1278.97	41.4479
1279.24	41.4522
1279.52	40.4047
1279.79	47.7547
1280.07	60.3609
1280.34	62.4433
1280.61	95.0333
1280.89	109.76
1281.16	147.634
1281.44	208.698
1281.71	276.127
1281.99	415.109
1282.26	565.613
1282.53	806.732
1282.81	1044.76
1283.08	1335.1
1283.36	1576.41
1283.63	1494.05
1283.91	1249.68
1284.18	878.715
1284.45	589.02
1284.73	368.022
1285	252.179
1285.28	172.085
1285.55	125.634
1285.83	93.9843
1286.1	77.135
1286.37	68.7301
1286.65	53.98
1286.92	45.5331
1287.2	39.2089
1287.47	42.3567
1287.75	33.9175
1288.02	37.0562
1288.29	27.5712
1288.57	30.7224
1288.84	23.3528
1289.12	26.51
1289.39	21.2525
1289.66	11.7841
1289.94	23.3727
1290.21	25.4886
1290.49	23.3894
1290.76	18.118
1291.03	18.1076
1291.31	12.8343
1291.58	15.9896
1291.86	21.2515
1292.13	17.0332
1292.4	13.8709
1292.68	11.7651
1292.95	14.9186
1293.22	14.9114
1293.5	12.8054
1293.77	8.60685
1294.05	3.3558
1294.32	16.026
1294.59	13.9217
1294.87	8.64732
1295.14	12.8599
1295.42	7.59497
1295.69	7.61462
1295.96	6.58497
1296.24	4.50597
1296.51	7.69505
1296.79	7.69946
1297.06	11.9282
1297.33	6.63721
1297.61	7.68503
1297.88	12.9572
1298.15	4.49425
1298.43	4.48191
1298.7	6.59986
1298.97	10.8205
1299.25	6.58866
1299.52	10.8055
1299.79	7.63108
1300.07	9.74257
1300.34	10.8085
1300.62	5.53598
1300.89	6.59457
1301.16	1.31461
1301.44	4.48203
1301.71	2.37447
1301.98	2.38398
1302.25	7.6741
1302.53	7.68068
1302.8	5.5719
1303.08	3.4612
1303.35	3.46092
1303.62	2.40261
1303.9	1.34163
1304.17	6.6228
1304.44	0.291565
1304.72	5.57486
1304.99	-1.81373
1305.26	8.7432
1305.54	3.45998
1305.81	-0.767899
1306.08	-1.82817
1306.35	3.44081
1306.63	4.491
1306.9	4.49151
1307.18	6.60541
1307.45	0.286472
1307.72	8.73073
1308	3.46167
1308.27	3.46673
1308.54	1.36523
1308.81	5.58718
1309.09	5.59564
1309.36	0.334484
1309.63	3.51194
1309.91	3.52487
1310.18	-0.68576
1310.45	0.375061
1310.73	3.54486
1311	-3.83504
1311.27	4.61616
1311.55	-1.70634
1311.82	5.69083
1312.09	-2.74189
1312.37	2.55108
1312.64	-0.602154
1312.91	0.464573
1313.18	-0.585049
1313.46	2.58376
1313.73	1.53487
1314	-1.62729
1314.28	0.489449
1314.55	4.72026
1314.82	-6.8794
1315.09	-4.75543
1315.37	3.7051
1315.64	4.77599
1315.91	-2.60099
1316.18	-3.6424
1316.46	3.75916
1316.73	3.76629
1317	1.66228
1317.28	-1.49686
1317.55	5.906
1317.82	5.92342
1318.09	0.657188
1318.37	-5.66752
1318.64	-2.48578
1318.91	-0.360836
1319.18	1.76353
1319.46	-1.39557
1319.73	-4.55487
1320	2.85
1320.28	-0.304382
1320.55	-4.51771
1320.82	-3.45127
1321.09	2.89291
1321.37	-4.49672
1321.64	0.783836
1321.91	2.89383
1322.18	-2.37735
1322.46	-2.37555
1322.73	2.90602
1323	-2.3601
1323.27	-0.243553
1323.55	-0.238075
1323.82	2.94353
1324.09	1.90483
1324.36	-1.24382
1324.64	0.87785
1324.91	6.16495
1325.18	-5.42075
1325.45	-0.131443
1325.73	-0.127502
1326	3.02981
1326.27	4.07219
1326.54	-4.36443
1326.81	0.900307
1327.09	4.0684
1327.36	0.941849
1327.63	-0.0677338
1327.9	-1.09076
1328.18	-1.06078
1328.45	5.29612
1328.72	0.0572281
1328.99	-4.13321
1329.27	5.38227
1329.54	-1.99171
1329.81	0.139137
1330.08	-3.01101
1330.35	2.27744
1330.63	1.23392
1330.9	-1.92064
1331.17	-0.85844
1331.44	0.200844
1331.71	0.202335
1331.99	-1.90458
1332.26	6.52213
1332.53	-2.94616
1332.8	1.26907
1333.07	1.27252
1333.35	-1.87875
1333.62	3.38248
1333.89	2.33657
1334.16	5.4943
1334.43	0.248821
1334.71	-1.8431
1334.98	-4.9829
1335.25	-7.07045
1335.52	-4.95929
1335.79	-5.99593
1336.07	1.35978
1336.34	-0.725147
1336.61	0.337067
1336.88	3.49661
1337.15	-3.82703
1337.43	3.5271
1337.7	-1.69733
1337.97	1.46268
1338.24	2.52048
1338.51	4.626
1338.78	3.59254
1339.06	3.60583
1339.33	-2.66087
1339.6	-4.7353
1339.87	-1.5716
1340.14	1.59323
1340.42	6.85152
1340.69	2.68568
1340.96	-4.62244
1341.23	0.634682
1341.5	-1.43994
1341.77	-3.51527
1342.04	2.78467
1342.32	-5.57522
1342.59	0.719345
1342.86	-1.36212
1343.13	0.742142
1343.4	5.98859
1343.67	6.00758
1343.95	3.93695
1344.22	2.91344
1344.49	-2.29222
1344.76	1.91413
1345.03	-0.158249
1345.3	-1.18729
1345.58	0.918026
1345.85	-1.16171
1346.12	3.03096
1346.39	3.03983
1346.66	0.954159
1346.93	-3.20957
1347.2	3.06276
1347.47	0.98735
1347.75	0.999966
1348.02	4.14394
1348.29	-2.09154
1348.56	2.09841
1348.83	-2.04895
1349.1	-3.07242
1349.37	7.36362
1349.65	4.2542
1349.92	0.105164
1350.19	4.28776
1350.46	0.140667
1350.73	0.15836
1351	2.25495
1351.27	4.35023
1351.54	2.28796
1351.81	4.38242
1352.09	6.48421
1352.36	5.46916
1352.63	-0.739677
1352.9	4.4953
1353.17	1.41306
1353.44	-0.635857
1353.71	1.50613
1353.98	3.65531
1354.25	0.516388
1354.53	3.60279
1354.8	7.74077
1355.07	-0.539894
1355.34	-3.62758
1355.61	1.5803
1355.88	4.71519
1356.15	2.67894
1356.42	1.67003
1356.69	5.84329
1356.96	8.98186
1357.24	3.81173
1357.51	6.9501
1357.78	4.89454
1358.05	4.91493
1358.32	7.01075
1358.59	1.8406
1358.86	3.9365
1359.13	3.95531
1359.4	3.97465
1359.67	0.884827
1359.94	4.01845
1360.22	1.96177
1360.49	4.05043
1360.76	4.06643
1361.03	9.26612
1361.3	4.11109
1361.57	3.10275
1361.84	5.20098
1362.11	9.36977
1362.38	6.28555
1362.65	14.5931
1362.92	7.36852
1363.19	9.46627
1363.46	10.5333
1363.73	13.6773
1364	5.42657
1364.28	12.712
1364.55	16.8838
1364.82	8.62266
1365.09	11.7538
1365.36	14.8804
1365.63	9.72131
1365.9	15.9494
1366.17	14.9315
1366.44	9.77602
1366.71	14.9656
1366.98	14.9797
1367.25	13.9571
1367.52	15.0121
1367.79	16.0699
1368.06	19.2073
1368.33	17.1741
1368.6	31.6792
1368.87	69.9631
1369.15	94.8116
1369.41	60.7327
1369.68	32.8515
1369.95	18.3988
1370.23	16.3549
1370.5	18.4461
1370.77	10.1946
1371.04	17.4513
1371.31	12.3061
1371.58	10.257
1371.85	21.6279
1372.12	13.3787
1372.39	5.13665
1372.66	11.3399
1372.93	18.5746
1373.2	13.4414
1373.47	21.7108
1373.74	12.4587
1374.01	17.6366
1374.28	17.6627
1374.55	24.9017
1374.82	14.626
1375.09	21.8639
1375.36	12.617
1375.63	22.9505
1375.9	25.0494
1376.17	11.6864
1376.44	18.932
1376.71	24.0987
1376.98	15.8769
1377.25	23.0961
1377.52	26.1894
1377.79	27.2576
1378.06	18.0409
1378.33	24.2726
1378.6	28.4552
1378.87	19.2445
1379.14	22.3783
1379.41	27.5625
1379.68	24.4929
1379.95	31.7306
1380.22	36.9002
1380.49	35.8702
1380.76	33.785
1381.03	42.0143
1381.3	35.8464
1381.57	36.9183
1381.84	49.2705
1382.11	53.3737
1382.38	52.3336
1382.65	58.4896
1382.92	59.5133
1383.19	67.7174
1383.46	79.0043
1383.73	80.0282
1384	111.825
1384.27	121.063
1384.54	145.707
1384.81	183.692
1385.08	241.193
1385.34	320.289
1385.61	454.893
1385.88	647.008
1386.15	1036.31
1386.42	1689.56
1386.69	2609.17
1386.96	3470.21
1387.23	3378.78
1387.5	2333.35
1387.77	1336.23
1388.04	747.983
1388.31	474.679
1388.58	312.614
1388.85	213.777
1389.12	154.601
1389.39	135.245
1389.66	105.514
1389.93	93.2398
1390.2	71.671
1390.46	70.5941
1390.73	56.2322
1391	62.4135
1391.27	58.3063
1391.54	48.0816
1391.81	46.0568
1392.08	47.0951
1392.35	32.766
1392.62	40.9756
1392.89	36.8995
1393.16	28.732
1393.43	26.7095
1393.7	22.6414
1393.97	23.6919
1394.23	25.7659
1394.5	29.8871
1394.77	25.8224
1395.04	27.8985
1395.31	23.8443
1395.58	23.8864
1395.85	19.8311
1396.12	21.9133
1396.39	25.0147
1396.66	26.0653
1396.93	16.8797
1397.2	18.952
1397.46	25.1126
1397.73	13.8818
1398	20.0464
1398.27	23.1463
1398.54	16.0223
1398.81	23.2216
1399.08	23.2577
1399.35	17.1541
1399.62	23.335
1399.89	18.2562
1400.16	21.364
1400.42	11.1605
1400.69	19.3882
1400.96	20.4578
1401.23	14.3522
1401.5	24.6225
1401.77	21.5893
1402.04	22.645
1402.31	16.5494
1402.58	17.6352
1402.84	23.8528
1403.11	19.8059
1403.38	23.961
1403.65	19.8952
1403.92	23.0078
1404.19	28.1602
1404.46	32.261
1404.73	32.3029
1404.99	27.1993
1405.26	29.2758
1405.53	36.4761
1405.8	45.7241
1406.07	41.6412
1406.34	56.0126
1406.61	60.1353
1406.87	71.434
1407.14	83.7707
1407.41	98.1621
1407.68	127.935
1407.95	153.607
1408.22	165.953
1408.49	183.428
1408.76	175.27
1409.02	150.706
1409.29	126.141
1409.56	98.4926
1409.83	78.0198
1410.1	59.593
1410.37	43.212
1410.63	40.1517
1410.9	28.8845
1411.17	27.872
1411.44	19.6909
1411.71	15.6149
1411.98	18.7134
1412.25	12.5962
1412.51	14.6831
1412.78	7.55376
1413.05	14.789
1413.32	16.9307
1413.59	12.8826
1413.86	15.9588
1414.12	13.8757
1414.39	13.9171
1414.66	11.9269
1414.93	9.92525
1415.2	7.90041
1415.47	7.93279
1415.73	3.85739
1416	11.0763
1416.27	8.03057
1416.54	12.1727
1416.81	7.07303
1417.07	12.2435
1417.34	10.2252
1417.61	9.23361
1417.88	1.04906
1418.15	9.30192
1418.42	9.33355
1418.68	6.28299
1418.95	7.34322
1419.22	8.40192
1419.49	3.29478
1419.76	1.26619
1420.02	9.50999
1420.29	5.42315
1420.56	8.52788
1420.83	13.6842
1421.1	11.6515
1421.36	9.62086
1421.63	7.59483
1421.9	7.62723
1422.17	5.61436
1422.44	5.65713
1422.7	10.8367
1422.97	4.72193
1423.24	7.86942
1423.51	11.0235
1423.77	7.87111
1424.04	7.81898
1424.31	14.0123
1424.58	7.85148
1424.85	4.80788
1425.11	6.89753
1425.38	9.00487
1425.65	6.98826
1425.92	1.88492
1426.19	1.92579
1426.45	5.03043
1426.72	5.05338
1426.99	9.17496
1427.26	8.16825
1427.52	7.16124
1427.79	9.2239
1428.06	1.04717
1428.33	5.167
1428.59	6.21759
1428.86	5.22324
1429.13	-2.93712
1429.4	7.33456
1429.67	4.29554
1429.93	7.40281
1430.2	8.46432
1430.47	2.35471
1430.74	0.340296
1431	5.50544
1431.27	3.49825
1431.54	4.56469
1431.81	3.57306
1432.07	11.8126
1432.34	2.59772
1432.61	0.566303
1432.87	11.8738
1433.14	6.76188
1433.41	1.65051
1433.68	5.76386
1433.95	-1.39232
1434.21	4.773
1434.48	5.82141
1434.75	6.89075
1435.01	0.778404
1435.28	-0.217026
1435.55	2.8851
1435.82	1.88733
1436.08	2.93835
1436.35	1.93926
1436.62	6.0628
1436.89	3.01377
1437.15	4.06236
1437.42	-0.010355
1437.69	3.08911
1437.95	3.11271
1438.22	-1.98232
1438.49	2.14311
1438.76	0.126467
1439.02	-0.868158
1439.29	6.33122
1439.56	-0.811609
1439.82	2.29387
1440.09	2.32817
1440.36	4.41439
1440.63	4.44539
1440.89	1.39806
1441.16	4.5015
1441.43	-0.597576
1441.69	5.57935
1441.96	2.52429
1442.23	5.62347
1442.49	1.55535
1442.76	5.68437
1443.03	2.64065
1443.3	-0.413862
1443.56	4.73422
1443.83	3.73016
1444.1	1.70255
1444.36	2.7524
1444.63	1.75525
1444.9	2.8154
1445.16	-0.228193
1445.43	0.83279
1445.7	3.93396
1445.97	2.93051
1446.23	1.92747
1446.5	-1.12671
1446.77	-4.18044
1447.03	-0.0548191
1447.3	0.993633
1447.57	1.01593
1447.83	6.16364
1448.1	6.18518
1448.37	6.20995
1448.63	2.13973
1448.9	2.17158
1449.17	1.17262
1449.43	2.2226
1449.7	4.29596
1449.97	1.23994
1450.23	0.234276
1450.5	1.27913
1450.77	2.32602
1451.03	5.42303
1451.3	0.320139
1451.57	1.36669
1451.83	0.363121
1452.1	0.384541
1452.37	2.45546
1452.63	3.50262
1452.9	5.57605
1453.17	-0.545967
1453.43	-0.518829
1453.7	-0.492466
1453.97	0.556225
1454.23	3.65207
1454.5	0.599689
1454.77	0.623287
1455.03	0.646729
1455.3	-2.40489
1455.56	-0.334108
1455.83	-1.335
1456.1	3.81716
1456.36	2.81832
1456.63	-0.233578
1456.9	2.86159
1457.16	-0.194916
1457.43	-3.25023
1457.7	1.89311
1457.96	-4.23262
1458.23	0.910816
1458.49	-1.11526
1458.76	-2.11656
1459.03	-1.06824
1459.29	1.00457
1459.56	0.00325966
1459.82	1.05065
1460.09	2.09623
1460.36	5.18985
1460.62	-0.937092
1460.89	2.15578
1461.16	-0.898344
1461.42	-1.90419
1461.69	1.18615
1461.95	0.179768
1462.22	-1.8507
1462.49	0.21307
1462.75	1.25219
1463.02	-0.778749
1463.28	-4.85507
1463.55	-2.79407
1463.82	1.31146
1464.08	1.33155
1464.35	4.4297
1464.61	-0.650433
1464.88	0.403608
1465.15	1.46169
1465.41	0.437025
1465.68	-0.614353
1465.94	-0.615667
1466.21	4.50467
1466.48	1.47258
1466.74	0.469551
1467.01	0.477665
1467.27	1.51435
1467.54	0.517101
1467.8	0.535461
1468.07	-4.54689
1468.34	2.61257
1468.6	1.61191
1468.87	-0.408955
1469.13	-1.41071
1469.4	0.646202
1469.67	5.76126
1469.93	-0.342873
1470.2	1.70899
1470.46	1.72297
1470.73	-1.31864
1470.99	0.735435
1471.26	-3.3227
1471.53	2.80534
1471.79	-1.25527
1472.06	-0.221424
1472.32	0.81389
1472.59	-1.2048
1472.85	-1.18671
1473.12	-0.150541
1473.39	-5.22455
1473.65	-0.119198
1473.92	-0.104658
1474.18	-2.12486
1474.45	5.0153
1474.71	-0.0547218
1474.98	-3.0873
1475.24	5.07497
1475.51	2.04001
1475.78	-3.03185
1476.04	2.07253
1476.31	-1.98374
1476.57	-5.02078
1476.84	0.0820675
1477.1	3.14722
1477.37	-2.94249
1477.63	-3.94392
1477.9	-0.876364
1478.16	1.17427
1478.43	1.18842
1478.69	1.2003
1478.96	2.22995
1479.22	1.2265
1479.49	-5.87434
1479.76	-2.8133
1480.02	-2.80148
1480.29	1.27263
1480.55	-1.76611
1480.82	-4.80123
1481.08	-4.78885
1481.35	1.31351
1481.61	-1.71807
1481.88	5.40251
1482.14	-1.67906
1482.41	-5.71788
1482.67	1.40837
1482.94	-1.61694
1483.2	-0.585653
1483.47	0.448908
1483.73	-1.56429
1484	-0.532866
1484.26	0.49741
1484.53	-3.55773
1484.79	-2.54018
1485.06	-0.522963
1485.32	0.470093
1485.59	-0.538881
1485.85	0.467613
1486.12	-0.468756
1486.38	-0.446241
1486.65	1.60623
1486.91	-1.44602
1487.18	2.63455
1487.44	-0.386286
1487.71	1.64728
1487.97	-2.39581
1488.24	-0.358849
1488.5	-0.348278
1488.77	-3.37631
1489.03	-1.34296
1489.3	2.71468
1489.56	0.702333
1489.83	-0.297304
1490.09	-0.284746
1490.36	-0.270689
1490.62	-1.26854
1490.89	3.80014
1491.15	-3.27104
1491.42	-3.2615
1491.68	-3.24975
1491.95	-3.23693
1492.21	-2.21224
1492.48	-2.19751
1492.74	-4.20669
1493	0.860453
1493.27	-0.137878
1493.53	1.89737
1493.8	-0.112926
1494.06	-1.11142
1494.33	0.923805
1494.59	-0.0721779
1494.86	0.954065
1495.12	0.965961
1495.39	-6.10092
1495.65	0.97979
1495.92	-0.0270805
1496.18	0.988199
1496.45	-1.02331
1496.71	-1.01413
1496.97	1.01425
1497.24	-2.00473
1497.5	2.04461
1497.77	2.05673
1498.03	1.05824
1498.3	0.0605736
1498.56	0.0729656
1498.82	-0.923601
1499.09	-3.93852
1499.35	3.13953
1499.62	6.18143
1499.88	0.139189
1500.15	2.17226
1500.41	0.165794
1500.68	2.19641
1500.94	0.187962
1501.2	-0.810921
1501.47	-1.81151
1501.73	-0.795444
1502	-0.785652
1502.26	-2.79339
1502.52	-0.764971
1502.79	4.28885
1503.05	1.26727
1503.32	-1.75274
1503.58	-3.76152
1503.85	-2.7463
1504.11	3.31422
1504.37	-4.73948
1504.64	0.314344
1504.9	2.34198
1505.17	-0.673925
1505.43	-2.68258
1505.7	2.36519
1505.96	1.35989
1506.22	0.353268
1506.49	1.36922
1506.75	1.37859
1507.02	-1.63256
1507.28	-3.63443
1507.54	3.43
1507.81	-2.60501
1508.07	0.42775
1508.34	7.48915
1508.6	4.47441
1508.86	-0.55331
1509.13	1.47241
1509.39	-1.54058
1509.66	-0.523788
1509.92	0.493183
1510.18	-0.502453
1510.45	0.516266
1510.71	-1.49459
1510.98	4.55465
1511.24	-0.479103
1511.5	1.537
1511.77	-0.477688
1512.03	0.524393
1512.29	-2.49644
1512.56	-3.50365
1512.82	4.53273
1513.08	0.516459
1513.35	2.52748
1513.61	-2.48871
1513.88	1.53321
1514.14	-1.46432
1514.4	3.57535
1514.67	-0.431744
1514.93	2.58706
1515.2	-5.44458
1515.46	0.581997
1515.72	-3.43109
1515.99	-0.419352
1516.25	1.5875
1516.51	1.5899
1516.78	-3.41876
1517.04	2.60357
1517.3	5.61747
1517.57	-1.39398
1517.83	0.619307
1518.09	1.63145
1518.36	0.640886
1518.62	5.66443
1518.88	0.65893
1519.15	-2.34146
1519.41	-1.32907
1519.67	3.6963
1519.94	3.7049
1520.2	2.70807
1520.47	-0.296906
1520.73	-4.30409
1520.99	-4.29599
1521.26	0.729364
1521.52	0.738466
1521.78	-1.26065
1522.05	-2.25822
1522.31	0.756275
1522.57	-0.24308
1522.84	-0.239412
1523.1	2.77341
1523.36	-3.24141
1523.62	2.77356
1523.89	2.76909
1524.15	4.77184
1524.41	-0.23629
1524.68	3.77152
1524.94	0.769236
1525.2	1.77966
1525.47	1.78695
1525.73	3.79689
1525.99	-2.20298
1526.26	3.81809
1526.52	-1.17909
1526.78	0.836123
1527.05	-3.16576
1527.31	-2.15821
1527.57	-2.15582
1527.84	-1.14952
1528.1	-1.14602
1528.36	0.861544
1528.63	-0.137959
1528.89	5.87549
1529.15	-1.13383
1529.41	-0.128147
1529.68	0.878258
1529.94	-2.12302
1530.2	-0.11867
1530.47	-2.11743
1530.73	0.89397
1530.99	3.9091
1531.25	-0.087759
1531.52	1.92488
1531.78	-2.07797
1532.04	-1.07271
1532.31	-3.07145
1532.57	-1.06587
1532.83	-1.05855
1533.09	-0.0455036
1533.36	-1.03495
1533.62	1.98561
1533.88	-1.01549
1534.15	-2.01245
1534.41	2.00428
1534.67	3.01014
1534.94	2.0092
1535.2	0.00470352
1535.46	5.02081
1535.72	3.014
1535.99	-3.00851
1536.25	-2.0092
1536.51	-3.01193
1536.77	1.99101
1537.04	2.98598
1537.3	1.98018
1537.56	-3.02204
1537.82	1.97786
1538.09	-0.0187073
1538.35	2.98003
1538.61	1.97532
1538.87	0.976509
1539.14	-1.0216
1539.4	0.98781
1539.66	4.00673
1539.92	0.026268
1540.19	2.045
1540.45	2.05936
1540.71	-1.93585
1540.97	2.08437
1541.24	0.0846996
1541.5	0.0776691
1541.76	1.08187
1542.02	2.08005
1542.29	-0.929222
1542.55	2.07266
1542.81	-4.94075
1543.07	5.06907
1543.34	0.0605755
1543.6	5.06074
1543.86	2.05278
1544.12	-1.95366
1544.39	3.05033
1544.65	4.05463
1544.91	3.06265
1545.17	2.07271
1545.43	0.0791321
1545.7	-1.91134
1545.96	2.10174
1546.22	-1.89903
1546.48	0.109144
1546.74	-0.891775
1547.01	-0.888491
1547.27	3.12359
1547.53	3.12897
1547.79	5.13802
1548.06	2.12808
1548.32	-0.887611
1548.58	2.11823
1548.84	0.118755
1549.1	-0.873932
1549.37	0.107098
1549.63	2.08325
1549.89	3.07868
1550.15	-0.904736
1550.42	-0.878798
1550.68	2.16588
1550.94	-0.81473
1551.2	-0.790453
1551.46	1.20329
1551.73	0.203148
1551.99	2.20746
1552.25	-1.81381
1552.51	1.20966
1552.77	0.216911
1553.03	0.215008
1553.3	4.22539
1553.56	-1.81397
1553.82	0.189945
1554.08	-1.81713
1554.34	1.18803
1554.61	1.18184
1554.87	1.17435
1555.13	8.17971
1555.39	-0.839493
1555.65	2.16501
1555.91	4.16914
1556.18	-0.837103
1556.44	3.17109
1556.7	3.16769
1556.96	3.16876
1557.22	1.1678
1557.48	-3.83896
1557.75	-2.83618
1558.01	0.168447
1558.27	2.16766
1558.53	-0.843864
1558.79	-3.8522
1559.06	0.144018
1559.32	0.136997
1559.58	2.13111
1559.84	0.125977
1560.1	-2.87712
1560.36	1.11843
1560.63	0.116573
1560.89	-0.884537
1561.15	0.113581
1561.41	0.113516
1561.67	1.11473
1561.93	3.11861
1562.19	3.12617
1562.46	5.13462
1562.72	0.134144
1562.98	-3.86748
1563.24	4.13103
1563.5	-0.868057
1563.76	1.12951
1564.02	2.12777
1564.29	-3.86476
1564.55	-1.85578
1564.81	1.1491
1565.07	4.14922
1565.33	2.13272
1565.59	2.0863
1565.85	2.02245
1566.11	5.9681
1566.38	5.0928
1566.64	-1.87266
1566.9	-0.885025
1567.16	-1.89976
1567.42	4.11595
1567.68	-0.862301
1567.94	4.13336
1568.2	-0.885189
1568.47	-0.883003
1568.73	0.119509
1568.99	2.12047
1569.25	0.117521
1569.51	-3.89017
1569.77	-0.897427
1570.03	2.09987
1570.29	-0.896984
1570.55	4.09972
1570.82	4.09926
1571.08	2.09902
1571.34	0.0982265
1571.6	1.09435
1571.86	-2.90702
1572.12	1.08394
1572.38	3.07992
1572.64	1.07789
1572.9	-2.92243
1573.17	0.0686836
1573.43	-0.934162
1573.69	-2.93542
1573.95	-0.943581
1574.21	1.05178
1574.47	0.0569286
1574.73	-2.934
1574.99	-3.92883
1575.25	3.06744
1575.51	1.07439
1575.78	2.07703
1576.04	3.07632
1576.3	1.07437
1576.56	3.0711
1576.82	1.06823
1577.08	2.05773
1577.34	0.049202
1577.6	2.03524
1577.86	-1.96652
1578.12	-3.97005
1578.38	1.00828
1578.64	0.00504112
1578.9	1.99589
1579.17	0.997099
1579.43	-0.00165367
1579.69	-0.00307274
1579.95	0.993643
1580.21	-0.99864
1580.47	0.995752
1580.73	1.99173
1580.99	2.98609
1581.25	-3.99826
1581.51	2.97511
1581.77	-1.01739
1582.03	-3.01705
1582.29	-1.03069
1582.55	1.95462
1582.81	0.954691
1583.07	-1.04147
1583.33	2.93964
1583.59	-0.0512924
1583.85	-4.03801
1584.11	1.93362
1584.38	-4.04402
1584.64	4.91992
1584.9	-1.05667
1585.16	-1.05776
1585.42	1.92831
1585.68	-1.06339
1585.94	0.926008
1586.2	-2.06634
1586.46	-0.0822048
1586.72	2.8961
1586.98	0.898512
1587.24	-1.09732
1587.5	-2.09703
1587.76	1.87873
1588.02	-2.10444
1588.28	-1.11158
1588.54	3.86309
1588.8	3.86404
1589.06	-8.07723
1589.32	4.86245
1589.58	-1.10918
1589.84	-5.09173
1590.1	3.86732
1590.36	0.878017
1590.62	1.87339
1590.88	-1.11339
1591.14	-3.10544
1591.4	-0.120783
1591.66	-2.11512
1591.92	6.84328
1592.18	1.85908
1592.44	0.855305
1592.7	2.83523
1592.96	-0.158428
1593.22	-4.1438
1593.48	-1.17038
1593.74	2.79407
1594	2.78032
1594.26	0.784056
1594.52	-2.20161
1594.78	-0.217676
1595.04	0.775982
1595.3	1.77203
1595.56	1.77294
1595.82	-2.2044
1596.08	2.74912
1596.34	1.7527
1596.6	2.74324
1596.86	-0.23884
1597.12	-3.22038
1597.38	0.751766
1597.64	0.751305
1597.9	-1.23622
1598.16	-0.246006
1598.42	-5.21792
1598.68	-0.25803
1598.94	0.72566
1599.2	2.70221
1599.46	0.709383
1599.72	2.68707
1599.98	5.65626
1600.24	-1.29569
1600.5	4.64885
1600.76	3.64879
1601.02	-0.326559
1601.28	-1.32793
1601.54	-5.30153
1601.8	-0.358221
1602.06	3.59326
1602.32	-2.35538
1602.58	2.58652
1602.84	4.55703
1603.1	4.54716
1603.36	-1.39691
1603.62	-0.415106
1603.88	-4.37633
1604.14	-2.4034
1604.4	0.559359
1604.66	0.556883
1604.92	2.53224
1605.17	1.54086
1605.43	2.52731
1605.69	0.547745
1605.95	2.52469
1606.21	-0.442167
1606.47	1.53635
1606.73	-0.441757
1606.99	2.52596
1607.25	-2.40937
1607.51	2.45104
1607.77	-1.46274
1608.03	-3.29528
1608.29	-4.12982
1608.55	2.48952
1608.81	3.25416
1609.07	-0.185883
1609.32	0.611265
1609.58	-0.32332
1609.84	2.20014
1610.1	3.21844
1610.36	0.564795
1610.62	1.20892
1610.88	2.97614
1611.14	-1.21136
1611.4	-1.31679
1611.66	2.81088
1611.92	0.0869446
1612.18	0.267801
1612.44	0.473288
1612.69	-0.125248
1612.95	0.212561
1613.21	-0.506533
1613.47	1.4185
1613.73	1.83096
1613.99	-2.09127
1614.25	-0.0192947
1614.51	0.225647
1614.77	1.77566
1615.03	2.11207
1615.29	-1.55079
1615.54	-0.877636
1615.8	0.3787
1616.06	-3.09504
1616.32	-1.58879
1616.58	0.0900154
1616.84	0.566708
1617.1	0.638412
1617.36	-1.41143
1617.62	-0.656868
1617.88	-1.98051
1618.13	-0.0295639
1618.39	0.797215
1618.65	-0.970186
1618.91	0.841419
1619.17	1.58107
1619.43	3.70337
1619.69	1.86989
1619.95	2.73301
1620.2	0.782362
1620.46	0.75425
1620.72	0.949911
1620.98	1.20619
1621.24	0.0100403
1621.5	0.214748
1621.76	1.53314
1622.02	1.92124
1622.27	-0.369383
1622.53	-0.948277
1622.79	0.759766
1623.05	-0.309799
1623.31	-0.778639
1623.57	-1.11451
1623.83	-0.124758
1624.09	0.539907
1624.34	1.0021
1624.6	0.0756321
1624.86	-0.884214
1625.12	0.0270615
1625.38	0.706564
1625.64	-0.0501881
1625.9	-0.786366
1626.15	-0.855556
1626.41	-2.51589
1626.67	-0.705284
1626.93	0.23155
1627.19	-1.75852
1627.45	-0.162514
1627.7	0.255842
1627.96	0.145582
1628.22	-0.669794
1628.48	-0.245308
1628.74	-0.382303
1629	-1.16925
1629.26	-0.211462
1629.51	0.276987
1629.77	-0.873962
1630.03	-1.97939
1630.29	-2.11752
1630.55	-0.360369
1630.81	1.28308
1631.06	1.49356
1631.32	1.8079
1631.53	0.292994
1631.79	0.293554
1632.05	2.26557
1632.31	1.28142
1632.57	-1.67886
1632.84	0.295406
1633.1	-1.66891
1633.36	2.26506
1633.62	-1.69135
1633.88	0.27438
1634.14	-0.710701
1634.4	-0.710079
1634.66	-4.65432
1634.93	1.25764
1635.19	3.22605
1635.45	0.265528
1635.71	-0.723991
1635.97	1.24273
1636.23	4.19407
1636.49	0.247145
1636.75	0.241869
1637.02	-0.748688
1637.28	0.230305
1637.54	3.17794
1637.8	-1.75
1638.06	-0.768656
1638.32	0.21142
1638.58	0.206642
1638.84	-0.781866
1639.1	2.16887
1639.37	0.197712
1639.63	0.194971
1639.89	2.161
1640.15	1.17379
1640.41	1.17048
1640.67	-0.79999
1640.93	0.185947
1641.19	3.1404
1641.46	-1.78465
1641.72	-0.803833
1641.98	3.12964
1642.24	-0.812418
1642.5	-2.78479
1642.76	-1.80366
1643.02	0.161747
1643.28	-2.79436
1643.54	0.15568
1643.8	0.152721
1644.06	4.08535
1644.33	-1.82436
1644.59	-0.845854
1644.85	3.0843
1645.11	-3.80529
1645.37	4.06458
1645.63	0.129677
1645.89	0.128986
1646.15	0.126965
1646.41	-1.84548
1646.67	0.117634
1646.93	2.08063
1647.19	1.0931
1647.46	1.08851
1647.72	-0.883242
1647.98	1.07949
1648.24	0.0933571
1648.5	-2.8584
1648.76	0.0934849
1649.02	-1.87221
1649.28	1.08836
1649.54	-2.84752
1649.8	-2.85173
1650.06	-1.87168
1650.32	6.00056
1650.58	3.05273
1650.85	1.08679
1651.11	-0.88125
1651.37	0.105824
1651.63	2.07727
1651.89	-0.879837
1652.15	0.103632
1652.41	-1.86931
1652.67	-1.8706
1652.93	-1.87462
1653.19	3.0474
1653.45	2.0588
1653.71	0.0863686
1653.97	-4.84112
1654.23	3.04171
1654.49	-2.87148
1654.75	-1.88721
1655.01	1.06891
1655.27	-0.901606
1655.53	-0.899433
1655.8	-2.86784
1656.06	-1.87654
1656.32	-1.87376
1656.57	-1.8726
1656.84	-0.885675
1657.1	4.04906
1657.36	1.08517
1657.62	2.06837
1657.88	0.0900993
1658.14	-0.900011
1658.4	1.07019
1658.66	-1.8941
1658.92	0.0744171
1659.18	0.0694637
1659.44	-0.921783
1659.7	1.04564
1659.96	-3.8893
1660.22	1.03388
1660.48	-3.89518
1660.74	1.03519
1661	1.03699
1661.26	2.02563
1661.52	1.04187
1661.78	-2.90201
1662.04	0.0583019
1662.3	-2.90234
1662.56	0.0370426
1662.82	0.0761013
1663.08	-1.88089
1663.34	3.04858
1663.6	2.05594
1663.86	-4.86769
1664.12	1.99831
1664.38	-0.939423
1664.64	0.0513458
1664.9	0.0517254
1665.16	2.0367
1665.42	-1.91229
1665.68	2.01305
1665.94	-3.92672
1666.2	3.03731
1666.46	-1.90309
1666.72	1.05966
1666.98	1.02667
1667.24	-1.01322
1667.5	1.02014
1667.76	2.00083
1668.02	1.00873
1668.28	-1.95511
1668.54	2.97303
1668.8	0.999123
1669.06	-1.95314
1669.32	-2.931
1669.58	0.0328751
1669.84	-0.955681
1670.1	2.99496
1670.36	1.01578
1670.62	-1.94853
1670.88	1.025
1671.14	2.01988
1671.4	2.01626
1671.66	1.02484
1671.92	-0.954014
1672.18	-1.94268
1672.44	-0.953665
1672.69	0.0343857
1672.95	0.0331497
1673.21	-0.956589
1673.47	1.01997
1673.73	1.01984
1673.99	-0.957018
1674.25	1.02162
1674.51	0.0347309
1674.77	2.01443
1675.03	-0.951052
1675.29	-1.93753
1675.55	1.03304
1675.81	4.99252
1676.07	-0.945873
1676.33	-2.92642
1676.59	-0.947414
1676.85	2.02187
1677.11	0.0421181
1677.37	0.0408726
1677.63	1.02844
1677.89	-2.93288
1678.14	-1.94694
1678.4	2.00546
1678.66	-2.94576
1678.92	1.00552
1679.18	-0.975908
1679.44	-0.979231
1679.7	-1.9703
1679.96	1.98065
1680.22	-0.987539
1680.48	-0.00159836
1680.74	-0.992727
1681	0.98057
1681.26	-4.95001
1681.52	-1.98775
1681.78	-2.97672
1682.03	-1.98967
1682.29	-0.0145493
1682.55	-1.00294
1682.81	-1.00314
1683.07	-3.96836
1683.33	-1.99372
1683.59	-0.0188351
1683.85	1.95629
1684.11	-2.98417
1684.37	2.94078
1684.63	2.93648
1684.89	-2.99144
1685.14	-0.0304222
1685.4	-0.0316544
1685.66	0.954889
1685.92	-2.00807
1686.18	-2.99587
1686.44	2.92902
1686.7	-2.00727
1686.96	-0.0281639
1687.22	-2.00214
1687.48	-0.0262985
1687.73	-0.028326
1687.99	0.956511
1688.25	1.94118
1688.51	-0.0364285
1688.77	-1.02653
1689.03	-4.97893
1689.29	0.939573
1689.55	-3.0121
1689.81	0.931215
1690.06	-0.0599842
1690.32	0.921234
1690.58	-0.0666866
1690.84	-1.04843
1691.1	-1.046
1691.36	-3.01777
1691.62	-2.03026
1691.88	-0.0546474
1692.13	-4.00071
1692.39	-0.0530205
1692.65	-1.04126
1692.91	-4.00466
1693.17	0.924704
1693.43	2.8922
1693.69	1.89943
1693.95	-0.0792236
1694.2	0.901968
1694.46	0.89752
1694.72	-0.092392
1694.98	0.889482
1695.24	-2.06593
1695.5	-3.04988
1695.76	-0.0934143
1696.01	0.893064
1696.27	-1.07589
1696.53	-3.04384
1696.79	-2.05654
1697.05	-1.07112
1697.31	1.88329
1697.57	0.893808
1697.82	-1.08176
1698.08	-0.102324
1698.34	-1.09121
1698.6	1.85841
1698.86	-2.08196
1699.12	-0.116356
1699.38	-2.08565
1699.63	4.80166
1699.89	-3.06866
1700.15	0.867773
1700.41	0.868389
1700.67	-3.07087
1700.92	-4.05522
1701.18	-3.07197
1701.44	-2.08902
1701.7	-0.123192
1701.96	0.857105
1702.22	-0.13028
1702.47	-0.133762
1702.73	1.82814
1702.99	-2.10662
1703.25	-0.142057
1703.51	1.82301
1703.77	-0.143238
1704.02	-1.12735
1704.28	1.81911
1704.54	1.82168
1704.8	-2.10531
1705.06	-0.138882
1705.32	0.843203
1705.57	2.80743
1705.83	0.842785
1706.09	-1.12183
1706.35	-1.12449
1706.61	-0.146082
1706.86	-2.1145
1707.12	-2.11879
1707.38	2.78442
1707.64	-0.164047
1707.9	-3.11219
1708.16	-2.13669
1708.41	-2.14219
1708.67	-0.18755
1708.93	1.76475
1709.19	-0.200912
1709.44	1.75323
1709.7	-0.207582
1709.96	0.770561
1710.22	3.70772
1710.48	-0.206892
1710.73	0.773493
1710.99	0.776085
1711.25	1.75938
1711.51	0.783037
1711.77	-2.15242
1712.02	-0.191219
1712.28	0.789402
1712.54	-3.1298
1712.8	0.782356
1713.06	-0.204662
1713.31	3.70018
1713.57	0.757311
1713.83	-0.227388
1714.09	1.71982
1714.34	1.71645
1714.6	0.737556
1714.86	1.71318
1715.12	-2.19409
1715.38	0.736603
1715.63	-2.18925
1715.89	-0.229879
1716.15	1.72511
1716.41	1.72417
1716.66	-0.231905
1716.92	1.71788
1717.18	-0.2404
1717.44	-2.19888
1717.69	-3.18158
1717.95	-3.18958
1718.21	-2.22178
1718.47	-0.279427
1718.72	1.66267
1718.98	-1.2627
1719.24	1.65687
1719.5	2.63116
1719.75	-0.288872
1720.01	1.6582
1720.27	-3.20722
1720.53	0.689466
1720.78	0.68845
1721.04	-2.23463
1721.3	0.680801
1721.56	-3.21447
1721.81	-1.27142
1722.07	1.64278
1722.33	0.665998
1722.59	0.661535
1722.84	-3.22995
1723.1	1.62474
1723.36	1.62108
1723.62	-2.2663
1723.87	1.61701
1724.13	0.647007
1724.39	-1.29549
1724.64	-1.29522
1724.9	1.61514
1725.16	-2.2716
1725.42	-1.30764
1725.67	-1.31343
1725.93	2.55796
1726.19	0.615122
1726.45	1.58291
1726.7	-1.32136
1726.96	0.616621
1727.22	0.614763
1727.47	0.608362
1727.73	-1.32783
1727.99	-1.32157
1728.24	1.58473
1728.5	-0.354759
1728.76	1.57512
1729.02	1.54487
1729.27	-1.38496
1729.53	-0.429976
1729.79	0.548866
1730.05	0.561838
1730.3	-3.29298
1730.56	-4.26809
1730.82	-1.37509
1731.07	0.555096
1731.33	0.58145
1731.59	0.584524
1731.84	1.55299
1732.1	1.55407
1732.36	-0.378464
1732.61	1.5537
1732.87	-1.34575
1733.13	-0.381105
1733.39	4.44527
1733.64	-0.38867
1733.9	-0.395319
1734.16	-1.36717
1734.41	-0.407124
1734.67	4.40879
1734.93	0.546785
1735.18	-0.422174
1735.44	-0.427122
1735.7	0.531633
1735.95	0.528795
1736.21	-0.435438
1736.47	2.45189
1736.72	-3.32328
1736.98	3.41207
1737.24	-2.36244
1737.49	-1.40144
1737.75	1.4833
1738.01	2.44395
1738.26	1.47998
1738.52	-1.40722
1738.78	0.51277
1739.03	0.509995
1739.29	2.4281
1739.55	0.502111
1739.8	1.45586
1740.06	0.487778
1740.32	-2.39746
1740.57	0.47394
1740.83	0.468958
1741.09	-1.45123
1741.34	1.42063
1741.6	2.37541
1741.86	0.456995
1742.11	0.455301
1742.37	0.454908
1742.63	1.41298
1742.88	-0.501612
1743.14	2.3699
1743.4	-2.41559
1743.65	-0.499842
1743.91	0.457111
1744.16	-0.502262
1744.42	1.40952
1744.68	1.40809
1744.93	2.36495
1745.19	2.36688
1745.45	0.456247
1745.7	3.32779
1745.96	-1.45382
1746.22	-2.41067
1746.47	1.41219
1746.73	0.452414
1746.98	-0.50771
1747.24	-0.510496
1747.5	5.21636
1747.75	2.3476
1748.01	-0.519928
1748.27	-1.47482
1748.52	4.25408
1748.78	-1.4709
1749.03	3.305
1749.29	1.39942
1749.55	0.449324
1749.8	0.454964
1750.06	1.41647
1750.32	-1.44233
1750.57	0.475574
1750.83	2.39392
1751.08	-1.42553
1751.34	-0.465143
1751.6	-1.41844
1751.85	3.36065
1752.11	1.4445
1752.36	-1.42628
1752.62	3.34689
1752.88	-0.475863
1753.13	-0.478415
1753.39	2.38256
1753.64	3.33454
1753.9	-0.484022
1754.15	2.37675
1754.41	2.37371
1754.67	2.37066
1754.92	-0.491041
1755.18	2.3681
1755.43	1.41441
1755.69	-2.39847
1755.95	-1.44654
1756.2	0.456839
1756.46	-2.40364
1756.71	2.35454
1756.97	1.39726
1757.23	2.34383
1757.48	1.38791
1757.74	4.24098
1757.99	1.38685
1758.25	2.34167
1758.5	1.39948
1758.76	-1.45073
1759.02	1.40665
1759.27	0.457619
1759.53	2.36333
1759.78	-0.488066
1760.04	-0.486141
1760.3	2.36923
1760.55	0.466545
1760.81	0.466755
1761.06	4.27162
1761.32	-0.485786
1761.57	-2.38952
1761.83	4.26475
1762.08	0.46133
1762.34	5.21484
1762.6	0.463417
1762.85	2.3708
1763.11	0.474117
1763.36	3.32941
1763.62	0.478273
1763.87	1.43213
1764.13	-0.465725
1764.38	2.39179
1764.64	3.35022
1764.89	2.41016
1765.15	-0.43898
1765.4	-0.433905
1765.66	1.47431
1765.92	-2.32991
1766.17	1.48135
1766.43	0.5317
1766.68	4.34148
1766.94	-4.22589
1767.19	0.534786
1767.45	-1.36699
1767.7	2.44097
1767.96	1.48841
1768.21	3.3904
1768.47	1.48705
1768.73	1.48746
1768.98	0.536873
1769.24	3.38299
1769.49	2.42141
1769.75	0.511889
1770	3.35544
1770.26	-1.38936
1770.51	0.517271
1770.77	-1.37505
1771.02	3.37802
1771.28	2.43203
1771.53	4.34156
1771.79	0.550106
1772.04	1.50613
1772.3	1.50975
1772.55	1.5159
1772.81	-1.33102
1773.06	4.38313
1773.32	4.38865
1773.57	1.53896
1773.83	5.3509
1774.08	3.45203
1774.34	-2.25546
1774.59	1.55614
1774.85	4.41584
1775.1	4.42183
1775.36	1.56935
1775.61	2.52827
1775.87	3.49432
1776.12	0.643585
1776.38	2.55538
1776.63	1.60533
1776.89	2.55995
1777.14	0.652981
1777.4	2.55764
1777.65	3.51039
1777.91	1.60288
1778.16	-1.25654
1778.42	1.59938
1778.67	3.50216
1778.93	0.643211
1779.18	1.59164
1779.44	2.53921
1779.69	3.48907
1779.95	1.58834
1780.2	0.645596
1780.46	1.60122
1780.71	-0.298319
1780.97	2.56148
1781.22	1.61427
1781.47	5.42509
1781.73	2.57252
1781.98	0.672756
1782.24	1.63039
1782.49	1.63641
1782.75	2.59678
1783	1.64997
1783.26	-1.20378
1783.51	2.61292
1783.77	1.66519
1784.02	-0.236092
1784.28	3.58307
1784.53	2.63628
1784.79	2.64469
1785.04	0.74268
1785.29	-1.16139
1785.55	6.4739
1785.8	0.750368
1786.06	-2.11149
1786.31	-0.203398
1786.57	2.66097
1786.82	0.757362
1787.08	1.71735
1787.33	-2.09288
1787.58	-1.13074
1787.84	-1.12094
1788.09	-1.10667
1788.35	-1.0916
1788.6	-0.119823
1788.86	-0.108656
1789.11	4.68435
1789.37	2.77743
1789.62	3.74672
1789.87	-0.0777798
1790.13	1.84403
1790.38	3.76639
1790.64	-1.02136
1790.89	-0.0601959
1791.15	0.899763
1791.4	1.85555
1791.65	0.88604
1791.91	2.80194
1792.16	-0.0711079
1792.42	-1.02626
1792.67	-1.02317
1792.93	0.895761
1793.18	-1.01498
1793.43	-1.01105
1793.69	-1.00828
1793.94	0.910255
1794.2	0.915396
1794.45	4.75139
1794.7	-0.0378704
1794.96	2.83536
1795.21	-0.989027
1795.47	0.946867
1795.72	-0.958834
1795.97	0.00846672
1796.23	-1.90602
1796.48	1.94049
1796.74	0.986677
1796.99	2.91442
1797.25	0.0390797
1797.5	1.0062
1797.75	1.97309
1798.01	2.93961
1798.26	0.0603008
1798.51	-1.85855
1798.77	2.95254
1799.02	1.03178
1799.28	1.03272
1799.53	1.99391
1799.78	-0.891321
1800.04	0.0679817
1800.29	-0.894592
1800.55	-2.81689
1800.8	-0.895578
1801.05	2.94707
1801.31	0.0661831
1801.56	2.94912
1801.81	-1.85129
1802.07	1.99365
1802.32	-2.80575
1802.58	1.04092
1802.83	1.0459
1803.08	-0.870361
1803.34	0.0968895
1803.59	-2.78078
1803.84	-0.852369
1804.1	1.07491
1804.35	3.00167
1804.61	-0.84071
1804.86	0.127153
1805.11	0.133087
1805.37	3.02723
1805.62	-0.815643
1805.87	2.08017
1806.13	-0.802399
1806.38	-0.796829
1806.64	3.06243
1806.89	0.176729
1807.14	-1.74692
1807.4	0.183285
1807.65	3.07687
1807.9	0.187525
1808.16	2.11739
1808.41	-0.771774
1808.66	1.15841
1808.92	-2.69457
1809.17	2.12775
1809.42	-0.761364
1809.68	2.13334
1809.93	0.208117
1810.18	2.13916
1810.44	0.213552
1810.69	3.10819
1810.94	2.1448
1811.2	3.10963
1811.45	-0.74511
1811.7	2.14849
1811.96	3.1141
1812.21	0.224049
1812.46	-4.59362
1812.72	0.231062
1812.97	0.235867
1813.22	0.241449
1813.48	2.1757
1813.73	2.17892
1813.98	3.14889
1814.24	2.19093
1814.49	0.268147
1814.74	-0.689842
1815	-0.68144
1815.25	2.22276
1815.5	0.295494
1815.76	2.23189
1816.01	0.30192
1816.26	0.304663
1816.52	-3.55882
1816.77	-1.62262
1817.02	0.313923
1817.27	0.314419
1817.53	3.21272
1817.78	-0.661087
1818.03	2.23117
1818.29	1.26818
1818.54	-1.62416
1818.79	2.2477
1819.05	-1.61267
1819.3	2.25351
1819.55	-0.64249
1819.8	3.22783
1820.06	-0.634418
1820.31	-0.630959
1820.56	0.339901
1820.82	1.31142
1821.07	0.348307
1821.32	-1.5826
1821.58	2.29113
1821.83	3.26395
1822.08	-1.56946
1822.33	1.33776
1822.59	2.30927
1822.84	-4.4634
1823.09	1.34723
1823.34	1.34985
1823.6	1.35096
1823.85	0.382622
1824.1	2.3178
1824.36	0.382961
1824.61	3.29
1824.86	-0.578548
1825.11	1.36094
1825.37	3.30108
1825.62	-2.50492
1825.87	1.37154
1826.12	2.34186
1826.38	-1.53057
1826.63	-1.52877
1826.88	2.34716
1827.14	-4.43054
1827.39	0.414818
1827.64	2.3556
1827.89	-0.546841
1828.15	1.39433
1828.4	1.39583
1828.65	-0.541447
1828.9	2.36429
1829.16	-3.4495
1829.41	0.424429
1829.66	-0.543573
1829.91	0.425451
1830.17	-0.542891
1830.42	-0.543957
1830.67	2.35971
1830.92	3.32669
1831.18	1.39181
1831.43	-0.540955
1831.68	5.27325
1831.93	-0.532967
1832.19	0.439447
1832.44	2.38089
1832.69	2.38536
1832.94	4.32944
1833.2	-0.512033
1833.45	-1.47973
1833.7	1.4298
1833.95	1.43303
1834.2	2.40468
1834.46	-0.501148
1834.71	3.3719
1834.96	-1.48333
1835.21	-0.523354
1835.47	1.4042
1835.72	3.33389
1835.97	1.3939
1836.22	5.26379
1836.48	-1.51043
1836.73	1.48073
1836.98	2.44989
1837.23	0.480888
1837.48	-0.497162
1837.74	-3.41562
1837.99	-1.48961
1838.24	0.42576
1838.49	-0.552311
1838.74	0.4123
1839	2.38391
1839.25	-0.503853
1839.5	-1.46427
1839.75	1.44633
1840	-0.487951
1840.26	-1.45138
1840.51	1.43745
1840.76	0.455259
1841.01	1.41092
1841.27	-2.46613
1841.52	1.3913
1841.77	0.41658
1842.02	4.27078
1842.27	0.402229
1842.53	3.29028
1842.78	2.3188
1843.03	2.32363
1843.28	1.35767
1843.53	-0.568308
1843.78	2.32606
1844.04	2.32688
1844.29	-0.568348
1844.54	-0.567699
1844.79	2.32949
1845.04	3.29539
1845.3	0.398659
1845.55	-2.49345
1845.8	-2.49259
1846.05	0.410473
1846.3	-3.44125
1846.55	-0.536499
1846.81	0.444717
1847.06	-2.46406
1847.31	2.3335
1847.56	-0.593037
1847.81	1.32623
1848.07	0.364706
1848.32	1.33896
1848.57	0.386192
1848.82	2.30222
1849.07	-0.591682
1849.32	-2.51616
1849.57	-0.593805
1849.83	-2.52369
1850.08	1.31954
1850.33	-0.609921
1850.58	0.344593
1850.83	-1.58331
1851.09	1.29498
1851.34	1.2908
1851.59	4.16872
1851.84	-0.636265
1852.09	-0.637808
1852.34	1.28218
1852.59	-0.638014
1852.84	-0.637522
1853.1	1.28333
1853.35	-2.5577
1853.6	-2.55843
1853.85	0.320147
1854.1	3.19605
1854.35	-0.648506
1854.6	2.22327
1854.86	-1.61884
1855.11	3.17287
1855.36	0.293486
1855.61	-0.670658
1855.86	-0.676819
1856.11	1.23568
1856.36	2.19191
1856.61	2.19102
1856.87	-1.63993
1857.12	-0.681965
1857.37	-0.682568
1857.62	1.23132
1857.87	1.22901
1858.12	0.269146
1858.37	1.22345
1858.63	2.17642
1858.88	0.257675
1859.13	2.16643
1859.38	-0.708239
1859.63	-0.713116
1859.88	3.10774
1860.13	0.239288
1860.38	-3.58455
1860.63	0.240978
1860.89	1.2013
1861.14	0.248774
1861.39	1.20855
1861.64	-1.65758
1861.89	2.17324
1862.14	-1.65338
1862.39	0.259602
1862.64	-0.700237
1862.9	-0.704411
1863.15	-0.709047
1863.4	2.15471
1863.65	0.237701
1863.9	2.14468
1864.15	-1.6818
1864.4	-4.55131
1864.65	-2.64375
1864.9	-2.64695
1865.15	1.1686
1865.4	0.20846
1865.66	-1.70635
1865.91	0.195282
1866.16	-0.766293
1866.41	-0.774603
1866.66	-3.64153
1866.91	1.11335
1867.16	-0.799786
1867.41	-2.71118
1867.66	1.08701
1867.91	-0.821423
1868.16	2.02744
1868.41	-0.82736
1868.67	0.121765
1868.92	-2.73004
1869.17	-1.77858
1869.42	-0.828224
1869.67	-2.73078
1869.92	-0.830902
1870.17	0.118288
1870.42	1.0675
1870.67	0.115734
1870.92	2.01549
1871.17	-0.836498
1871.42	-0.837074
1871.67	-3.68972
1871.92	-3.69191
1872.17	-1.79498
1872.42	0.102333
1872.68	-2.74956
1872.93	1.04554
1873.18	2.93978
1873.43	0.0881901
1873.68	0.0869083
1873.93	-1.81356
1874.18	1.03075
1874.43	-1.82046
1874.68	-0.876286
1874.93	0.0669174
1875.18	-4.67994
1875.43	0.0552044
1875.68	-0.898693
1875.93	2.88337
1876.18	-1.86423
1876.43	-3.76454
1876.68	0.960949
1876.93	1.90127
1877.18	0.951763
1877.43	-0.00480652
1877.68	-0.0176811
1877.93	2.78964
1878.18	-0.0254059
1878.44	0.996286
1878.69	0.0192127
1878.93	0.955688
1879.19	-1.88584
1879.44	1.91915
1879.69	1.92893
1879.94	0.974405
1880.19	0.967281
1880.44	-0.927994
1880.69	-0.929911
1880.94	-0.926128
1881.19	-1.87789
1881.44	0.960665
1881.69	-2.83412
1881.94	0.939878
1882.19	-0.962255
1882.44	-1.91823
1882.69	-1.92964
1882.94	-0.999594
1883.19	-0.0624466
1883.44	0.864677
1883.69	2.90343
1883.94	-0.0330658
1884.19	3.68239
1884.44	-0.0862694
1884.69	-1.01791
1884.94	-0.0865135
1885.19	-3.85111
1885.44	-1.95657
1885.69	-0.0676861
1885.94	-1.95311
1886.19	-1.94481
1886.44	-0.996922
1886.69	0.894279
1886.94	-2.88623
1887.19	1.8255
1887.44	0.875896
1887.69	-0.0734825
1887.94	-0.0793419
1888.19	-0.0854359
1888.44	-0.0920849
1888.69	-0.100973
1888.94	-1.99321
1889.19	-0.116339
1889.44	4.58412
1889.69	-1.06926
1889.94	-1.07087
1890.19	-2.01402
1890.44	-0.130442
1890.69	0.814884
1890.94	-0.12295
1891.19	-1.06438
1891.43	-3.89168
1891.68	-1.06882
1891.94	-1.07015
1892.18	-0.130711
1892.43	-2.95778
1892.68	1.74873
1892.93	3.62751
1893.18	0.797598
1893.43	-2.03395
1893.68	1.71648
1893.93	1.70459
1894.18	0.760965
1894.43	-2.0567
1894.68	1.69425
1894.93	0.749697
1895.18	-2.07136
1895.43	-1.13244
1895.68	-3.01117
1895.93	-0.191521
1896.18	0.749559
1896.43	-0.18866
1896.68	0.753601
1896.93	0.75663
1897.18	1.69956
1897.42	0.760824
1897.68	1.70233
1897.92	-2.06044
1898.17	3.5823
1898.42	0.757849
1898.67	-0.186314
1898.92	0.749306
1899.17	-0.196854
1899.42	-1.14314
1899.67	0.731388
1899.92	0.727934
1900.17	2.60298
1900.42	-2.09806
1900.67	0.718121
1900.92	0.717577
1901.16	2.59747
1901.41	0.720816
1901.66	2.6037
1901.91	-1.15312
1902.16	0.730013
1902.41	-1.14711
1902.66	3.5591
1902.91	0.736109
1903.16	0.733009
1903.41	-2.09199
1903.66	0.725664
1903.91	-0.217825
1904.16	-2.10097
1904.41	0.71747
1904.65	-0.224689
1904.9	0.713417
1905.15	0.710928
1905.4	1.6488
1905.65	-1.17305
1905.9	1.64452
1906.15	-0.24258
1906.4	-1.19036
1906.65	3.50208
1906.9	1.61947
1907.14	2.55493
1907.39	-0.265211
1907.64	2.55074
1907.89	1.61161
1908.14	2.55235
1908.39	-0.262924
1908.64	-1.20213
1908.89	-2.14199
1909.14	1.61712
1909.39	2.55903
1909.63	-2.13771
1909.88	-1.19426
1910.13	-1.18989
1910.38	2.57845
1910.63	1.64393
1910.88	1.64936
1911.13	0.711243
1911.38	1.65497
1911.62	3.53961
1911.87	-3.0548
1912.12	-0.230473
1912.37	0.708557
1912.62	-0.236267
1912.87	0.703621
1913.12	1.64391
1913.37	-0.241224
1913.61	-3.06768
1913.86	2.58567
1914.11	5.41777
1914.36	-1.17381
1914.61	-1.17082
1914.86	2.60384
1915.11	1.66411
1915.36	-0.219923
1915.6	-1.16213
1915.85	-2.10618
1916.1	0.722679
1916.35	1.6629
1916.6	-1.17037
1916.85	1.65537
1917.1	0.705898
1917.34	4.47259
1917.59	0.695858
1917.84	0.692049
1918.09	-0.253578
1918.34	-0.254646
1918.59	1.63237
1918.83	-0.250496
1919.08	-0.246634
1919.33	3.53247
1919.58	1.65073
1919.83	-0.23032
1920.08	0.719984
1920.33	0.722429
1920.57	-0.223158
1920.82	3.55212
1921.07	0.717455
1921.32	0.721279
1921.57	-0.220114
1921.81	-0.218639
1922.06	-0.217447
1922.31	-0.217278
1922.56	-1.16469
1922.81	-1.1679
1923.06	1.66411
1923.31	-2.12248
1923.55	0.710049
1923.8	0.706644
1924.05	0.702951
1924.3	-2.1369
1924.55	-0.252163
1924.79	-0.256363
1925.04	-0.258871
1925.29	1.6298
1925.54	3.52081
1925.79	0.688904
1926.04	-4.03329
1926.28	2.5893
1926.53	0.70175
1926.78	-2.13263
1927.03	-2.12852
1927.28	1.66036
1927.52	0.7152
1927.77	2.61043
1928.02	1.66456
1928.27	-0.229015
1928.52	-1.17586
1928.76	3.56074
1929.01	3.56219
1929.26	-3.06993
1929.51	1.67015
1929.76	0.725332
1930	0.730255
1930.25	1.68255
1930.5	-1.15897
1930.75	-1.15599
1931	-2.10187
1931.24	-1.15279
1931.49	-0.204559
1931.74	-0.207899
1931.99	-1.16161
1932.24	1.68143
1932.48	-0.221527
1932.73	-1.17503
1932.98	-1.17986
1933.23	-3.07994
1933.47	1.65882
1933.72	-3.0848
1933.97	0.714188
1934.22	0.722841
1934.46	-1.16499
1934.71	-4.00206
1934.96	0.768839
1935.21	-3.02659
1935.46	-2.06457
1935.7	5.57052
1935.95	-2.05274
1936.2	0.792583
1936.45	0.78862
1936.69	-0.167566
1936.94	1.73381
1937.19	1.72737
1937.44	-1.13733
1937.68	5.52273
1937.93	-0.197052
1938.18	-0.202616
1938.43	-1.16035
1938.68	-3.06576
1938.92	-0.205313
1939.17	-1.15684
1939.42	2.65362
1939.67	1.70325
1939.91	1.70436
1940.16	-2.10482
1940.41	1.70539
1940.66	-4.00925
1940.9	0.759443
1941.15	-2.08992
1941.4	-2.08458
1941.64	-2.08641
1941.89	-1.13647
1942.14	0.762398
1942.39	-0.205603
1942.63	-0.199936
1942.88	1.72852
1943.13	-1.13249
1943.38	-1.13351
1943.62	2.6747
1943.87	-0.199865
1944.12	0.744953
1944.37	1.71115
1944.61	1.71421
1944.86	-1.1472
1945.11	0.765482
1945.35	0.769005
1945.6	-1.13843
1945.85	-0.179699
1946.1	-1.13289
1946.34	1.73733
1946.59	0.782681
1946.84	1.73966
1947.09	1.73922
1947.33	-0.175898
1947.58	-1.13583
1947.83	-0.183428
1948.07	-1.14196
1948.32	-1.14394
1948.57	-0.189705
1948.82	2.67526
1949.06	3.63081
1949.31	-0.192057
1949.56	2.68003
1949.8	1.72645
1950.05	1.73037
1950.3	0.777233
1950.54	1.74223
1950.79	-1.1236
1951.04	-0.15992
1951.29	-1.11251
1951.53	-2.06544
1951.78	0.818825
1952.03	-0.136305
1952.27	-3.01435
1952.52	-1.0929
1952.77	-2.05193
1953.01	-2.05444
1953.26	1.78952
1953.51	1.7935
1953.76	-1.09625
1954	-1.10552
1954.25	-0.160402
1954.49	-3.05091
1954.74	-3.06211
1954.99	0.760441
1955.24	-1.16038
1955.48	3.62691
1955.73	-0.204189
1955.98	0.75798
1956.22	-4.02819
1956.47	0.779114
1956.72	-0.176216
1956.96	-3.05135
1957.21	0.790806
1957.46	1.75461
1957.7	2.71828
1957.95	1.76022
1958.2	-1.12116
1958.44	-1.12086
1958.69	-0.16003
1958.94	2.72293
1959.18	-1.12521
1959.43	-1.13077
1959.68	-3.05617
1959.92	-2.09776
1960.17	-1.14169
1960.42	-2.10707
1960.66	4.61106
1960.91	-1.15631
1961.16	0.75835
1961.4	-3.08671
1961.65	1.70752
1961.9	2.66318
1962.14	-1.17643
1962.39	-3.09647
1962.63	3.62098
1962.88	1.70075
1963.13	3.61978
1963.37	0.739368
1963.62	-1.18143
1963.87	0.737598
1964.11	0.737015
1964.36	-0.22212
1964.61	-0.22151
1964.85	-3.10431
1965.1	-3.10736
1965.35	1.69241
1965.59	-0.230434
1965.84	-2.15205
1966.08	-1.1915
1966.33	1.69218
1966.58	-2.14723
1966.82	3.62097
1967.07	1.70102
1967.32	-0.220114
1967.56	1.70002
1967.81	0.737415
1968.05	0.73774
1968.3	0.737
1968.55	2.65915
1968.79	3.61848
1969.04	-0.230494
1969.29	0.725393
1969.53	-2.16418
1969.78	2.6312
1970.02	2.62213
1970.27	0.694414
1970.52	0.688351
1970.76	-2.19539
1971.01	5.4761
1971.25	-0.285814
1971.5	3.54743
1971.75	1.62512
1971.99	0.662701
1972.24	0.662752
1972.48	1.62263
1972.73	1.62231
1972.98	-1.25749
1973.22	0.65782
1973.47	3.53004
1973.71	1.60532
1973.96	1.59968
1974.21	4.471
1974.45	2.5503
1974.7	1.58943
1974.94	3.50507
1975.19	1.58744
1975.44	1.58786
1975.68	-0.328173
1975.93	0.632452
1976.17	1.59294
1976.42	1.59385
1976.66	2.55311
1976.91	3.5118
1977.16	0.632776
1977.4	1.58994
1977.65	0.627855
1977.89	1.58307
1978.14	2.53708
1978.39	4.44937
1978.63	4.44453
1978.88	3.48186
1979.12	4.43743
1979.37	0.602114
1979.61	1.55994
1979.86	5.39281
1980.1	6.35111
1980.35	2.51591
1980.6	4.4293
1980.84	4.42344
1981.09	2.50151
1981.33	2.49817
1981.58	4.40942
1981.82	3.44748
1982.07	3.44451
1982.31	-0.388683
1982.56	8.22874
1982.81	4.39256
1983.05	5.34445
1983.3	3.42262
1983.54	1.50033
1983.79	0.537439
1984.03	2.44733
1984.28	1.48783
1984.52	7.22319
1984.77	0.524469
1985.02	4.34656
1985.26	1.47269
1985.51	1.46563
1985.75	5.28469
1986	4.32784
1986.24	3.37241
1986.49	3.3746
1986.73	3.37754
1986.98	2.42222
1987.22	-1.40458
1987.47	3.37703
1987.71	0.503407
1987.96	4.31928
1988.21	4.3097
1988.45	2.38874
1988.7	2.3773
1988.94	5.20574
1989.19	4.27428
1989.43	5.19814
1989.68	3.31108
1989.92	5.07215
1990.17	5.13625
1990.41	6.02792
1990.66	5.20324
1990.9	6.94481
1991.15	5.17026
1991.39	4.54497
1991.64	5.6999
1991.88	3.02579
1992.13	2.94533
1992.37	5.94615
1992.62	4.07126
1992.86	4.20406
1993.11	3.57377
1993.35	5.12557
1993.6	5.68701
1993.84	5.07702
1994.09	6.19977
1994.33	1.24382
1994.58	6.92068
1994.82	7.20796
1995.07	2.95259
1995.31	8.27476
1995.56	5.39491
1995.8	5.06124
1996.05	4.32224
1996.29	2.38281
1996.54	8.41895
1996.78	6.37697
1997.03	5.46184
1997.27	4.56898
1997.52	7.5424
1997.76	4.29764
1998.01	5.28
1998.25	6.10074
1998.5	6.02577
1998.74	6.67164
1998.99	6.72477
1999.23	5.54294
1999.48	5.77492
1999.72	8.85364
1999.97	5.7806
2000.21	5.99115
2000.46	6.10009
2000.7	6.43488
2000.95	6.07775
2001.19	4.63282
2001.43	4.73263
2001.68	6.772
2001.92	7.91456
2002.17	7.1748
2002.41	8.04042
2002.66	7.82856
2002.9	6.52308
2003.15	5.31253
2003.39	6.75129
2003.64	7.32171
2003.88	6.39438
2004.13	8.69246
2004.37	6.3619
2004.61	4.97659
2004.86	5.97303
2005.1	4.98076
2005.35	7.15357
2005.59	7.66035
2005.84	5.97447
2006.08	5.24315
2006.33	7.127
2006.57	7.1181
2006.81	7.13646
2007.06	7.2511
2007.3	6.83603
2007.55	6.04739
2007.79	6.0301
2008.04	4.94793
2008.28	7.73571
2008.53	7.98295
2008.77	6.58752
2009.01	6.95219
2009.26	6.61406
2009.5	9.35438
2009.75	7.46888
2009.99	6.49404
2010.24	5.12744
2010.48	9.93378
2010.73	7.31182
2010.97	4.34089
2011.21	1.63772
2011.46	8.41275
2011.7	10.9451
2011.95	9.08124
2012.19	4.71718
2012.43	9.32894
2012.68	6.50241
2012.92	4.6181
2013.17	4.61381
2013.42	6.48813
2013.67	7.41638
2013.91	9.28989
2014.16	11.1599
2014.41	6.44949
2014.66	4.55846
2014.9	9.24078
2015.15	4.54563
2015.4	10.1785
2015.64	5.49035
2015.89	7.37316
2016.14	3.62169
2016.39	7.37527
2016.63	7.38308
2016.88	7.40403
2017.13	8.3488
2017.37	4.5887
2017.62	8.34472
2017.87	5.52068
2018.11	6.45308
2018.36	5.50514
2018.61	6.43411
2018.86	7.3636
2019.1	4.54148
2019.35	8.28225
2019.6	6.39904
2019.84	4.52138
2020.09	1.7089
2020.34	6.39144
2020.58	5.45533
2020.83	5.45521
2021.08	8.26489
2021.33	4.52124
2021.57	6.39717
2021.82	0.778498
2022.07	1.71527
2022.31	6.39706
2022.56	2.64894
2022.81	2.64585
2023.05	3.57756
2023.3	6.37933
2023.55	6.37495
2023.8	2.62915
2024.04	3.56059
2024.29	5.42653
2024.54	3.55346
2024.78	4.4815
2025.03	2.60623
2025.27	3.53383
2025.52	0.727362
2025.77	5.38859
2026.02	2.58424
2026.26	1.64511
2026.51	3.51394
2026.76	1.65779
2027	-0.194679
2027.25	7.29658
2027.5	5.45077
2027.74	2.65842
2027.99	6.39918
2028.23	5.44904
2028.48	4.49314
2028.73	0.70256
2028.98	1.69216
2029.22	1.77176
2029.47	5.4729
2029.72	7.37086
2029.96	6.39022
2030.21	3.56174
2030.45	3.53682
2030.7	3.53707
2030.95	3.51961
2031.19	0.740131
2031.44	3.5533
2031.69	4.48437
2031.93	2.61999
2032.18	3.5553
2032.43	2.63027
2032.67	4.50654
2032.92	2.64897
2033.17	2.65796
2033.41	4.53451
2033.66	2.67157
2033.91	3.61489
2034.15	3.61987
2034.4	0.805273
2034.64	-2.00907
2034.89	4.50651
2035.14	1.70332
2035.38	5.4472
2035.63	2.65673
2035.87	2.6711
2036.12	3.62389
2036.37	0.831593
2036.61	3.63832
2036.86	3.628
2037.11	1.76082
2037.35	4.57293
2037.6	0.834307
2037.84	3.64012
2038.09	2.70476
2038.34	-0.100573
2038.58	0.833155
2038.83	6.43893
2039.08	5.50225
2039.32	0.828993
2039.57	0.827351
2039.81	0.825758
2040.06	2.6905
2040.31	2.6861
2040.55	0.815561
2040.8	3.61097
2041.04	2.67463
2041.29	3.60446
2041.54	6.3994
2041.78	2.67022
2042.03	0.806404
2042.27	5.46603
2042.52	2.66912
2042.77	3.59825
2043.01	1.73504
2043.26	2.66867
2043.5	-0.12265
2043.75	2.68079
2044	1.75934
2044.24	1.77029
2044.49	1.77566
2044.73	1.77673
2044.98	-0.0916729
2045.23	-1.0306
2045.47	3.61227
2045.72	3.64281
2045.96	1.78637
2046.21	2.75313
2046.45	2.79168
2046.7	1.83984
2046.95	-0.980791
2047.19	0.874537
2047.44	4.61126
2047.68	2.74006
2047.93	0.85973
2048.17	-0.0745316
2048.42	1.79301
2048.67	-1.00051
2048.91	3.66471
2049.16	-0.992802
2049.4	0.879675
2049.65	0.88633
2049.89	0.89451
2050.14	-0.0292225
2050.39	-0.95537
2050.63	-0.947769
2050.88	3.72856
2051.12	1.86364
2051.37	0.930471
2051.61	1.86274
2051.86	0.92514
2052.11	1.86109
2052.35	1.86396
2052.6	1.86969
2052.84	0.939127
2053.09	0.00997734
2053.33	0.9498
2053.58	2.82517
2053.82	0.0294456
2054.07	1.91142
2054.31	0.0473709
2054.56	4.72961
2054.8	1.9266
2055.05	-0.877655
2055.3	1.9301
2055.54	2.86648
2055.79	1.92862
2056.03	1.92877
2056.28	1.93033
2056.52	-0.873713
2056.77	1.93118
2057.01	2.86714
2057.26	0.0654869
2057.5	2.87334
2057.75	1.00807
2058	-3.6615
2058.24	1.01906
2058.49	0.089613
2058.73	0.0971127
2058.98	1.03996
2059.22	1.98285
2059.47	1.05283
2059.71	-1.75154
2059.96	1.06071
2060.2	-0.808512
2060.45	2.00017
2060.69	-1.74409
2060.94	3.87188
2061.18	-0.802378
2061.43	-0.796906
2061.67	0.143986
2061.92	1.08393
2062.16	2.02346
2062.41	-2.65451
2062.65	2.96784
2062.9	-0.772892
2063.14	0.169235
2063.39	1.11244
2063.63	1.11875
2063.88	-1.68694
2064.12	3.004
2064.37	2.07151
2064.61	1.1388
2064.86	3.0191
2065.1	0.212412
2065.35	0.219927
2065.59	0.228806
2065.84	0.237206
2066.08	-0.693743
2066.33	0.251757
2066.57	2.13546
2066.82	-0.677748
2067.06	-0.672743
2067.31	-1.60688
2067.55	1.2157
2067.8	2.16094
2068.04	0.28825
2068.29	-1.58552
2068.53	0.299164
2068.78	1.24333
2069.02	-1.57076
2069.27	-2.50758
2069.51	-1.56697
2069.76	1.25016
2070	2.18361
2070.25	3.12221
2070.49	0.309771
2070.73	1.2607
2070.98	2.21433
2071.22	-0.593222
2071.47	2.23019
2071.71	-2.47436
2071.96	0.372036
2072.2	0.383188
2072.45	-0.556719
2072.69	-0.554926
2072.94	0.389267
2073.18	-0.550739
2073.43	-3.37215
2073.67	0.396074
2073.92	-1.48286
2074.16	0.404057
2074.4	-1.4748
2074.65	0.413893
2074.89	0.420834
2075.14	0.4293
2075.38	-0.503124
2075.63	1.39432
2075.87	1.40851
2076.12	2.36305
2076.36	2.37035
2076.6	-2.34584
2076.85	0.490374
2077.09	0.491543
2077.34	-2.34046
2077.58	-1.39744
2077.83	2.37012
2078.07	2.371
2078.31	0.490721
2078.56	-0.444984
2078.8	1.44686
2079.05	-1.37844
2079.29	2.40207
2079.54	0.522842
2079.78	-1.35319
2080.03	-2.29076
2080.27	1.49437
2080.51	0.55624
2080.76	1.50722
2081	-0.379086
2081.25	-1.32248
2081.49	-2.26516
2081.74	3.40669
2081.98	-1.31418
2082.22	-0.366606
2082.47	-1.30656
2082.71	-0.356813
2082.96	-1.29728
2083.2	1.54162
2083.45	1.54476
2083.69	-0.342556
2083.93	-1.28476
2084.18	-0.336281
2084.42	-2.22244
2084.67	-0.329245
2084.91	0.619526
2085.15	-0.321312
2085.4	-0.317633
2085.64	-0.314173
2085.89	-1.25558
2086.13	0.639408
2086.37	0.648016
2086.62	-0.287781
2086.86	-4.0634
2087.11	0.67153
2087.35	0.677532
2087.59	-0.261885
2087.84	-2.14921
2088.08	-1.19913
2088.32	2.59031
2088.57	-4.03044
2088.81	-2.13325
2089.06	-0.235708
2089.3	-4.0175
2089.54	1.6688
2089.79	-4.00542
2090.03	-0.209229
2090.28	2.63791
2090.52	-1.14654
2090.76	1.7005
2091.01	-3.03127
2091.25	-1.1307
2091.5	-0.177383
2091.74	-1.11953
2091.98	-0.163233
2092.23	-1.10241
2092.47	-0.14439
2092.72	5.55914
2092.96	-2.02302
2093.2	-0.115665
2093.45	2.74216
2093.69	-1.99888
2093.93	-0.0904655
2094.18	-0.0828476
2094.42	0.87508
2094.66	0.879959
2094.91	-0.0671215
2095.15	0.886395
2095.39	0.888676
2095.64	0.889071
2095.88	-0.0611534
2096.13	-2.91064
2096.37	0.89152
2096.61	1.84378
2096.86	-1.95313
2097.1	0.899708
2097.34	1.85058
2097.59	-0.998655
2097.83	-1.94789
2098.07	-1.94556
2098.32	0.905174
2098.56	-0.0413055
2098.8	4.70534
2099.05	-1.93474
2099.29	0.915901
2099.53	3.76564
2099.78	-0.0276413
2100.02	-1.92221
2100.27	0.928755
2100.51	0.933153
2100.75	-0.960188
2101	1.89297
2101.24	1.90184
2101.48	-3.7881
2101.73	-3.78246
2101.97	0.971352
2102.21	-0.924498
2102.45	-0.921148
2102.7	0.0325584
2102.94	-1.86428
2103.18	-0.913609
2103.43	1.93477
2103.67	-3.75957
2103.92	0.040926
2104.16	2.89134
2104.4	2.89557
2104.64	0.053215
2104.89	1.00941
2105.13	0.0665493
2105.37	-1.82655
2105.62	1.03007
2105.86	-1.81216
2106.1	-1.80512
2106.35	0.101492
2106.59	2.00835
2106.83	0.11202
2107.08	1.06733
2107.32	0.122227
2107.56	-0.824114
2107.8	2.9805
2108.05	3.93068
2108.29	1.07788
2108.53	-1.77375
2108.78	-0.824757
2109.02	-0.824703
2109.26	-0.822348
2109.51	0.131746
2109.75	-0.809378
2109.99	1.098
2110.23	1.10205
2110.48	2.05593
2110.72	2.05972
2110.96	2.0635
2111.21	2.06738
2111.45	0.171045
2111.69	-1.72625
2111.93	-1.72475
2112.18	0.176723
2112.42	0.179424
2112.66	3.03207
2112.91	-2.66037
2113.15	1.14445
2113.39	4.00048
2113.63	-0.741074
2113.88	0.216803
2114.12	-0.728039
2114.36	0.225166
2114.61	1.17768
2114.85	1.18109
2115.09	-2.61572
2115.33	1.19012
2115.58	-2.60859
2115.82	-1.65587
2116.06	-3.5538
2116.31	-2.60112
2116.55	-2.60052
2116.79	-0.700253
2117.03	-1.64777
2117.28	-0.695234
2117.52	-0.692173
2117.76	2.16126
2118	0.263884
2118.25	-1.63404
2118.49	0.265417
2118.73	1.21324
2118.97	-0.686174
2119.22	-0.686443
2119.46	-2.58298
2119.7	-1.63446
2119.94	-1.63413
2120.19	-1.63344
2120.43	2.15817
2120.67	-0.681715
2120.91	-0.677416
2121.16	4.0679
2121.4	-0.665258
2121.64	0.290527
2121.88	0.298903
2122.13	-0.641651
2122.37	-0.634186
2122.61	-0.627132
2122.85	0.328379
2123.1	-0.614485
2123.34	0.340603
2123.58	-1.55279
2123.82	1.2998
2124.07	-2.49529
2124.31	0.354315
2124.55	1.30391
2124.79	-5.33912
2125.03	2.24687
2125.28	0.344788
2125.52	0.340219
2125.76	-0.609701
2126	0.335501
2126.25	0.333748
2126.49	-2.50666
2126.73	0.332304
2126.97	2.22408
2127.21	-1.55988
2127.46	-0.61409
2127.7	2.22458
2127.94	-4.39111
2128.18	3.17506
2128.43	0.340485
2128.67	0.342968
2128.91	-0.598555
2129.15	-0.594799
2129.39	3.18907
2129.64	2.24583
2129.88	2.24809
2130.12	1.30576
2130.36	1.30844
2130.6	1.3109
2130.85	0.368126
2131.09	-1.51966
2131.33	-0.573418
2131.57	-0.572407
2131.81	-0.571579
2132.06	1.31803
2132.3	-5.28947
2132.54	-0.567047
2132.78	-2.45468
2133.02	2.26449
2133.27	-0.56476
2133.51	0.382172
2133.75	-0.557129
2133.99	2.27818
2134.23	0.394547
2134.48	1.34268
2134.72	1.34684
2134.96	1.34987
2135.2	0.409119
2135.44	-0.531603
2135.68	-0.528973
2135.93	-1.47078
2136.17	0.416636
2136.41	-2.41488
2136.65	0.412354
2136.89	1.35579
2137.14	0.417406
2137.38	0.421652
2137.62	3.25388
2137.86	0.430998
2138.1	2.32471
2138.34	0.440508
2138.59	0.438644
2138.83	-1.44699
2139.07	1.38774
2139.31	-1.43168
2139.55	0.462202
2139.79	-2.37208
2140.03	0.452662
2140.28	0.452829
2140.52	-1.43088
2140.76	1.39643
2141	1.39768
2141.24	-3.3097
2141.49	-0.48221
2141.73	-2.36219
2141.97	0.462753
2142.21	0.461927
2142.45	-0.477655
2142.69	-2.35694
2142.93	0.473925
2143.18	-0.461493
2143.42	-0.443766
2143.66	0.494574
2143.9	0.451303
2144.14	1.39414
2144.38	1.40107
2144.62	0.471022
2144.87	-2.34086
2145.11	1.42832
2145.35	0.480177
2145.59	-0.455263
2145.83	0.489031
2146.07	-3.2697
2146.31	-0.447277
2146.55	-1.38568
2146.8	1.43615
2147.04	0.49785
2147.28	-1.3805
2147.52	-1.37968
2147.76	1.43993
2148	-2.31716
2148.24	0.502411
2148.48	0.503372
2148.73	-2.3131
2148.97	-2.31203
2149.21	2.38299
2149.45	-1.37281
2149.69	0.503225
2149.93	-3.25369
2150.17	-2.31618
2150.42	-0.442238
2150.66	-0.442759
2150.9	4.24498
2151.14	-1.37612
2151.38	-0.43433
2151.62	1.44669
2151.86	3.32692
2152.1	-0.417831
2152.34	-1.3515
2152.58	1.46779
2152.83	2.40569
2153.07	-1.34507
2153.31	-2.28272
2153.55	2.40449
2153.79	0.531076
2154.03	1.4695
2154.27	1.46912
2154.51	1.46724
2154.75	-4.15554
2154.99	2.39419
2155.24	1.45321
2155.48	-3.2292
2155.72	1.44396
2155.96	-2.29789
2156.2	0.504366
2156.44	-4.16783
2156.68	-2.29809
2156.92	0.506485
2157.16	-2.29363
2157.4	0.511648
2157.64	2.38419
2157.89	1.45543
2158.13	-0.407316
2158.37	-2.27112
2158.61	-2.26773
2158.85	0.539009
2159.09	0.540884
2159.33	-0.392654
2159.57	0.542292
2159.81	3.34492
2160.05	-0.393269
2160.29	2.40676
2160.53	0.536951
2160.77	0.535479
2161.01	-2.26536
2161.25	0.535025
2161.5	1.46974
2161.74	2.40355
2161.98	-3.19356
2162.22	2.40597
2162.46	-2.25616
2162.7	2.41104
2162.94	-2.25134
2163.18	2.41393
2163.42	-0.384394
2163.66	-0.383844
2163.9	1.48184
2164.14	-0.382631
2164.38	0.55002
2164.62	-2.24779
2164.86	2.40975
2165.11	2.40887
2165.35	-0.383131
2165.59	0.552822
2165.83	-1.30826
2166.07	1.48993
2166.31	-0.371269
2166.55	1.49254
2166.79	0.561104
2167.03	1.49218
2167.27	0.559277
2167.51	0.558825
2167.75	-0.374151
2167.99	2.41499
2168.23	-0.383348
2168.47	-1.3187
2168.71	0.5403
2168.95	0.542082
2169.19	-0.38438
2169.43	-1.30972
2169.67	0.555885
2169.91	1.49353
2170.15	0.571712
2170.39	0.580984
2170.63	-0.343977
2170.87	-1.27162
2171.11	-0.339436
2171.35	-0.340778
2171.59	1.52165
2171.83	-0.345261
2172.07	-0.35544
2172.31	2.42889
2172.56	-2.21997
2172.79	0.567068
2173.04	-0.362551
2173.28	0.568024
2173.51	-1.28847
2173.76	-0.357676
2174	-0.354488
2174.24	2.43748
2174.48	-0.346783
2174.72	-2.20289
2174.96	-2.2008
2175.2	-1.26965
2175.44	-1.26808
2175.68	2.45001
2175.92	0.591993
2176.16	-0.336061
2176.4	-2.19357
2176.64	-0.334837
2176.88	1.52216
2177.12	-4.0508
2177.36	0.595581
2177.6	-1.26009
2177.84	0.59985
2178.08	0.601185
2178.32	-0.325418
2178.55	-2.1832
2178.8	0.600235
2179.03	0.598213
2179.28	1.52782
2179.52	-0.326668
2179.75	0.603708
2180	-0.322998
2180.23	-1.24999
2180.47	1.53696
2180.71	-0.318987
2180.95	0.609861
2181.19	-1.24651
2181.43	2.4679
2181.67	0.611578
2181.91	-0.317293
2182.15	0.610273
2182.39	-0.317263
2182.63	-0.318077
2182.87	-0.31831
2183.11	0.609207
2183.35	0.607048
2183.59	-2.1777
2183.83	0.600344
2184.07	1.52469
2184.31	-1.25716
2184.55	-0.331638
2184.79	-0.331127
2185.03	0.597328
2185.27	-2.17959
2185.51	0.603081
2185.75	2.4594
2185.99	1.53622
2186.23	-0.313507
2186.47	-1.23642
2186.7	-0.30488
2186.95	-2.15415
2187.18	1.56365
2187.42	0.642242
2187.66	-1.20838
2187.9	0.653828
2188.14	-0.27284
2188.38	-2.13101
2188.62	-0.27549
2188.86	-0.27779
2189.1	0.647699
2189.34	0.644346
2189.58	-2.14271
2189.82	-0.292023
2190.06	1.55844
2190.3	0.629885
2190.54	2.48405
2190.78	-0.295525
2191.01	1.56107
2191.25	1.56361
2191.49	-1.21695
2191.73	-0.287868
2191.97	-1.21283
2192.21	-0.283079
2192.45	-2.13563
2192.69	3.43181
2192.93	2.50693
2193.17	2.51113
2193.41	2.51546
2193.65	-3.9773
2193.89	0.668222
2194.13	-0.251921
2194.36	1.61564
2194.6	-2.09539
2194.84	0.697128
2195.08	-0.2328
2195.32	2.55442
2195.56	1.62362
2195.8	1.62128
2196.04	0.688686
2196.28	0.684128
2196.52	1.60688
2196.76	0.673103
2197	2.52513
2197.23	-1.18936
2197.47	1.59138
2197.71	1.58907
2197.95	-0.265324
2198.19	-2.1194
2198.43	-0.261936
2198.67	-0.257299
2198.91	1.60381
2199.15	0.681608
2199.38	-1.16908
2199.62	-1.16386
2199.86	-0.22868
2200.1	0.707104
2200.34	6.29688
2200.58	1.65711
2200.82	-1.12665
2201.06	-0.188169
2201.3	0.749041
2201.54	-1.11
2201.77	-0.184967
2202.01	-1.13309
2202.25	-1.16768
2202.49	1.59089
2202.73	0.675493
2202.97	-1.15158
2203.21	-2.06873
2203.45	1.64701
2203.68	3.50276
2203.92	2.59072
2204.16	0.7887
2204.4	-0.166237
2204.64	3.56219
2204.88	3.56591
2205.12	0.755724
2205.36	-1.12275
2205.59	0.725002
2205.83	2.57453
2206.07	2.57153
2206.31	-0.217175
2206.55	1.64673
2206.79	-0.212582
2207.03	-3.00796
2207.26	-0.218004
2207.5	0.714384
2207.74	-2.07233
2207.98	2.58191
2208.22	-1.13551
2208.46	-0.201456
2208.7	2.59446
2208.93	2.59801
2209.17	1.66966
2209.41	2.60278
2209.65	-0.190029
2209.89	-0.190096
2210.13	3.53437
2210.36	2.60362
2210.6	-1.11981
2210.84	0.745504
2211.08	-1.11528
2211.32	1.68285
2211.56	0.753479
2211.8	0.756287
2212.03	0.759972
2212.27	1.69625
2212.51	1.69884
2212.75	0.767105
2212.99	-0.167288
2213.23	-1.10213
2213.46	-0.171474
2213.7	-0.174644
2213.94	-2.04275
2214.18	-1.10995
2214.42	-1.10713
2214.66	-0.167833
2214.89	-2.96151
2215.13	0.773296
2215.37	2.64144
2215.61	2.64228
2215.85	0.775454
2216.08	2.64272
2216.32	-0.15871
2216.56	-1.09316
2216.8	-1.09418
2217.04	-1.09552
2217.28	-0.163198
2217.51	-2.03098
2217.75	-1.0974
2217.99	1.7037
2218.23	-3.89895
2218.47	-0.165174
2218.7	0.768616
2218.94	0.769773
2219.18	2.63953
2219.42	2.64244
2219.66	-0.157347
2219.9	1.71267
2220.13	-0.154682
2220.37	0.78093
2220.61	2.64894
2220.85	-1.09099
2221.09	-0.157843
2221.32	-0.160427
2221.56	-0.165375
2221.8	-1.10486
2222.04	-2.04313
2222.27	-0.179749
2222.51	-0.182819
2222.75	5.4166
2222.99	-2.98444
2223.23	-0.182211
2223.46	1.68711
2223.7	-1.11249
2223.94	0.758934
2224.18	-1.10562
2224.42	-1.10148
2224.65	-2.96787
2224.89	2.64663
2225.13	-0.156445
2225.37	0.782061
2225.6	1.72159
2225.84	0.789869
2226.08	-2.01644
2226.32	-2.01422
2226.56	0.798729
2226.79	-0.136507
2227.03	-1.07108
2227.27	1.74331
2227.51	-0.129833
2227.74	-0.128836
2227.98	-0.128778
2228.22	-0.130348
2228.46	-1.07052
2228.69	1.73999
2228.93	-0.137636
2229.17	-1.07726
2229.41	0.795593
2229.64	1.73186
2229.88	-2.9543
2230.12	-1.0759
2230.36	-0.134985
2230.6	2.68184
2230.83	-1.06946
2231.07	0.810043
2231.31	-2.00398
2231.55	-0.123375
2231.78	-1.05976
2232.02	0.821253
2232.26	-0.116098
2232.5	-0.113956
2232.73	1.76844
2232.97	3.65131
2233.21	0.832552
2233.45	-0.106133
2233.68	2.71828
2233.92	-1.04339
2234.16	0.839935
2234.39	1.78193
2234.63	-1.04426
2234.87	1.7765
2235.11	-1.05045
2235.34	-1.05487
2235.58	0.818947
2235.82	-0.127558
2236.06	-1.06899
2236.29	3.63226
2236.53	-2.0108
2236.77	2.69122
2237	-1.0717
2237.24	-1.07232
2237.48	0.81181
2237.72	-2.95003
2237.95	-0.12163
2238.19	-1.05766
2238.43	-1.05285
2238.67	1.77761
2238.9	-0.104259
2239.14	-0.100477
2239.38	2.73447
2239.61	-2.92635
2239.85	-0.0991306
2240.09	0.840143
2240.33	-1.99558
2240.56	3.65555
2240.8	-1.06182
2241.04	1.77283
2241.27	1.77863
2241.51	1.77826
2241.75	-0.109222
2241.99	-1.99679
2242.22	2.72112
2242.46	0.833654
2242.7	-3.88554
2242.93	2.72276
2243.17	1.77747
2243.41	-1.05708
2243.64	-1.06099
2243.88	-1.06519
2244.12	0.819231
2244.36	-1.07039
2244.59	-2.0153
2244.83	0.816992
2245.07	-0.12343
2245.3	-2.0071
2245.54	-1.05821
2245.78	1.77937
2246.01	-2.94519
2246.25	1.78387
2246.49	1.78611
2246.72	0.841776
2246.96	-0.104147
2247.2	-1.0494
2247.43	-2.94129
2247.67	-0.102314
2247.91	0.843151
2248.14	-0.105331
2248.38	-0.108057
2248.62	0.835421
2248.85	0.83246
2249.09	-1.06289
2249.33	-2.01188
2249.56	2.71657
2249.8	2.71832
2250.04	-1.06688
2250.27	0.824053
2250.51	-0.126478
2250.75	0.81444
2250.98	2.70077
2251.22	-0.14327
2251.46	-0.148359
2251.69	-2.04367
2251.93	1.73528
2252.17	1.73418
2252.4	-1.10226
2252.64	-0.155802
2252.88	-2.04596
2253.11	-2.98906
2253.35	0.80409
2253.59	-1.08492
2253.82	0.813011
2254.06	-0.132105
2254.3	-3.92207
2254.53	-0.129169
2254.77	-1.07682
2255.01	-3.92296
2255.24	-0.13381
2255.48	-0.134825
2255.72	3.65607
2255.95	0.810373
2256.19	0.809294
2256.42	0.810587
2256.66	0.812225
2256.9	1.76237
2257.13	2.71262
2257.37	-0.133129
2257.61	-0.132151
2257.84	0.818146
2258.08	-1.08078
2258.32	-1.08172
2258.55	-2.03254
2258.79	-2.03341
2259.02	0.815672
2259.26	-1.08349
2259.5	-0.132757
2259.73	1.7675
2259.97	-2.03395
2260.2	-0.133179
2260.44	0.817324
2260.68	-0.133339
2260.91	2.71862
2261.15	-1.08358
2261.39	-1.08013
2261.62	1.77574
2261.86	-2.03101
2262.1	-1.08043
2262.33	0.8223
2262.57	0.822027
2262.8	1.77464
2263.04	-2.98329
2263.28	-1.07733
2263.51	-1.07475
2263.75	0.8342
2263.98	-0.114267
2264.22	-1.06266
2264.46	0.849716
2264.69	0.854364
2264.93	1.81253
2265.16	-0.0941372
2265.4	0.862703
2265.64	-1.04615
2265.87	-1.04743
2266.11	0.861946
2266.34	-0.09655
2266.58	-1.0573
2266.81	-1.06309
2267.05	1.79451
2267.29	-1.07463
2267.52	-0.125069
2267.76	0.824528
2267.99	0.819748
2268.23	0.813799
2268.47	-2.05179
2268.7	-0.147594
2268.94	0.80471
2269.17	0.805521
2269.41	-3.00774
2269.65	-3.00558
2269.88	0.814524
2270.12	0.818388
2270.35	-0.131887
2270.59	-1.08337
2270.82	-0.126329
2271.06	1.78555
2271.3	-0.123661
2271.53	2.74604
2271.77	-2.03404
2272	-2.03352
2272.24	-0.11915
2272.47	-1.07566
2272.71	-1.07698
2272.95	-2.03462
2273.18	0.834894
2273.42	1.79117
2273.65	-1.08014
2273.89	-1.08088
2274.12	-2.99566
2274.36	-2.99656
2274.6	0.830999
2274.83	-0.12682
2275.07	-1.0847
2275.3	0.829536
2275.54	-3.00054
2275.77	0.828629
2276.01	3.69874
2276.24	0.827665
2276.48	0.830599
2276.72	0.833729
2276.95	1.79463
2277.18	-2.99533
2277.42	-2.99352
2277.66	3.72312
2277.89	0.851587
2278.13	-1.0621
2278.36	-0.0961456
2278.6	-0.0949287
2278.83	-0.0950584
2279.07	-2.9777
2279.3	-0.0984459
2279.54	-0.101046
2279.78	-1.06593
2280.01	0.84458
2280.24	-1.08135
2280.48	2.74965
2280.72	-0.133667
2280.95	-3.01508
2281.19	1.77492
2281.42	-0.145636
2281.66	-1.1078
2281.89	0.806105
2282.13	-0.15167
2282.36	-2.06893
2282.6	1.76709
2282.83	-3.02505
2283.07	-1.10445
2283.3	-0.142403
2283.54	-1.09825
2283.77	-3.97308
2284.01	-1.08612
2284.24	1.80272
2284.48	-2.03485
2284.71	0.853346
2284.95	0.854397
2285.19	-2.02853
2285.42	-2.02609
2285.65	-0.101301
2285.89	-1.0643
2286.12	-2.03125
2286.36	-0.114756
2286.59	0.84539
2286.83	-1.07803
2287.06	0.847795
2287.3	-1.06941
2287.54	-0.100895
2287.77	-1.06226
2288	-0.0982342
2288.24	0.869139
2288.47	-1.05994
2288.71	-1.06346
2288.94	4.71161
2289.18	1.81781
2289.41	1.81085
2289.65	1.80252
2289.88	4.68066
2290.12	0.824144
2290.35	-2.06366
2290.59	-1.10479
2290.82	-0.144217
2291.06	-1.106
2291.29	-1.1043
2291.53	2.74655
2291.76	1.79067
2292	3.71916
2292.23	0.834726
2292.47	-1.08807
2292.7	0.840284
2292.94	0.844124
2293.17	7.59111
2293.41	-3.00368
2293.64	-0.111031
2293.88	-0.109619
2294.11	2.78242
2294.34	0.85273
2294.58	-1.07743
2294.81	-0.117054
2295.05	-1.08434
2295.28	-0.124035
2295.52	-1.09009
2295.75	-1.09299
2295.99	-2.05863
2296.22	1.78992
2296.46	-2.06514
2296.69	1.77636
2296.93	-0.149242
2297.16	-2.07239
2297.39	-1.10816
2297.63	1.78212
2297.86	-3.02718
2298.1	-1.09723
2298.33	-1.09168
2298.57	-1.08817
2298.8	0.841431
2299.04	1.80892
2299.27	0.849758
2299.51	-2.03937
2299.74	-3.0012
2299.97	-3.96448
2300.21	-0.106247
2300.44	-1.07087
2300.68	-0.10671
2300.91	-0.104626
2301.15	-0.10153
2301.38	-2.02931
2301.61	0.868067
2301.85	2.79994
2302.08	-1.0606
2302.32	1.83472
2302.55	-2.9928
2302.79	-0.0983677
2303.02	-1.0629
2303.25	1.83226
2303.49	-0.0987911
2303.72	-2.99405
2303.96	0.866837
2304.19	-1.0614
2304.43	0.872547
2304.66	2.80695
2304.89	-0.0872555
2305.13	-0.0842857
2305.36	-1.04645
2305.6	-3.9424
2305.83	0.889498
2306.07	-2.00719
2306.3	0.894449
2306.53	-1.03569
2306.77	-1.03442
2307	0.89962
2307.24	0.899939
2307.47	-1.9997
2307.7	-1.03411
2307.94	-1.03562
2308.17	-0.0699711
2308.41	-2.00333
2308.64	-2.00398
2308.87	0.895069
2309.11	-0.0694618
2309.34	1.86668
2309.58	-0.0620766
2309.81	-0.0567245
2310.04	0.916891
2310.28	0.921879
2310.51	-0.0427246
2310.75	-1.00869
2310.98	0.92654
2311.21	-1.97636
2311.45	-0.044981
2311.68	-1.02079
2311.92	-0.064846
2312.15	-2.96681
2312.38	0.891714
2312.62	1.85524
2312.85	-1.04216
2313.08	0.886553
2313.32	-1.04228
2313.55	-1.03907
2313.79	0.897978
2314.02	1.87234
2314.25	-1.01838
2314.49	-1.97829
2314.72	-1.00544
2314.95	-0.0307007
2315.19	-2.92505
2315.42	1.91628
2315.66	1.91245
2315.89	-1.95894
2316.12	-2.92747
2316.36	1.90258
2316.59	-0.0387478
2316.82	1.88914
2317.06	-1.97444
2317.29	-1.0076
2317.52	0.926229
2317.76	-1.00238
2317.99	1.90176
2318.23	-0.0251827
2318.46	-0.029541
2318.69	0.934912
2318.93	2.86527
2319.16	2.86382
2319.39	-0.998693
2319.63	0.930845
2319.86	0.930687
2320.09	-1.96349
2320.33	3.82809
2320.56	0.93586
2320.79	2.86767
2321.03	6.73199
2321.26	0.946606
2321.5	4.8134
2321.73	4.81986
2321.96	1.9297
2322.2	4.83578
2322.43	5.81157
2322.66	6.78672
2322.9	3.89135
2323.13	4.85937
2323.36	5.82953
2323.6	7.76735
2323.83	7.7713
2324.06	12.6103
2324.3	8.74584
2324.53	9.71416
2324.76	10.6823
2325	15.5113
2325.23	15.5035
2325.46	15.4941
2325.7	25.1471
2325.93	23.21
2326.16	32.8591
2326.4	37.6776
2326.63	58.8994
2326.86	73.3581
2327.09	126.396
2327.33	188.09
2327.56	259.398
2327.79	292.139
2328.03	232.328
2328.26	157.127
2328.49	108.947
2328.73	69.4328
2328.96	41.4854
2329.19	30.8759
2329.43	22.1979
2329.66	14.4842
2329.89	14.4842
2330.13	5.81777
2330.36	12.5669
2330.59	3.89916
2330.82	4.86368
2331.06	6.79087
2331.29	3.90424
2331.52	2.94596
2331.76	1.98914
2331.99	0.069006
2332.22	3.93121
2332.46	-1.85161
2332.69	-0.888212
2332.92	2.00187
2333.16	-1.84906
2333.39	3.92901
2333.62	0.0790844
2333.85	-1.8445
2334.09	1.04499
2334.32	-1.84108
2334.55	0.0842037
2334.79	2.96898
2335.02	2.0077
2335.25	1.04765
2335.48	1.05073
2335.72	2.01503
2335.95	3.94291
2336.18	-0.860422
2336.41	2.02797
2336.65	2.99134
2336.88	2.99389
2337.11	1.07388
2337.34	-2.76884
2337.58	0.118641
2337.81	0.121872
2338.04	-0.836956
2338.28	-0.834108
2338.51	0.130365
2338.74	-0.827597
2338.97	-1.78514
2339.21	-1.78041
2339.44	3.03016
2339.67	1.11186
2339.91	1.11549
2340.14	0.157078
2340.37	-4.64585
2340.6	-1.76132
2340.84	-0.799095
2341.07	-1.75901
2341.3	1.12145
2341.53	2.07962
2341.77	-2.72113
2342	-0.802557
2342.23	-0.801188
2342.46	-0.799576
2342.7	0.161106
2342.93	0.163614
2343.16	-1.75018
2343.39	2.08846
2343.63	-1.74118
2343.86	0.179821
2344.09	2.10076
2344.32	3.06426
2344.56	1.15314
2344.79	1.15852
2345.02	2.1213
2345.25	0.207609
2345.49	1.16897
2345.72	1.17067
2345.95	2.12864
2346.18	-0.743895
2346.41	-0.742258
2346.65	-1.69627
2346.88	1.18054
2347.11	-1.68817
2347.34	-0.727196
2347.58	-2.6384
2347.81	2.15323
2348.04	0.243803
2348.27	-0.707539
2348.5	-1.65808
2348.74	2.17896
2348.97	2.18395
2349.2	0.272001
2349.43	-0.683344
2349.67	1.22867
2349.9	1.22575
2350.13	4.08988
2350.36	-0.695726
2350.59	0.252035
2350.83	2.14133
2351.06	1.1532
2351.29	0.234987
2351.52	-0.655237
2351.75	-1.58989
2351.99	-0.661734
2352.22	-0.675283
2352.45	0.286032
2352.68	-1.61563
2352.91	1.24205
2353.15	-0.675936
2353.38	-0.682476
2353.61	0.279943
2353.84	1.23643
2354.07	-0.666658
2354.31	0.291481
2354.54	2.20108
2354.77	1.25879
2355	-1.58998
2355.23	-0.632133
2355.47	-1.58053
2355.7	1.28176
2355.93	3.19083
2356.16	-1.56875
2356.39	3.19591
2356.63	-2.5176
2356.86	1.28736
2357.09	-0.616667
2357.32	2.23871
2357.55	0.339079
2357.79	3.19405
2358.02	2.24599
2358.25	0.347878
2358.48	3.20281
2358.71	0.355858
2358.94	-2.49265
2359.18	-0.588516
2359.41	-0.58403
2359.64	2.27035
2359.87	-1.52551
2360.1	0.376715
2360.33	-0.570881
2360.57	-0.569077
2360.8	-2.46528
2361.03	-2.46301
2361.26	0.384811
2361.49	0.386206
2361.72	-1.50868
2361.96	-1.50694
2362.19	-1.50537
2362.42	-0.556744
2362.65	-0.55549
2362.88	2.28708
2363.11	1.34217
2363.34	-2.44155
2363.58	0.401012
2363.81	-0.54166
2364.04	0.408375
2364.27	-1.48013
2364.5	-0.530762
2364.73	0.418175
2364.97	-0.524364
