#Acq. time (s)=	30
#Accumulations=	2
#Range (cm-¹)=	1200...2400
#Windows=	4
#Auto scanning=	Off
#Autofocus=	Off
#Macrospot=	Off
#AutoExposure=	Off
#Spike filter=	Multiple accum.
#Delay time (s)=	2
#Binning=	1
#Readout mode=	Signal
#DeNoise=	Off
#ICS correction=	On
#Dark correction=	Off
#Inst. Process=	Off
#Detector Gain=	Best Dynamic
#Detector ADC=	50 kHz HS
#Detector temperature (°C)=	-60.09
#Instrument=	LabRAM HR Evol
#Detector=	SIN-EM FIVIS
#Objective=	x100_VIS
#Grating=	1800 (450-850nm)
#ND Filter=	100%
#Laser=	532nm_Edge
#Hole=	49.98
#Temperature=	0
#Range=	Visible
#StageXY=	75x50mm Scan+
#StageZ=	Z motor
#X (µm)=	0
#Y (µm)=	0
#Z (µm)=	-249
#Full time(mm:ss)=	4:28
#Project=	21_11_04
#Sample=	BU19w
#Site=	
#Title=	BU19w-E-FF11b-FI08-V_1800 (450-850nm)_532nm_Edge_100%_x100_VIS_H50um_30sX2
#Remark=	
#Date=	04.11.2021 17:37
#Acquired=	04.11.2021 17:37:20
#Base:Fit=	16.12.2021 17:39:50
#Base:Fit=	16.12.2021 17:48:07
#Base:Sub=	16.12.2021 17:48:07
1200.19	1.19642
1200.46	2.15564
1200.74	4.1825
1201.02	0.820194
1201.3	-0.383377
1201.57	-0.505831
1201.85	-0.616663
1202.13	3.59767
1202.41	1.38504
1202.69	2.33215
1202.96	9.74944
1203.24	6.37968
1203.52	1.96775
1203.8	2.92109
1204.08	2.82808
1204.35	-0.504187
1204.63	-0.614836
1204.91	7.86528
1205.19	3.45284
1205.47	0.116257
1205.74	5.36691
1206.02	3.10688
1206.3	-0.222355
1206.58	0.737846
1206.85	10.2689
1207.13	0.525311
1207.41	-0.648657
1207.69	1.39139
1207.97	3.42869
1208.24	2.25423
1208.52	2.15187
1208.8	-0.0871067
1209.08	1.95568
1209.36	0.791687
1209.63	0.695753
1209.91	4.87079
1210.19	-2.71152
1210.46	2.52794
1210.74	-2.90925
1211.02	2.32817
1211.3	3.29633
1211.57	1.0633
1211.85	-0.0999165
1212.13	4.06746
1212.41	3.97179
1212.69	1.74779
1212.96	2.72261
1213.24	-2.69036
1213.52	2.54613
1213.79	3.52891
1214.07	0.253263
1214.35	3.36536
1214.63	2.21861
1214.9	2.13639
1215.18	-1.13923
1215.46	-3.3527
1215.74	0.816605
1216.01	-0.337557
1216.29	1.69838
1216.57	2.67254
1216.85	0.461052
1217.12	0.375753
1217.4	-2.89372
1217.68	2.33315
1217.95	1.18959
1218.23	-4.19621
1218.51	-1.08872
1218.79	-4.34751
1219.06	-3.36152
1219.34	0.804586
1219.62	-0.331114
1219.89	-1.46267
1220.17	-0.473537
1220.45	0.515438
1220.73	1.5013
1221	-0.693666
1221.28	-2.88884
1221.56	3.39157
1221.84	0.132086
1222.11	-2.06725
1222.39	-0.0322571
1222.67	3.06124
1222.94	-3.36398
1223.22	-5.55207
1223.5	1.76833
1223.77	-0.418217
1224.05	-5.76717
1224.33	-2.66835
1224.61	3.60013
1224.88	4.59377
1225.16	1.37121
1225.44	-2.90999
1225.71	1.25529
1225.99	2.24837
1226.27	0.0733757
1226.54	2.11908
1226.82	-0.0601425
1227.1	1.9682
1227.37	1.88139
1227.65	2.85711
1227.93	0.670326
1228.21	1.63584
1228.48	-0.538391
1228.76	2.59183
1229.03	4.7287
1229.31	-2.67984
1229.59	1.45399
1229.86	4.53619
1230.14	-1.84228
1230.42	-1.8994
1230.69	1.16407
1230.97	0.0265121
1231.25	-2.12374
1231.52	5.1801
1231.8	-5.38108
1232.08	-0.18026
1232.35	1.86983
1232.63	3.91851
1232.91	-3.48646
1233.18	2.76791
1233.46	-0.429428
1233.74	-1.52495
1234.01	1.5836
1234.29	-1.61008
1234.57	2.5514
1234.84	4.61036
1235.12	-0.687592
1235.4	1.37344
1235.67	2.38146
1235.95	0.231483
1236.23	2.28481
1236.5	-4.07133
1236.78	1.13044
1237.06	0.0246162
1237.33	-4.2304
1237.61	3.0644
1237.88	-0.139126
1238.16	-3.33907
1238.44	-4.43586
1238.71	-1.33598
1238.99	-0.332256
1239.27	-2.47196
1239.54	1.67953
1239.82	2.68745
1240.1	1.60057
1240.37	1.56354
1240.65	-2.66578
1240.92	-2.70327
1241.2	0.398022
1241.48	1.40282
1241.75	-1.78035
1242.03	-2.86217
1242.3	3.39078
1242.58	-3.97391
1242.86	-5.05596
1243.13	-0.899799
1243.41	0.115604
1243.68	-2.01315
1243.96	2.14364
1244.24	-2.08537
1244.51	1.02161
1244.79	-1.11701
1245.06	3.03212
1245.34	-2.25155
1245.62	6.08203
1245.89	0.81356
1246.17	3.91965
1246.44	1.79657
1246.72	1.76369
1247	-1.4098
1247.27	-2.48693
1247.55	3.75508
1247.82	1.61819
1248.1	-3.64395
1248.38	-1.58154
1248.65	0.484627
1248.93	2.54963
1249.2	6.70189
1249.48	-4.8307
1249.75	3.50729
1250.03	-0.712238
1250.31	-0.747787
1250.58	1.30851
1250.86	-2.90401
1251.13	2.28795
1251.41	-1.92247
1251.69	-1.95404
1251.96	4.27946
1252.24	-3.06047
1252.51	-1.00425
1252.79	4.18392
1253.06	1.02723
1253.34	1.00606
1253.61	-1.09816
1253.89	0.973713
1254.17	0.9571
1254.44	3.02486
1254.72	3.00409
1254.99	-1.19306
1255.27	2.96148
1255.54	3.98392
1255.82	9.1866
1256.09	11.2597
1256.37	2.88813
1256.65	6.00177
1256.92	8.06654
1257.2	13.2632
1257.47	10.1069
1257.75	3.81909
1258.02	4.84076
1258.3	6.90219
1258.57	3.74601
1258.85	4.77362
1259.13	8.93415
1259.4	11.0217
1259.67	9.96316
1259.95	9.93539
1260.23	14.0784
1260.5	15.0896
1260.78	19.2349
1261.05	19.2113
1261.33	20.2667
1261.6	30.7547
1261.88	29.7984
1262.15	40.184
1262.43	40.064
1262.7	38.9123
1262.98	43.1051
1263.25	38.9836
1263.53	29.6215
1263.8	27.5937
1264.08	25.4672
1264.35	18.1083
1264.63	19.134
1264.9	11.807
1265.18	5.51388
1265.45	20.1257
1265.73	13.8457
1266	12.7936
1266.28	9.65417
1266.55	11.7428
1266.83	9.65224
1267.1	9.65411
1267.38	8.61073
1267.66	3.38296
1267.93	8.6287
1268.2	12.8191
1268.48	11.7701
1268.75	11.7678
1269.03	8.61966
1269.31	7.55431
1269.58	8.58133
1269.85	12.747
1270.13	4.35323
1270.4	10.6147
1270.68	4.32106
1270.95	17.9133
1271.23	10.5761
1271.5	11.6219
1271.78	11.6269
1272.05	9.54066
1272.33	3.26508
1272.6	8.50655
1272.88	6.41582
1273.15	17.9518
1273.43	12.7169
1273.7	9.57568
1273.98	7.47716
1274.25	7.4717
1274.53	16.9049
1274.8	11.6569
1275.07	7.46162
1275.35	11.661
1275.62	16.9132
1275.9	9.57212
1276.17	13.7758
1276.45	9.57961
1276.72	17.9862
1277	16.9449
1277.27	15.9033
1277.54	11.7071
1277.82	14.8665
1278.1	26.4416
1278.37	20.1426
1278.64	26.461
1278.92	27.5144
1279.19	34.871
1279.47	40.12
1279.74	49.576
1280.02	49.5752
1280.29	69.5638
1280.56	104.294
1280.84	138.008
1281.11	189.625
1281.39	279.106
1281.66	384.375
1281.94	501.291
1282.21	601.303
1282.49	713.759
1282.76	731.081
1283.03	662.23
1283.31	512.924
1283.58	383.579
1283.86	263.293
1284.13	175.094
1284.41	114.013
1284.68	97.1142
1284.95	68.6198
1285.23	55.9655
1285.5	37.0278
1285.78	42.3077
1286.05	26.4999
1286.32	26.4964
1286.6	25.4436
1286.87	19.1224
1287.15	21.2196
1287.42	22.2642
1287.69	18.0532
1287.97	11.7419
1288.24	11.7455
1288.52	17.0158
1288.79	11.7641
1289.06	18.0928
1289.34	16
1289.61	10.7479
1289.89	10.7574
1290.16	6.54222
1290.43	10.7545
1290.71	13.9162
1290.98	7.60001
1291.26	8.65631
1291.53	4.44503
1291.8	8.66411
1292.08	9.72454
1292.35	13.9347
1292.62	8.67185
1292.9	6.57459
1293.17	4.49212
1293.45	4.51254
1293.72	1.37193
1293.99	9.81018
1294.27	7.70792
1294.54	4.54506
1294.82	9.8387
1295.09	-0.686775
1295.36	3.56431
1295.64	-0.627636
1295.91	7.84283
1296.18	3.62233
1296.46	2.57136
1296.73	2.57117
1297.01	1.51349
1297.28	8.90651
1297.55	4.67733
1297.83	7.84399
1298.1	3.63307
1298.37	-0.590576
1298.65	3.63375
1298.92	5.74649
1299.19	1.52602
1299.47	4.70253
1299.74	1.54974
1300.02	4.72739
1300.29	2.62311
1300.56	-1.59459
1300.84	5.80354
1301.11	3.70352
1301.38	5.83075
1301.65	-1.54938
1301.93	1.62983
1302.2	6.92019
1302.47	1.64555
1302.75	-1.51785
1303.02	3.76617
1303.29	0.601742
1303.57	9.05746
1303.84	2.73127
1304.12	6.96386
1304.39	5.91451
1304.66	-0.416965
1304.94	4.86275
1305.21	-5.69038
1305.48	-0.412998
1305.75	-0.411854
1306.03	-1.46264
1306.3	-0.400406
1306.57	1.71995
1306.85	2.78703
1307.12	-4.58583
1307.39	-0.357571
1307.67	2.81784
1307.94	1.77301
1308.21	-2.4364
1308.49	3.90655
1308.76	3.92293
1309.03	3.93928
1309.31	0.789387
1309.58	-1.30913
1309.85	0.810337
1310.13	3.98555
1310.4	-1.27923
1310.67	-1.26648
1310.94	0.857029
1311.22	0.869892
1311.49	-0.169609
1311.76	-1.20793
1312.04	-1.1926
1312.31	1.98835
1312.58	3.05095
1312.85	3.05777
1313.13	0.95694
1313.4	-1.14618
1313.67	-2.19167
1313.95	-3.23457
1314.22	-3.22004
1314.49	2.07432
1314.76	1.0353
1315.04	-2.11595
1315.31	2.12538
1315.58	-2.08437
1315.86	1.0944
1316.13	-4.17588
1316.4	0.0597115
1316.67	1.12773
1316.95	1.14219
1317.22	-2.00893
1317.49	1.17569
1317.77	-5.14784
1318.04	1.20473
1318.31	0.161789
1318.58	2.28747
1318.86	-1.92647
1319.13	-1.91471
1319.4	-1.90139
1319.67	-1.88646
1319.95	0.239265
1320.22	2.36208
1320.49	-0.79969
1320.76	3.42878
1321.04	5.54165
1321.31	0.268028
1321.58	1.32853
1321.85	3.44373
1322.13	0.287968
1322.4	1.35137
1322.67	-0.750401
1322.94	-9.17292
1323.22	-2.83018
1323.49	-1.76047
1323.76	1.41673
1324.03	2.48526
1324.31	2.49873
1324.58	1.46016
1324.85	0.417648
1325.12	4.63593
1325.4	0.416752
1325.67	-2.75217
1325.94	2.5064
1326.21	2.51233
1326.48	-3.78334
1326.76	-3.75115
1327.03	-0.560661
1327.3	2.62703
1327.57	1.60211
1327.85	0.577457
1328.12	-0.449135
1328.39	-2.53453
1328.66	-2.52262
1328.93	2.76884
1329.21	-1.43512
1329.48	-5.64184
1329.75	0.699753
1330.02	-0.345181
1330.3	3.88112
1330.57	-3.49353
1330.84	-1.38062
1331.11	-2.43346
1331.38	-3.48458
1331.66	-0.320473
1331.93	-0.314888
1332.2	3.89791
1332.47	-0.307503
1332.74	1.79898
1333.01	-1.35033
1333.29	3.90917
1333.56	-3.43922
1333.83	1.81873
1334.1	3.92471
1334.37	1.83229
1334.65	3.93983
1334.92	0.800549
1335.19	2.90808
1335.46	0.819893
1335.73	3.97618
1336.01	-2.30441
1336.28	1.90101
1336.55	1.91337
1336.82	-0.170025
1337.09	-0.156605
1337.37	-0.144798
1337.64	0.908005
1337.91	0.918327
1338.18	-2.21214
1338.45	-0.107483
1338.72	4.09524
1339	-2.17101
1339.27	-1.10513
1339.54	3.1019
1339.81	2.07159
1340.08	-1.05155
1340.35	1.06031
1340.63	2.12284
1340.9	0.0433731
1341.17	-0.989849
1341.44	4.2575
1341.71	0.0801125
1341.98	1.13533
1342.26	1.14232
1342.53	0.104744
1342.8	3.25613
1343.07	-1.95851
1343.34	3.28702
1343.61	0.16655
1343.88	1.23018
1344.16	3.33814
1344.43	0.213402
1344.7	0.224014
1344.97	5.45856
1345.24	0.238602
1345.51	-1.84261
1345.79	-1.83835
1346.06	3.38243
1346.33	-0.785095
1346.6	1.30823
1346.87	5.48606
1347.14	0.280704
1347.41	0.292587
1347.68	3.43301
1347.95	1.36298
1348.23	-5.9179
1348.5	3.47223
1348.77	1.39906
1349.04	0.368191
1349.31	0.379414
1349.58	-0.650398
1349.86	5.60709
1350.13	1.45338
1350.4	0.421627
1350.67	1.47197
1350.94	6.68296
1351.21	2.53338
1351.48	7.74827
1351.75	1.52816
1352.02	3.63147
1352.3	5.73954
1352.57	3.68531
1352.84	4.76033
1353.11	4.815
1353.38	5.88227
1353.65	3.77089
1353.92	5.81651
1354.19	8.92957
1354.46	7.91371
1354.73	-2.46219
1355.01	-0.380383
1355.28	4.83284
1355.55	2.79141
1355.82	4.87812
1356.09	3.8524
1356.36	2.82828
1356.63	2.84327
1356.9	4.93421
1357.17	9.1
1357.44	7.03481
1357.71	7.04567
1357.99	7.05633
1358.26	3.95508
1358.53	1.88974
1358.8	9.16236
1359.07	0.87841
1359.34	0.892204
1359.61	7.11827
1359.88	10.2343
1360.15	9.20417
1360.42	7.14492
1360.69	0.946125
1360.96	7.17943
1361.23	8.23108
1361.5	10.3182
1361.78	12.4013
1362.05	7.23813
1362.32	7.25257
1362.59	8.30639
1362.86	8.32893
1363.13	11.4625
1363.4	9.41363
1363.67	14.6165
1363.94	12.56
1364.21	14.6464
1364.48	6.37347
1364.75	7.41928
1365.02	7.42827
1365.29	12.6118
1365.56	11.5853
1365.83	8.49002
1366.11	10.5665
1366.38	10.5713
1366.65	11.6098
1366.92	8.52299
1367.19	11.64
1367.46	13.7325
1367.73	15.8211
1368	13.7751
1368.27	29.3035
1368.54	52.0713
1368.81	43.8251
1369.08	33.5048
1369.35	16.9731
1369.62	13.8848
1369.89	13.8959
1370.16	14.9369
1370.43	13.9157
1370.7	18.0559
1370.97	13.9285
1371.24	9.80117
1371.51	14.9623
1371.78	12.9002
1372.05	10.8418
1372.32	12.9123
1372.59	13.9545
1372.86	13.967
1373.13	8.82742
1373.4	15.0246
1373.67	17.1
1373.94	18.1454
1374.21	21.2511
1374.48	22.2945
1374.75	20.2495
1375.02	20.2721
1375.29	20.2939
1375.56	19.2832
1375.83	19.2983
1376.1	28.573
1376.37	27.5452
1376.64	26.5113
1376.91	21.3731
1377.18	32.7221
1377.45	28.6428
1377.72	27.6577
1377.99	34.9225
1378.26	31.875
1378.53	25.7131
1378.8	36.0365
1379.07	36.0461
1379.34	36.0537
1379.61	38.115
1379.88	37.0593
1380.15	37.0335
1380.42	37.018
1380.69	36.0025
1380.96	44.2483
1381.23	41.1559
1381.5	40.1112
1381.77	54.4758
1382.04	54.4613
1382.31	51.3669
1382.58	55.4626
1382.85	59.557
1383.12	72.8858
1383.39	70.8338
1383.66	87.2502
1383.93	96.5013
1384.2	114.994
1384.47	152.988
1384.74	175.647
1385.01	254.756
1385.28	344.169
1385.55	520.839
1385.82	836.238
1386.09	1274.97
1386.36	1646.91
1386.62	1656.05
1386.89	1226.93
1387.16	764.974
1387.43	434.646
1387.7	269.167
1387.97	197.97
1388.24	151.139
1388.51	114.417
1388.78	92.9009
1389.05	67.2762
1389.32	54.9668
1389.59	54.943
1389.86	47.7012
1390.13	44.6581
1390.4	42.5935
1390.67	34.3948
1390.94	33.3868
1391.21	33.3946
1391.47	32.3721
1391.74	30.3258
1392.01	28.284
1392.28	25.2216
1392.55	28.3038
1392.82	28.3158
1393.09	26.2813
1393.36	20.1541
1393.63	21.1918
1393.9	26.3231
1394.17	19.1753
1394.44	19.1924
1394.71	26.384
1394.97	25.3869
1395.24	18.2459
1395.51	21.3357
1395.78	15.2094
1396.05	20.3405
1396.32	25.469
1396.59	15.2475
1396.86	13.2099
1397.13	23.45
1397.4	22.4419
1397.66	22.4612
1397.93	18.3923
1398.2	14.3236
1398.47	14.3446
1398.74	19.4826
1399.01	18.4854
1399.28	9.29747
1399.55	18.5297
1399.82	16.5025
1400.09	13.4581
1400.35	17.5812
1400.62	20.6744
1400.89	13.5248
1401.16	21.7395
1401.43	18.6909
1401.7	19.7544
1401.97	18.7767
1402.24	23.9514
1402.5	17.8334
1402.77	17.864
1403.04	18.9136
1403.31	18.9283
1403.58	16.8764
1403.85	22.0104
1404.12	22.0314
1404.39	17.9406
1404.65	21.029
1404.92	20.0121
1405.19	30.2747
1405.46	31.3074
1405.73	28.2415
1406	35.4284
1406.27	33.3944
1406.54	43.666
1406.8	50.8655
1407.07	54.9902
1407.34	65.2657
1407.61	75.5422
1407.88	79.6677
1408.15	78.6672
1408.42	67.4135
1408.68	56.1583
1408.95	49.0033
1409.22	35.6917
1409.49	33.661
1409.76	25.4677
1410.03	23.4218
1410.29	20.3479
1410.56	19.3265
1410.83	18.3092
1411.1	15.2454
1411.37	15.2581
1411.64	14.2528
1411.9	14.2787
1412.17	15.3372
1412.44	14.3709
1412.71	8.27369
1412.98	15.4864
1413.25	13.3939
1413.51	7.232
1413.78	5.21431
1414.05	6.28207
1414.32	5.27932
1414.59	10.4297
1414.86	9.42127
1415.12	3.27882
1415.39	8.43183
1415.66	14.6134
1415.93	5.39272
1416.2	15.6839
1416.47	9.54348
1416.73	2.3744
1417	11.6424
1417.27	10.6359
1417.54	3.46189
1417.81	7.58997
1418.07	5.55456
1418.34	6.59964
1418.61	5.59099
1418.88	4.57932
1419.15	2.53655
1419.41	3.5745
1419.68	5.63977
1419.95	9.75812
1420.22	6.68657
1420.49	9.7757
1420.75	6.70714
1421.02	10.8283
1421.29	9.82348
1421.56	2.66706
1421.83	5.77374
1422.09	2.72331
1422.36	4.81521
1422.63	6.92713
1422.9	4.90852
1423.17	7.84454
1423.43	4.80053
1423.7	8.89812
1423.97	1.7084
1424.24	5.8468
1424.5	10.9804
1424.77	5.9237
1425.04	11.034
1425.31	5.94656
1425.58	6.98986
1425.84	1.87509
1426.11	1.88406
1426.38	9.07006
1426.65	6.00071
1426.91	6.00716
1427.18	7.03129
1427.45	3.96761
1427.72	0.908394
1427.98	1.94796
1428.25	4.0136
1428.52	6.08041
1428.79	6.10016
1429.06	2.02442
1429.32	2.0462
1429.59	3.09489
1429.86	6.19513
1430.12	5.19266
1430.39	5.22198
1430.66	4.2285
1430.93	4.25405
1431.2	4.27414
1431.46	6.34123
1431.73	10.4536
1432	2.25393
1432.26	0.214657
1432.53	7.39748
1432.8	3.30018
1433.07	2.27775
1433.33	5.35548
1433.6	4.3414
1433.87	1.28573
1434.14	4.39352
1434.4	0.312738
1434.67	2.37931
1434.94	2.39522
1435.21	4.45972
1435.47	-4.74779
1435.74	2.43878
1436.01	1.42799
1436.28	4.51441
1436.54	6.57595
1436.81	-0.580515
1437.08	1.48304
1437.34	2.51961
1437.61	4.58332
1437.88	4.60251
1438.15	4.62289
1438.41	5.66551
1438.68	1.58476
1438.95	5.70156
1439.21	1.62445
1439.48	2.67262
1439.75	2.69559
1440.01	4.76523
1440.28	3.75699
1440.55	3.77377
1440.82	3.78974
1441.08	-4.40116
1441.35	-0.287834
1441.62	3.82945
1441.88	2.82404
1442.15	5.91906
1442.42	0.809435
1442.69	0.820786
1442.95	0.831615
1443.22	0.84346
1443.49	-0.168476
1443.75	0.871908
1444.02	-0.133663
1444.29	6.04268
1444.55	1.96445
1444.82	0.958704
1445.09	-0.054451
1445.35	-0.0415936
1445.62	2.02285
1445.89	1.01001
1446.15	1.02304
1446.42	-3.06607
1446.69	2.0743
1446.95	2.08613
1447.22	5.17342
1447.49	0.0604
1447.76	-1.97323
1448.02	0.0980873
1448.29	3.19459
1448.56	2.18517
1448.82	1.17337
1449.09	2.21099
1449.35	5.29789
1449.62	2.23157
1449.89	1.21757
1450.15	2.25513
1450.42	2.26768
1450.69	3.30503
1450.96	0.242779
1451.22	-1.79457
1451.49	-0.757526
1451.75	2.32905
1452.02	3.36777
1452.29	0.309662
1452.55	3.40047
1452.82	0.344467
1453.09	3.43549
1453.35	2.42452
1453.62	0.387659
1453.89	2.45085
1454.15	4.51499
1454.42	2.47999
1454.68	0.443672
1454.95	1.48131
1455.22	-1.57527
1455.48	2.54263
1455.75	-1.54098
1456.02	-0.50231
1456.28	-0.491165
1456.55	3.61686
1456.82	1.5786
1457.08	1.59091
1457.35	-0.445353
1457.61	0.592854
1457.88	-1.44142
1458.15	3.69608
1458.41	3.71221
1458.68	2.70306
1458.95	-0.355259
1459.21	-2.39035
1459.48	3.76976
1459.74	-1.34054
1460.01	-0.303963
1460.28	1.75644
1460.54	1.767
1460.81	1.77734
1461.08	2.81153
1461.34	0.773294
1461.61	-1.26476
1461.87	-1.25575
1462.14	-0.223928
1462.41	0.807076
1462.67	-2.25389
1462.94	3.88917
1463.2	-2.23679
1463.47	-2.22113
1463.74	3.94114
1464	2.94408
1464.27	-6.24463
1464.53	-1.09813
1464.8	-1.13208
1465.07	-3.19452
1465.33	3.94657
1465.6	-1.1355
1465.86	0.925579
1466.13	-0.0897255
1466.39	-1.10875
1466.66	-3.13265
1466.93	0.961657
1467.19	1.99328
1467.46	0.984711
1467.72	-1.04276
1467.99	-2.04979
1468.26	1.02308
1468.52	2.05428
1468.79	-4.05459
1469.05	2.07413
1469.32	-0.977715
1469.58	2.08745
1469.85	-1.98043
1470.12	-4.0082
1470.38	1.09668
1470.65	-2.9667
1470.91	2.13484
1471.18	-0.912598
1471.44	-0.902334
1471.71	1.14597
1471.97	-1.89658
1472.24	1.1705
1472.51	1.18263
1472.77	1.19288
1473.04	-0.834709
1473.3	0.192575
1473.57	1.22016
1473.83	-0.803549
1474.1	0.227541
1474.36	0.243797
1474.63	1.27542
1474.9	-0.747301
1475.16	2.31755
1475.43	1.30944
1475.69	0.300629
1475.96	-2.74095
1476.22	1.33893
1476.49	0.32914
1476.75	-1.69619
1477.02	-3.71876
1477.29	0.361023
1477.55	2.40668
1477.81	-1.65244
1478.08	1.40511
1478.34	1.41366
1478.61	6.5033
1478.88	2.44558
1479.14	-3.6431
1479.41	2.45864
1479.67	-2.61352
1479.94	-0.578981
1480.2	5.51587
1480.47	2.47906
1480.73	-0.555614
1481	1.48347
1481.26	4.54284
1481.53	-4.57276
1481.79	1.53343
1482.06	1.55089
1482.32	-0.464653
1482.59	0.563837
1482.85	-4.49837
1483.12	0.592037
1483.38	2.63481
1483.65	2.64218
1483.92	-2.43301
1484.18	-0.410112
1484.44	8.68817
1484.71	-6.51417
1484.97	-2.46942
1485.24	2.60915
1485.5	-4.42629
1485.77	-4.40696
1486.03	3.70836
1486.3	0.667175
1486.56	-1.33723
1486.83	-4.36566
1487.09	-1.32076
1487.36	1.72464
1487.62	2.74495
1487.89	4.77643
1488.15	6.80565
1488.42	-1.28637
1488.68	-1.27864
1488.95	2.77764
1489.21	1.77519
1489.48	1.78551
1489.74	1.7969
1490.01	1.80691
1490.27	3.83718
1490.54	4.85393
1490.8	2.83829
1491.07	-2.20762
1491.33	1.84702
1491.6	-0.163086
1491.86	2.88176
1492.12	0.86985
1492.39	-1.14201
1492.65	-0.120184
1492.92	0.901203
1493.18	-1.11085
1493.45	-3.12179
1493.71	-2.09901
1493.98	1.95778
1494.24	2.98108
1494.51	2.98995
1494.77	4.00581
1495.04	-1.04461
1495.3	4.00836
1495.56	3.00227
1495.83	3.00855
1496.09	-1.02211
1496.36	3.02285
1496.62	2.02215
1496.89	-0.994852
1497.15	-0.984816
1497.42	-0.975061
1497.68	-1.97366
1497.94	-2.97173
1498.21	4.10436
1498.47	1.08839
1498.74	0.0910797
1499	-0.90567
1499.27	1.12633
1499.53	3.15798
1499.8	0.140488
1500.06	2.16967
1500.32	3.18908
1500.59	5.21739
1500.85	5.22293
1501.12	3.21089
1501.38	-1.82573
1501.64	3.22968
1501.91	0.211599
1502.17	-3.81734
1502.44	-2.80314
1502.7	2.24706
1502.97	2.25274
1503.23	3.26815
1503.5	-1.76167
1503.76	1.27561
1504.02	2.29529
1504.29	3.3138
1504.55	1.3054
1504.81	1.31247
1505.08	1.31813
1505.34	2.32597
1505.61	1.32261
1505.87	3.34635
1506.13	-0.674143
1506.4	-1.6685
1506.66	2.37411
1506.93	-0.637556
1507.19	3.40409
1507.46	1.3978
1507.72	2.41333
1507.98	2.42264
1508.25	5.45633
1508.51	-1.58628
1508.77	3.46193
1509.04	2.46354
1509.3	-1.55663
1509.57	5.51213
1509.83	1.48841
1510.09	2.50101
1510.36	0.490278
1510.62	0.493925
1510.89	3.51626
1511.15	2.50649
1511.41	6.52454
1511.68	-1.52383
1511.94	2.49316
1512.21	2.49355
1512.47	-0.516384
1512.73	2.49989
1513	0.496958
1513.26	2.51367
1513.52	4.54247
1513.79	2.55162
1514.05	2.56081
1514.31	0.557646
1514.58	0.55999
1514.84	1.56726
1515.1	4.57999
1515.37	6.58697
1515.63	5.58406
1515.9	2.58028
1516.16	1.58447
1516.42	1.59158
1516.69	1.59937
1516.95	3.61357
1517.21	4.62627
1517.48	3.63616
1517.74	-2.36804
1518	1.65417
1518.27	1.66512
1518.53	1.67601
1518.79	1.6873
1519.06	2.70147
1519.32	2.71117
1519.58	3.72221
1519.85	1.72243
1520.11	5.74315
1520.37	2.74471
1520.64	3.75962
1520.9	4.77393
1521.16	4.78312
1521.43	4.79026
1521.69	2.78975
1521.95	1.79232
1522.22	-3.21707
1522.48	4.81228
1522.75	4.81485
1523.01	-1.20038
1523.27	1.80613
1523.53	0.806543
1523.8	2.81333
1524.06	-0.186899
1524.32	-2.18257
1524.59	4.83817
1524.85	-1.16094
1525.11	2.85561
1525.38	3.87016
1525.64	1.88091
1525.9	2.89808
1526.17	2.91096
1526.43	2.92068
1526.69	3.92963
1526.95	7.94364
1527.22	2.93898
1527.48	2.94508
1527.74	4.95477
1528.01	4.9597
1528.27	2.96151
1528.53	-2.04077
1528.8	1.97324
1529.06	2.98218
1529.32	0.984608
1529.58	2.99248
1529.85	1.99931
1530.11	2.01087
1530.37	4.02789
1530.64	6.04524
1530.9	4.0525
1531.16	5.06228
1531.42	2.06349
1531.69	4.07447
1531.95	0.0734615
1532.21	2.08977
1532.48	2.10557
1532.74	1.11997
1533	-1.87477
1533.27	5.15764
1533.53	3.16063
1533.79	1.16154
1534.05	5.18006
1534.32	2.17631
1534.58	4.1873
1534.84	0.180744
1535.1	4.19081
1535.37	-3.83004
1535.63	4.18644
1535.89	4.18654
1536.15	4.18414
1536.42	7.18387
1536.68	2.18085
1536.94	2.18353
1537.2	1.18744
1537.47	4.19397
1537.73	2.19436
1537.99	1.19614
1538.25	2.20022
1538.52	3.20811
1538.78	7.22576
1539.04	-0.751822
1539.31	1.27334
1539.57	1.29257
1539.83	2.31326
1540.09	6.34073
1540.36	7.35852
1540.62	4.35397
1540.88	0.344288
1541.14	1.35048
1541.41	0.349028
1541.67	-4.65882
1541.93	4.35743
1542.19	3.35642
1542.45	0.354099
1542.72	4.35912
1542.98	5.35921
1543.24	0.354534
1543.5	5.3574
1543.77	0.365154
1544.03	4.37571
1544.29	2.38906
1544.55	4.4041
1544.81	-1.58637
1545.08	3.4347
1545.34	1.44355
1545.6	-0.54933
1545.86	2.46344
1546.13	4.47309
1546.39	2.47855
1546.65	3.49025
1546.91	3.50078
1547.17	2.50613
1547.44	8.51197
1547.7	3.50263
1547.96	2.50695
1548.22	3.52272
1548.49	3.52436
1548.75	6.50377
1549.01	2.48869
1549.27	3.49701
1549.53	0.521114
1549.79	5.56776
1550.06	5.61184
1550.32	4.65208
1550.58	4.66301
1550.84	2.6526
1551.1	4.66764
1551.37	-1.35816
1551.63	3.66686
1551.89	6.69996
1552.15	2.69384
1552.41	-0.315399
1552.68	3.69279
1552.94	3.68561
1553.2	0.679495
1553.46	1.68579
1553.72	2.68888
1553.99	4.69247
1554.25	1.68164
1554.51	1.68131
1554.77	3.68835
1555.03	3.69321
1555.3	7.70688
1555.56	3.70827
1555.82	8.72056
1556.08	5.719
1556.34	6.72783
1556.6	0.725458
1556.87	1.73455
1557.13	3.744
1557.39	2.74614
1557.65	5.74945
1557.91	4.74652
1558.17	4.74412
1558.43	1.73908
1558.7	5.73864
1558.96	3.7372
1559.22	2.73773
1559.48	5.73823
1559.74	4.74078
1560	3.74451
1560.26	-0.249269
1560.53	4.75213
1560.79	5.75743
1561.05	1.76877
1561.31	6.77788
1561.57	2.79347
1561.83	6.80456
1562.1	4.80967
1562.36	3.81338
1562.62	0.818151
1562.88	5.82387
1563.14	5.82656
1563.4	3.83458
1563.66	9.85286
1563.93	5.86552
1564.19	7.87459
1564.45	3.87164
1564.71	5.84997
1564.97	7.79158
1565.23	5.73649
1565.49	7.7577
1565.76	1.86503
1566.02	6.88467
1566.28	1.87468
1566.54	4.87409
1566.8	9.9048
1567.06	4.92425
1567.32	8.9173
1567.58	2.91168
1567.84	6.91957
1568.11	8.92837
1568.37	5.93452
1568.63	4.93408
1568.89	6.92902
1569.15	9.92794
1569.41	7.93573
1569.67	0.946999
1569.93	8.9479
1570.19	0.957802
1570.45	3.96039
1570.72	5.96255
1570.98	3.96586
1571.24	2.96713
1571.5	6.96473
1571.76	5.96898
1572.02	4.97075
1572.28	7.96633
1572.54	1.97643
1572.8	2.9758
1573.07	5.97066
1573.33	4.97495
1573.59	5.98009
1573.85	2.99601
1574.11	7.99947
1574.37	7.01319
1574.63	4.02856
1574.89	6.03791
1575.15	6.04679
1575.41	6.05151
1575.67	3.05693
1575.94	7.05759
1576.2	5.05852
1576.46	7.05106
1576.72	-0.942595
1576.98	5.04221
1577.24	1.04661
1577.5	7.02778
1577.76	5.03023
1578.02	10.0157
1578.28	5.03425
1578.54	4.04158
1578.8	5.04292
1579.06	4.05107
1579.32	7.04924
1579.58	11.046
1579.85	3.0747
1580.11	0.0875092
1580.37	6.07327
1580.63	5.07674
1580.89	7.07084
1581.15	5.07709
1581.41	7.06836
1581.67	4.07881
1581.93	7.07001
1582.19	4.08346
1582.45	6.07805
1582.71	7.07699
1582.97	7.08059
1583.23	7.08298
1583.49	6.08919
1583.75	10.0782
1584.01	8.09299
1584.27	9.09512
1584.53	4.11946
1584.79	6.11495
1585.06	7.11395
1585.32	8.1128
1585.58	4.12884
1585.84	8.10883
1586.1	7.11051
1586.36	6.11439
1586.62	2.13431
1586.88	3.1308
1587.14	3.13283
1587.4	6.12069
1587.66	7.12059
1587.92	6.13221
1588.18	5.14473
1588.44	3.16189
1588.7	8.14622
1588.96	9.1493
1589.22	2.18629
1589.48	5.17735
1589.74	8.16889
1590	5.18839
1590.26	5.19557
1590.52	1.2169
1590.78	4.20798
1591.04	5.20678
1591.3	9.19162
1591.56	7.19953
1591.82	7.19526
1592.08	5.19982
1592.34	4.20349
1592.6	5.19541
1592.86	6.18288
1593.12	12.1378
1593.38	3.18686
1593.64	9.14467
1593.9	8.15212
1594.16	2.19719
1594.42	5.18504
1594.68	-0.768164
1594.94	5.2009
1595.2	7.18501
1595.46	11.153
1595.72	6.18987
1595.98	10.1662
1596.24	8.18371
1596.5	9.18196
1596.76	8.19439
1597.02	4.22701
1597.28	7.21219
1597.54	7.21415
1597.8	5.22725
1598.06	7.21072
1598.32	6.21322
1598.58	7.2027
1598.84	5.21568
1599.1	9.18339
1599.36	14.1418
1599.62	11.1631
1599.88	7.19329
1600.14	11.1566
1600.4	10.1593
1600.66	5.19705
1600.92	3.20955
1601.17	4.19505
1601.43	8.15204
1601.69	9.13886
1601.95	6.16639
1602.21	11.0816
1602.47	4.1638
1602.73	7.03932
1602.99	5.11433
1603.25	6.97004
1603.51	6.04856
1603.77	12.55
1604.03	5.16803
1604.29	6.05387
1604.55	6.83327
1604.81	10.2368
1605.07	11.0636
1605.33	8.54265
1605.59	7.41141
1605.85	3.52576
1606.11	11.3935
1606.37	6.25261
1606.63	6.2794
1606.88	4.01554
1607.14	11.6406
1607.4	7.20953
1607.66	10.1597
1607.92	7.52564
1608.18	9.25952
1608.44	7.90463
1608.7	8.95196
1608.96	9.44901
1609.22	5.21251
1609.48	4.41854
1609.74	9.38774
1610	7.23511
1610.26	7.64227
1610.51	6.86205
1610.77	5.2695
1611.03	8.7126
1611.29	6.16282
1611.55	6.41452
1611.81	6.49064
1612.07	6.78246
1612.33	4.6638
1612.59	7.21797
1612.85	9.25036
1613.11	4.46522
1613.37	9.04258
1613.62	6.87283
1613.88	3.93472
1614.14	9.58939
1614.4	3.91041
1614.66	8.84301
1614.92	11.656
1615.18	10.1319
1615.44	6.36716
1615.7	10.4952
1615.96	7.73003
1616.21	9.49155
1616.47	5.44807
1616.73	8.16334
1616.99	6.99123
1617.25	7.00254
1617.51	5.69992
1617.77	6.77895
1618.03	7.08947
1618.28	8.98513
1618.54	6.66892
1618.8	6.61406
1619.06	7.32504
1619.32	10.2128
1619.58	6.48518
1619.84	7.16735
1620.1	7.21308
1620.35	9.71877
1620.61	6.2627
1620.87	7.40537
1621.13	6.80749
1621.39	7.22197
1621.65	8.44757
1621.91	7.73243
1622.17	9.2072
1622.42	9.65785
1622.68	7.24496
1622.94	7.11204
1623.2	9.45425
1623.46	5.42265
1623.72	6.26495
1623.98	8.07424
1624.23	5.68741
1624.49	3.27175
1624.75	5.18301
1625.01	7.76644
1625.27	6.25723
1625.53	5.11857
1625.79	4.83816
1626.04	4.17163
1626.3	6.91188
1626.56	5.64086
1626.82	4.11412
1627.08	5.62638
1627.34	7.42434
1627.59	6.67951
1627.85	5.16771
1628.11	6.13378
1628.37	7.96259
1628.63	5.64071
1628.81	6.29194
1629.07	4.32072
1629.33	7.27649
1629.59	7.27706
1629.85	5.30696
1630.12	5.30688
1630.38	10.2294
1630.64	7.27671
1630.9	8.26607
1631.16	8.27341
1631.42	5.32494
1631.68	8.287
1631.95	3.36086
1632.21	9.28776
1632.47	13.2455
1632.73	5.34388
1632.99	3.36289
1633.25	10.2614
1633.51	9.28291
1633.78	5.34646
1634.04	4.36372
1634.3	11.2657
1634.56	5.35264
1634.82	5.35306
1635.08	12.2519
1635.34	4.36657
1635.6	11.2629
1635.87	8.30458
1636.13	4.36168
1636.39	9.28438
1636.65	8.29568
1636.91	3.36901
1637.17	9.27644
1637.43	9.27635
1637.69	6.32142
1637.95	7.30447
1638.21	2.38301
1638.48	4.35352
1638.74	9.27678
1639	10.2624
1639.26	10.2637
1639.52	8.29578
1639.78	7.31204
1640.04	7.31652
1640.3	8.30802
1640.57	7.32833
1640.83	9.29932
1641.09	3.39016
1641.35	8.31171
1641.61	7.32664
1641.87	6.34224
1642.13	3.3892
1642.39	4.37391
1642.65	7.32724
1642.91	10.2812
1643.17	6.344
1643.44	7.32687
1643.7	10.2769
1643.96	8.30444
1644.22	4.36801
1644.48	8.30362
1644.74	5.35781
1645	3.39363
1645.26	10.2861
1645.52	11.2702
1645.78	10.2837
1646.04	5.36178
1646.31	5.36022
1646.57	5.36011
1646.83	4.37391
1647.09	5.35627
1647.35	5.35468
1647.61	8.30675
1647.87	5.35885
1648.13	7.33358
1648.39	12.2604
1648.65	11.3002
1648.91	7.36121
1649.17	9.32905
1649.43	5.38862
1649.69	7.36022
1649.95	8.35831
1650.21	9.34919
1650.47	8.3721
1650.74	3.45251
1651	6.41273
1651.26	6.41486
1651.52	10.3576
1651.78	5.43164
1652.04	9.37634
1652.3	6.41615
1652.56	9.36991
1652.82	3.45854
1653.08	3.46008
1653.34	5.43334
1653.6	6.42296
1653.86	5.44001
1654.12	1.5001
1654.38	7.41684
1654.64	8.40814
1654.9	4.47235
1655.16	7.44092
1655.42	10.4126
1655.68	7.4599
1655.94	6.47804
1656.21	7.46831
1656.47	8.45728
1656.73	5.49549
1656.99	8.45468
1657.25	3.51795
1657.51	11.4118
1657.77	7.46287
1658.03	5.48691
1658.29	5.48372
1658.55	9.42585
1658.81	7.44949
1659.07	7.44588
1659.33	6.45565
1659.59	9.41001
1659.85	9.41404
1660.11	4.48927
1660.37	4.49459
1660.63	8.44587
1660.89	0.560377
1661.15	7.47223
1661.41	2.54265
1661.67	9.44003
1661.93	6.48195
1662.19	6.53264
1662.45	5.55957
1662.71	2.58321
1662.97	7.52555
1663.23	7.49233
1663.49	7.46521
1663.75	3.54175
1664.01	5.52106
1664.27	2.56612
1664.53	6.5314
1664.79	8.50384
1665.05	4.51043
1665.31	7.49085
1665.57	6.55637
1665.83	7.54554
1666.09	5.57343
1666.35	9.41998
1666.61	7.4481
1666.87	5.52437
1667.13	7.4926
1667.39	5.5161
1667.65	6.49922
1667.91	6.49583
1668.17	7.48673
1668.43	7.50617
1668.69	1.59253
1668.95	4.55791
1669.21	6.53483
1669.47	5.5488
1669.72	7.51896
1669.98	4.56206
1670.24	3.59089
1670.51	2.60599
1670.76	5.56904
1671.02	7.54476
1671.28	4.57892
1671.54	2.60529
1671.8	-0.358093
1672.06	7.55131
1672.32	9.52822
1672.58	4.58651
1672.84	2.61085
1673.1	4.58976
1673.36	6.56984
1673.62	6.57379
1673.88	8.55648
1674.14	3.61521
1674.4	3.61943
1674.66	5.6044
1674.92	9.56672
1675.18	4.6215
1675.44	1.65278
1675.69	7.59058
1675.95	6.60306
1676.21	7.59475
1676.47	6.60607
1676.73	8.58515
1676.99	5.61449
1677.25	2.64335
1677.51	4.61853
1677.77	2.63484
1678.03	6.58566
1678.29	5.59231
1678.55	6.57773
1678.81	4.59753
1679.07	7.5613
1679.33	5.5816
1679.59	4.59089
1679.84	7.55392
1680.1	3.59847
1680.36	5.57231
1680.62	5.57039
1680.88	4.58173
1681.14	5.56962
1681.4	4.58187
1681.66	0.630602
1681.92	7.54672
1682.18	0.631718
1682.44	4.58266
1682.7	4.58233
1682.95	3.59453
1683.21	5.57035
1683.47	2.6061
1683.73	5.56736
1683.99	4.57623
1684.25	4.57445
1684.51	5.56096
1684.77	3.58547
1685.03	4.5728
1685.29	5.56049
1685.55	4.5736
1685.8	1.61234
1686.06	2.60326
1686.32	3.59581
1686.58	4.58614
1686.84	3.59831
1687.1	2.60839
1687.36	4.58103
1687.62	3.59073
1687.88	3.58837
1688.14	3.58555
1688.39	2.59401
1688.65	8.51126
1688.91	-1.36233
1689.17	2.5807
1689.43	5.53495
1689.69	7.50156
1689.95	3.55883
1690.2	3.56392
1690.46	3.56723
1690.72	3.56953
1690.98	4.55759
1691.24	2.58783
1691.5	1.60247
1691.76	7.52395
1692.02	5.54823
1692.28	0.609816
1692.53	4.55157
1692.79	4.54511
1693.05	1.57957
1693.31	5.51503
1693.57	0.582977
1693.83	3.53405
1694.09	2.54366
1694.34	4.51064
1694.6	6.4816
1694.86	2.54336
1695.12	0.57445
1695.38	3.53166
1695.64	3.53372
1695.89	-0.403774
1696.15	1.56891
1696.41	7.4811
1696.67	5.50692
1696.93	3.5307
1697.19	0.56897
1697.45	0.56303
1697.7	-0.425898
1697.96	3.50761
1698.22	2.51933
1698.48	1.53229
1698.74	-3.38881
1699	4.48271
1699.26	-0.435671
1699.51	-1.41953
1699.77	4.48416
1700.03	0.544048
1700.29	4.47862
1700.55	1.5261
1700.81	-0.442789
1701.06	4.47278
1701.32	0.534439
1701.58	7.41243
1701.84	1.50872
1702.1	3.4697
1702.35	3.46578
1702.61	2.48189
1702.87	0.515749
1703.13	1.49662
1703.39	-0.47039
1703.65	1.4941
1703.9	4.44431
1704.16	3.46459
1704.42	3.46486
1704.68	5.4287
1704.94	1.49717
1705.19	2.47988
1705.45	5.42636
1705.71	6.40386
1705.97	-0.477533
1706.23	0.499022
1706.48	3.43812
1706.74	1.46908
1707	3.42591
1707.26	5.38038
1707.52	3.41019
1707.77	5.36255
1708.03	2.41316
1708.29	1.42449
1708.55	3.37596
1708.81	3.37049
1709.06	0.430155
1709.32	1.4078
1709.58	-0.550207
1709.84	3.3661
1710.1	1.40906
1710.35	0.432718
1710.61	3.37347
1710.87	-0.541491
1711.13	7.29586
1711.39	3.37986
1711.64	3.37946
1711.9	2.39617
1712.16	2.38776
1712.42	-1.53705
1712.67	-2.5247
1712.93	-2.53189
1713.19	-0.585426
1713.45	-0.592304
1713.71	5.26572
1713.96	-0.59868
1714.22	2.32974
1714.48	4.28178
1714.74	5.25844
1714.99	1.35793
1715.25	-0.593092
1715.51	0.383217
1715.77	3.31185
1716.02	1.35392
1716.28	3.30147
1716.54	-3.5405
1716.8	-0.619801
1717.05	2.29676
1717.31	2.28381
1717.57	1.29934
1717.83	-1.63294
1718.08	4.20435
1718.34	3.22517
1718.6	0.301662
1718.86	1.27542
1719.12	6.14282
1719.37	-0.674063
1719.63	1.27624
1719.89	3.22328
1720.14	1.27286
1720.4	2.24137
1720.66	5.15302
1720.92	2.22942
1721.17	3.19662
1721.43	4.163
1721.69	3.18383
1721.95	3.17707
1722.2	0.25526
1722.46	0.249836
1722.72	3.15888
1722.98	0.241255
1723.23	0.238876
1723.49	-0.731853
1723.75	-1.70543
1724	1.20644
1724.26	-0.73991
1724.52	3.13536
1724.78	1.18446
1725.03	1.17615
1725.29	0.197796
1725.55	0.193008
1725.8	2.12918
1726.06	-1.74536
1726.32	2.12829
1726.58	2.12359
1726.83	1.14679
1727.09	0.179583
1727.35	-1.75327
1727.6	-1.75568
1727.86	-3.69717
1728.12	2.09871
1728.38	1.09555
1728.63	3.95893
1728.89	2.98684
1729.15	-3.7561
1729.4	1.08284
1729.66	0.120237
1729.92	-1.82339
1730.18	1.06774
1730.43	-0.85803
1730.69	0.127028
1730.95	0.128269
1731.2	-1.80453
1731.46	1.09405
1731.72	4.95777
1731.97	0.123613
1732.23	3.01932
1732.49	1.08301
1732.74	0.111567
1733	1.06942
1733.26	3.95452
1733.51	2.97968
1733.77	1.04294
1734.03	0.0713062
1734.29	-1.86372
1734.54	1.98329
1734.8	-0.914043
1735.06	1.96888
1735.31	0.0385246
1735.57	1.9606
1735.82	0.0333405
1736.08	2.9178
1736.34	0.0276184
1736.6	1.94862
1736.85	0.0209866
1737.11	3.86549
1737.37	-1.90857
1737.62	2.89515
1737.88	-5.76242
1738.14	0.000843048
1738.39	-0.00411606
1738.65	-0.00982666
1738.91	0.943598
1739.16	-0.0260868
1739.42	0.923132
1739.67	2.83166
1739.93	-1.01309
1740.19	-1.01949
1740.44	1.85033
1740.7	2.80279
1740.96	1.83931
1741.21	-1.03872
1741.47	0.873077
1741.73	-0.0865669
1741.98	-0.0877018
1742.24	0.867353
1742.5	-2.96392
1742.75	0.863813
1743.01	4.6919
1743.26	-0.0969543
1743.52	1.81155
1743.78	-3.9321
1744.03	-2.97859
1744.29	0.84672
1744.55	-0.10977
1744.8	-1.06579
1745.06	-3.93555
1745.32	1.8019
1745.57	-2.02696
1745.83	-1.07537
1746.09	-1.08132
1746.34	3.68971
1746.6	-0.137064
1746.85	-1.09936
1747.11	2.71589
1747.37	0.800222
1747.62	1.75327
1747.88	-1.11067
1748.13	0.798929
1748.39	-1.10917
1748.65	-0.152845
1748.9	0.804932
1749.16	-0.145952
1749.42	-2.05162
1749.67	0.819487
1749.93	-2.04188
1750.18	3.69742
1750.44	-1.08065
1750.7	-2.0339
1750.95	1.79005
1751.21	-0.125799
1751.46	-0.132801
1751.72	-0.139469
1751.98	-0.144339
1752.23	1.76055
1752.49	-1.10896
1752.74	-0.159191
1753	-3.02606
1753.26	-1.12113
1753.51	1.73704
1753.77	1.73152
1754.02	2.67996
1754.28	0.769522
1754.53	-3.99988
1754.79	-1.14256
1755.05	-2.09846
1755.3	0.75643
1755.56	1.70392
1755.81	0.745411
1756.07	-0.213253
1756.33	-1.17233
1756.58	3.57857
1756.84	-1.18433
1757.09	1.66658
1757.35	-2.13964
1757.6	-0.234613
1757.86	-2.13181
1758.12	1.67597
1758.37	-1.17807
1758.63	-0.226147
1758.88	2.6293
1759.14	2.63031
1759.39	-1.17678
1759.65	0.724709
1759.91	0.722744
1760.16	-2.13354
1760.42	-1.18479
1760.67	1.66478
1760.93	1.66009
1761.18	-1.19601
1761.44	-0.247641
1761.69	-1.19984
1761.95	0.701939
1762.21	0.705826
1762.46	-2.14437
1762.72	4.51148
1762.97	0.707777
1763.23	0.708916
1763.48	3.56375
1763.74	-2.13932
1763.99	0.720547
1764.25	-0.223639
1764.5	0.731764
1764.76	4.54239
1765.02	-0.214882
1765.27	0.738708
1765.53	-0.212509
1765.78	-0.212435
1766.04	-0.213259
1766.29	1.68879
1766.55	-0.215868
1766.8	3.59105
1767.06	-0.218351
1767.31	2.63322
1767.57	0.727133
1767.82	-0.227282
1768.08	-0.227818
1768.33	-0.231131
1768.59	-2.14343
1768.84	-4.05453
1769.1	1.63395
1769.36	-1.21959
1769.61	-1.2183
1769.86	1.63848
1770.12	2.59248
1770.38	-1.20698
1770.63	0.695606
1770.89	-0.246626
1771.14	-0.239096
1771.4	-3.09016
1771.65	-0.235453
1771.91	0.720221
1772.16	0.72542
1772.42	-0.222555
1772.67	0.731972
1772.93	-0.21677
1773.18	-0.214186
1773.44	0.740086
1773.69	0.742136
1773.95	-3.06453
1774.2	-1.15902
1774.46	0.749126
1774.71	-3.05822
1774.97	3.61423
1775.22	-2.09077
1775.48	-1.13295
1775.73	-0.177027
1775.99	1.73031
1776.24	0.775715
1776.5	-2.08676
1776.75	-2.08998
1777.01	0.766684
1777.26	1.71529
1777.51	-0.19388
1777.77	-3.05487
1778.03	-3.05824
1778.28	-1.1584
1778.53	-1.16393
1778.79	0.733736
1779.04	-2.12309
1779.3	-1.17035
1779.55	0.738785
1779.81	2.64412
1780.06	-0.20899
1780.32	1.6972
1780.57	-3.06028
1780.83	-0.203428
1781.08	2.65432
1781.34	-1.15138
1781.59	-2.10022
1781.85	2.66626
1782.1	2.67217
1782.36	-3.04079
1782.61	-0.179266
1782.86	1.72986
1783.12	2.68665
1783.37	-0.169529
1783.63	-1.11918
1783.88	0.792915
1784.14	-3.0168
1784.39	-3.01365
1784.65	-1.10377
1784.9	0.804579
1785.15	2.71154
1785.41	0.801264
1785.66	4.61537
1785.92	0.800999
1786.17	3.66595
1786.43	1.76261
1786.68	-1.0946
1786.94	0.821581
1787.19	0.832333
1787.44	0.84717
1787.7	-0.0933056
1787.95	-0.079319
1788.21	1.84376
1788.46	0.891186
1788.72	-0.05937
1788.97	0.907156
1789.23	-2.92041
1789.48	0.916258
1789.73	2.83718
1789.99	-0.035717
1790.24	1.88185
1790.5	-0.035862
1790.75	0.91366
1791	-1.96994
1791.26	-1.97159
1791.51	0.900427
1791.77	-0.05616
1792.02	-1.01268
1792.28	-1.01035
1792.53	-3.88115
1792.78	1.86902
1793.04	-1.00476
1793.29	-0.0446262
1793.55	-1.95837
1793.8	-0.998482
1794.05	0.916521
1794.31	-1.00191
1794.56	-2.90779
1794.82	0.944086
1795.07	1.91504
1795.32	0.961126
1795.58	-0.954485
1795.83	-0.949928
1796.09	0.0152073
1796.34	1.94167
1796.6	4.82975
1796.85	0.0302563
1797.1	-1.88801
1797.36	1.96043
1797.61	1.96372
1797.86	0.0434246
1798.12	0.0451679
1798.37	0.0455799
1798.63	-0.916948
1798.88	0.0424023
1799.13	0.0391254
1799.39	0.0350533
1799.64	-2.85088
1799.9	0.989878
1800.15	4.83036
1800.4	0.0258083
1800.66	-0.935352
1800.91	0.0251331
1801.16	-3.81613
1801.42	0.027483
1801.67	0.0297699
1801.93	-0.928005
1802.18	-0.924335
1802.43	1.96325
1802.69	0.0464516
1802.94	0.0520477
1803.19	1.01791
1803.45	-0.903147
1803.7	2.94568
1803.95	1.9884
1804.21	0.0696011
1804.46	1.99899
1804.71	0.0804787
1804.97	0.0868702
1805.22	2.0191
1805.48	-1.82799
1805.73	1.06639
1805.98	2.99789
1806.24	0.110865
1806.49	1.07701
1806.74	-2.77692
1807	0.115259
1807.25	2.04359
1807.5	2.04463
1807.76	-0.845779
1808.01	-0.844547
1808.26	2.04856
1808.52	-0.841675
1808.77	-1.80413
1809.02	1.08934
1809.28	5.91154
1809.53	-0.83547
1809.79	-0.834084
1810.04	-0.833317
1810.29	-1.79812
1810.55	0.129751
1810.8	-0.833817
1811.05	1.09445
1811.3	-3.72528
1811.56	0.132008
1811.81	-4.68649
1812.06	0.137508
1812.32	-2.75151
1812.57	0.146505
1812.82	-1.77954
1813.08	4.01145
1813.33	-1.77316
1813.58	3.05842
1813.84	2.10049
1814.09	1.14327
1814.34	4.04905
1814.6	2.12249
1814.85	1.16034
1815.1	1.16292
1815.36	0.19833
1815.61	-0.766254
1815.86	0.202066
1816.12	0.20499
1816.37	0.206221
1816.62	0.206127
1816.88	-1.73154
1817.13	-3.67284
1817.38	0.186604
1817.63	2.12086
1817.89	1.1606
1818.14	-0.764351
1818.39	-1.72856
1818.64	0.204647
1818.9	1.17383
1819.15	-0.75552
1819.4	-1.71911
1819.66	0.217306
1819.91	-1.71289
1820.16	-3.64342
1820.42	5.06374
1820.67	-3.63801
1820.92	1.20264
1821.18	-1.69546
1821.43	0.243685
1821.68	-1.68861
1821.93	0.249899
1822.19	0.252148
1822.44	-1.68178
1822.69	4.12852
1822.94	0.255964
1823.2	-3.6171
1823.45	3.1568
1823.7	2.19002
1823.95	-0.710909
1824.21	0.259914
1824.46	-1.67352
1824.71	2.20251
1824.96	3.1744
1825.22	0.27154
1825.47	3.17798
1825.72	3.17868
1825.98	3.18032
1826.23	1.24476
1826.48	-1.65931
1826.73	2.21757
1826.99	0.283466
1827.24	-0.681866
1827.49	2.22779
1827.74	-0.678558
1828	3.19696
1828.25	3.19475
1828.5	1.2547
1828.75	-2.62047
1829.01	2.22241
1829.26	1.25371
1829.51	-0.683699
1829.76	1.25079
1830.02	2.21745
1830.27	1.24752
1830.52	-0.686895
1830.77	-0.683218
1831.03	-0.679375
1831.28	3.19875
1831.53	-0.671803
1831.78	-3.57439
1832.04	-1.6329
1832.29	3.21838
1832.54	3.22238
1832.79	-0.653906
1833.04	2.2557
1833.3	0.32049
1833.55	0.322073
1833.8	0.324852
1834.05	0.317657
1834.31	3.21156
1834.56	1.26392
1834.81	-1.64936
1835.06	-0.686228
1835.31	-0.691481
1835.57	2.2126
1835.82	1.23883
1836.07	1.36317
1836.32	1.32785
1836.58	2.26816
1836.83	1.29315
1837.08	4.17915
1837.33	0.293879
1837.58	0.269402
1837.84	0.259079
1838.09	-1.67216
1838.34	-0.661045
1838.59	2.25541
1838.85	2.26499
1839.1	-3.54545
1839.35	-2.57249
1839.6	1.30964
1839.85	1.28464
1840.11	0.302856
1840.36	-1.64367
1840.61	-3.58619
1840.86	0.270552
1841.11	-0.704248
1841.36	-1.67724
1841.62	1.21125
1841.87	-2.65451
1842.12	-0.730007
1842.37	3.13344
1842.62	-1.6907
1842.88	0.241974
1843.13	-1.68682
1843.38	4.10157
1843.63	-2.65165
1843.88	-0.721191
1844.14	3.14091
1844.39	2.17692
1844.64	-3.61253
1844.89	-3.6108
1845.14	-0.714375
1845.39	-0.704044
1845.65	0.271917
1845.9	-0.682636
1846.15	0.294794
1846.4	-0.68648
1846.65	1.21033
1846.9	-0.748003
1847.16	-1.71532
1847.41	1.17631
1847.66	0.226179
1847.91	-2.65718
1848.16	0.223614
1848.41	0.220032
1848.67	2.14635
1848.92	1.17949
1849.17	-0.751072
1849.42	3.09138
1849.67	2.12246
1849.92	1.15345
1850.18	-1.7357
1850.43	1.14277
1850.68	1.13876
1850.93	-0.78541
1851.18	0.172945
1851.43	1.13221
1851.68	-1.74833
1851.94	-1.74738
1852.19	1.13442
1852.44	-0.785095
1852.69	1.13555
1852.94	-1.7454
1853.19	-1.74692
1853.44	3.04873
1853.69	0.163818
1853.95	-0.801895
1854.2	1.11154
1854.45	-0.808268
1854.7	1.10635
1854.95	3.9749
1855.2	-2.73865
1855.45	0.133158
1855.71	-0.825596
1855.96	-1.78318
1856.21	2.04932
1856.46	0.134413
1856.71	0.134394
1856.96	-0.824471
1857.21	3.00433
1857.46	1.08734
1857.72	2.04181
1857.97	1.0807
1858.22	2.99007
1858.47	-1.79795
1858.72	2.98005
1858.97	1.06225
1859.22	0.103928
1859.47	-1.80694
1859.72	2.01807
1859.98	-1.80299
1860.23	2.02765
1860.48	-0.836802
1860.73	-2.74558
1860.98	1.08666
1861.23	2.04811
1861.48	0.136059
1861.73	0.135601
1861.98	-0.823856
1862.24	3.95521
1862.49	1.08103
1862.74	0.120527
1862.99	2.0282
1863.24	0.112785
1863.49	0.109615
1863.74	2.01725
1863.99	-0.851328
1864.24	2.01083
1864.49	0.0971794
1864.74	-0.862253
1864.99	1.99503
1865.25	1.98778
1865.5	-1.83484
1865.75	1.97018
1866	0.0552845
1866.25	1.95181
1866.5	-3.76896
1866.75	-0.920721
1867	0.0235882
1867.25	0.969442
1867.5	-0.934483
1867.75	-1.88636
1868	2.86672
1868.25	-0.933905
1868.51	0.0191612
1868.76	-0.930967
1869.01	-2.83233
1869.26	0.969927
1869.51	0.0192299
1869.76	-5.6837
1870.01	0.969734
1870.26	2.87083
1870.51	-1.88051
1870.76	0.0211143
1871.01	-0.929985
1871.26	2.86941
1871.51	-2.83419
1871.76	0.0146866
1872.01	1.91327
1872.26	-0.939444
1872.52	1.9057
1872.77	-2.84273
1873.02	-0.943523
1873.27	-0.944347
1873.52	-0.946436
1873.77	-0.000606537
1874.02	0.944126
1874.27	-1.90595
1874.52	-0.0136719
1874.77	1.87714
1875.02	2.81912
1875.27	0.916229
1875.52	0.903614
1875.77	4.68305
1876.02	2.78379
1876.27	-0.0586529
1876.52	-0.0604954
1876.77	0.873156
1877.02	-0.085083
1877.27	-1.99674
1877.52	-0.0801296
1877.77	-2.83995
1878.02	2.7974
1878.27	-0.990479
1878.52	0.901838
1878.78	2.82192
1879.02	2.8314
1879.27	-0.965498
1879.52	-0.0233879
1879.78	-1.91636
1880.03	-0.969376
1880.28	-0.0166664
1880.53	-0.96784
1880.78	-2.86145
1881.03	-0.0304089
1881.28	-0.0403976
1881.53	-1.94114
1881.78	-2.89576
1882.03	-0.0735703
1882.28	-0.0869408
1882.53	-1.03624
1882.78	0.856636
1883.03	4.7788
1883.28	2.76859
1883.53	-1.05335
1883.78	2.72304
1884.03	-1.03668
1884.28	0.840712
1884.53	-1.03434
1884.78	2.75022
1885.03	0.867777
1885.28	-1.01405
1885.53	-0.0591011
1885.78	-1.94166
1886.03	0.895214
1886.28	-0.995888
1886.53	0.885008
1886.78	2.76841
1887.03	-0.0668621
1887.28	1.81539
1887.52	-1.01883
1887.78	0.861359
1888.03	-2.91597
1888.27	-1.03726
1888.52	0.840601
1888.77	0.835131
1889.02	-1.04956
1889.27	0.833309
1889.52	1.77527
1889.77	2.72081
1890.02	1.78635
1890.27	-4.80053
1890.52	-0.0889034
1890.77	1.7947
1891.02	0.852428
1891.27	0.852959
1891.52	0.852587
1891.77	-4.79713
1892.02	-1.03055
1892.27	0.850334
1892.52	0.846386
1892.77	0.838148
1893.02	-2.93493
1893.27	0.817059
1893.52	-0.121378
1893.77	0.820091
1894.02	0.813793
1894.27	0.811184
1894.52	-1.06779
1894.76	-0.126314
1895.02	0.816261
1895.26	-1.05941
1895.51	1.76368
1895.76	3.64795
1896.01	-1.04675
1896.26	0.839085
1896.51	2.72494
1896.76	4.6104
1897.01	1.79208
1897.26	1.79422
1897.51	-1.0269
1897.76	1.7946
1898.01	-1.02871
1898.26	0.849224
1898.51	1.78499
1898.75	0.840288
1899.01	0.837584
1899.25	-0.103249
1899.5	0.834309
1899.75	-0.106354
1900	-0.105719
1900.25	3.65409
1900.5	0.83964
1900.75	0.845078
1901	-0.0889225
1901.25	2.7369
1901.5	1.80285
1901.75	0.869797
1902	-0.0655556
1902.25	0.87595
1902.49	-1.00598
1902.74	-2.88814
1902.99	0.872334
1903.24	-1.009
1903.49	0.87134
1903.74	-0.0686722
1903.99	1.81223
1904.24	-0.0678005
1904.49	-0.0678806
1904.74	-1.94753
1904.98	1.81355
1905.23	-0.0669308
1905.48	-1.95278
1905.73	-1.01804
1905.98	-1.95897
1906.23	-1.96019
1906.48	-0.0827999
1906.73	-0.0831203
1906.98	-1.02021
1907.23	0.860207
1907.47	-0.0739727
1907.72	3.68864
1907.97	0.873159
1908.22	-0.0637798
1908.47	0.879648
1908.72	1.8245
1908.97	-0.049324
1909.22	-0.042326
1909.47	0.906237
1909.71	-0.0257339
1909.96	0.924513
1910.21	-2.83355
1910.46	3.76386
1910.71	1.88514
1910.96	0.946571
1911.21	1.89043
1911.46	-1.87662
1911.7	-0.935236
1911.95	0.00658989
1912.2	2.83286
1912.45	0.00852776
1912.7	3.77715
1912.95	-0.929956
1913.2	0.959143
1913.45	0.0250492
1913.69	0.975775
1913.94	-0.90382
1914.19	-1.84114
1914.44	2.88077
1914.69	3.83027
1914.94	0.0604877
1915.18	3.83725
1915.43	1.00664
1915.68	-0.881344
1915.93	-0.881075
1916.18	-0.883657
1916.43	2.88562
1916.68	-1.83241
1916.92	-0.891314
1917.17	-0.89222
1917.42	0.99317
1917.67	2.88091
1917.92	1.9431
1918.17	1.94986
1918.42	-2.75937
1918.66	-2.75236
1918.91	-0.856901
1919.16	1.04243
1919.41	-2.72779
1919.66	-0.833597
1919.91	-0.831957
1920.15	2.00052
1920.4	2.00474
1920.65	3.90271
1920.9	1.07436
1921.15	1.07852
1921.39	-1.754
1921.64	-0.805632
1921.89	0.141043
1922.14	-0.805565
1922.39	1.08311
1922.64	1.08106
1922.89	2.02542
1923.13	2.96984
1923.38	1.0782
1923.63	-2.70428
1923.88	-0.817068
1924.13	4.85028
1924.37	1.07171
1924.62	-0.815529
1924.87	0.133593
1925.12	-0.805481
1925.37	0.147884
1925.61	-0.79077
1925.86	-0.784134
1926.11	-0.777081
1926.36	-2.66218
1926.61	-0.76404
1926.86	2.08078
1927.1	0.191235
1927.35	-0.752016
1927.6	2.09321
1927.85	2.09692
1928.1	-0.742643
1928.34	-2.63357
1928.59	3.05595
1928.84	3.06124
1929.09	-2.62018
1929.33	-3.56108
1929.58	1.18748
1929.83	1.19595
1930.08	0.253181
1930.33	2.15923
1930.57	1.21184
1930.82	5.01141
1931.07	0.26298
1931.32	0.261009
1931.57	1.20819
1931.81	0.256939
1932.06	1.20378
1932.31	1.2011
1932.56	-0.695822
1932.8	2.14761
1933.05	-0.694895
1933.3	2.15993
1933.55	0.274664
1933.79	3.1411
1934.04	1.26346
1934.29	3.18782
1934.54	1.30221
1934.79	-0.588978
1935.03	1.32926
1935.28	0.383633
1935.53	2.27258
1935.78	3.22689
1936.02	-1.53902
1936.27	-2.49368
1936.52	3.21907
1936.77	-0.59593
1937.01	2.25748
1937.26	4.15746
1937.51	4.15378
1937.76	4.14947
1938	-0.607441
1938.25	1.30603
1938.5	2.26119
1938.75	-0.590881
1938.99	0.366196
1939.24	0.370045
1939.49	-1.53084
1939.74	3.23495
1939.98	2.28965
1940.23	1.34371
1940.48	1.36096
1940.73	1.36962
1940.97	2.32388
1941.22	1.36701
1941.47	1.3589
1941.72	1.3465
1941.96	0.40538
1942.21	-0.525179
1942.46	2.34345
1942.71	1.38964
1942.95	-1.48322
1943.2	2.3247
1943.45	-2.44984
1943.7	0.427963
1943.94	0.432741
1944.19	-0.516296
1944.44	-0.510309
1944.68	2.36174
1944.93	2.36872
1945.18	0.464134
1945.42	4.29378
1945.67	-0.481138
1945.92	-0.477053
1946.17	0.482512
1946.41	-0.471861
1946.66	1.44121
1946.91	-0.472683
1947.16	-1.43012
1947.4	-1.42958
1947.65	0.483587
1947.9	0.484159
1948.14	3.35188
1948.39	1.44205
1948.64	0.490999
1948.89	-0.460102
1949.13	1.45908
1949.38	1.46599
1949.62	0.516069
1949.87	2.44225
1950.12	1.49597
1950.37	-1.37044
1950.61	3.43319
1950.86	0.566584
1951.11	-0.38385
1951.35	-2.29657
1951.6	3.46888
1951.85	-2.28812
1952.1	1.55721
1952.34	-0.363197
1952.59	3.48437
1952.83	1.56855
1953.08	1.56234
1953.33	-0.366856
1953.58	-1.33927
1953.82	0.567984
1954.07	0.557161
1954.32	-0.409548
1954.56	1.5045
1954.81	1.505
1955.06	-0.407078
1955.3	4.39199
1955.55	0.569881
1955.8	-2.293
1956.04	3.47199
1956.29	0.600451
1956.54	2.52582
1956.78	-1.30949
1957.03	0.616945
1957.28	1.58277
1957.52	2.54782
1957.77	-0.332191
1958.02	2.55356
1958.26	2.55522
1958.51	2.55363
1958.76	-2.25468
1959	-0.334019
1959.25	-0.334408
1959.5	-1.29764
1959.74	0.620876
1959.99	4.45961
1960.23	3.49564
1960.48	0.611557
1960.73	0.608395
1960.98	0.605801
1961.22	0.604664
1961.47	-1.31312
1961.71	2.52772
1961.96	1.56966
1962.21	-0.348209
1962.45	-0.346563
1962.7	2.53478
1962.95	-0.34347
1963.19	5.41806
1963.44	1.58022
1963.69	-0.336514
1963.93	0.626474
1964.18	4.4676
1964.42	0.625854
1964.67	2.54726
1964.92	1.58706
1965.16	2.54872
1965.41	3.51255
1965.66	2.55775
1965.9	-0.318216
1966.15	4.49188
1966.39	6.41892
1966.64	2.57776
1966.89	2.57781
1967.13	0.656593
1967.38	-0.302073
1967.63	-3.18474
1967.87	1.62379
1968.12	3.54641
1968.36	0.660707
1968.61	1.61823
1968.86	2.57372
1969.1	1.60585
1969.35	1.59905
1969.59	0.633841
1969.84	3.50933
1970.09	2.54693
1970.33	2.54306
1970.58	2.54015
1970.82	2.53809
1971.07	3.49556
1971.32	1.57604
1971.56	1.57897
1971.81	1.58175
1972.05	-2.25396
1972.3	2.54297
1972.55	-0.336552
1972.79	3.49657
1973.04	0.61478
1973.28	-0.347303
1973.53	3.4849
1973.78	-1.30912
1974.02	4.44173
1974.27	-1.30842
1974.51	1.56861
1974.76	2.52992
1975.01	0.616297
1975.25	3.49712
1975.5	0.623894
1975.74	3.50416
1975.99	2.54706
1976.23	2.54847
1976.48	2.54906
1976.73	-0.328886
1976.97	1.58842
1977.22	-0.331905
1977.46	0.624037
1977.71	0.620932
1977.95	6.37019
1978.2	1.57513
1978.45	0.615877
1978.69	-0.341949
1978.94	-1.29919
1979.18	4.45245
1979.43	1.57854
1979.67	4.45505
1979.92	4.45261
1980.17	0.614975
1980.41	3.48626
1980.66	1.5687
1980.9	2.52346
1981.15	0.60586
1981.39	0.604874
1981.64	2.52015
1981.88	0.604206
1982.13	-0.35684
1982.37	3.46972
1982.62	2.50676
1982.87	3.4568
1983.11	4.40877
1983.36	-0.376009
1983.6	1.53594
1983.85	-1.33533
1984.09	-1.33701
1984.34	1.53057
1984.58	-1.34159
1984.83	-1.34671
1985.08	1.51896
1985.32	-0.391781
1985.56	-0.40523
1985.81	1.48589
1986.06	3.31765
1986.3	0.614758
1986.55	0.50235
1986.79	-1.2441
1987.04	-0.437307
1987.28	3.10475
1987.53	-1.28914
1987.77	4.96443
1988.02	0.385902
1988.26	3.23523
1988.51	-1.08468
1988.75	2.46673
1989	0.241835
1989.24	-0.0266018
1989.49	-0.476475
1989.73	0.291931
1989.98	3.32671
1990.22	0.473637
1990.47	0.814938
1990.72	1.23116
1990.96	-1.40818
1991.2	2.88239
1991.45	-1.12078
1991.7	-0.174702
1991.94	-0.788708
1992.19	1.89167
1992.43	0.426033
1992.68	-0.0488777
1992.92	2.90957
1993.17	2.03788
1993.41	-0.687569
1993.66	3.19151
1993.9	2.30374
1994.15	1.31666
1994.39	0.385887
1994.63	-0.499557
1994.88	0.101255
1995.13	1.11517
1995.37	1.70076
1995.61	1.85579
1995.86	3.1697
1996.11	0.545904
1996.35	1.06391
1996.59	1.57965
1996.84	0.92112
1997.08	2.17857
1997.33	0.543604
1997.57	-0.595919
1997.82	0.403715
1998.06	0.55953
1998.31	1.04349
1998.55	0.427467
1998.8	2.18659
1999.04	0.451187
1999.29	0.303843
1999.53	-0.748943
1999.78	0.152733
2000.02	-0.573359
2000.27	0.453318
2000.51	1.03845
2000.76	-1.87136
2001	-2.29332
2001.24	1.52617
2001.49	1.62206
2001.73	-0.313553
2001.98	0.28236
2002.22	1.55244
2002.47	1.5302
2002.71	-0.652359
2002.96	-1.86388
2003.2	1.01719
2003.45	1.34263
2003.69	0.680098
2003.93	0.849909
2004.18	1.73032
2004.42	-0.485437
2004.67	-1.58565
2004.91	0.334017
2005.16	-0.120047
2005.4	-0.589861
2005.65	1.62804
2005.89	0.0892811
2006.13	-1.2341
2006.38	-1.26891
2006.62	-3.22162
2006.87	0.211679
2007.11	-0.709564
2007.36	-0.775158
2007.6	2.46215
2007.81	-1.57507
2008.06	-0.638268
2008.31	-0.643579
2008.56	-0.648546
2008.8	-2.54148
2009.05	-1.60492
2009.3	-1.60986
2009.55	2.15476
2009.79	1.20688
2010.04	1.20076
2010.29	-1.62587
2010.53	-1.62639
2010.78	4.02405
2011.03	-0.685423
2011.28	-0.686079
2011.52	-0.687141
2011.77	0.25362
2012.02	2.13536
2012.27	-0.691669
2012.51	3.06895
2012.76	-1.64608
2013.01	2.10709
2013.26	-0.720858
2013.5	-0.728994
2013.75	0.200846
2014	1.12743
2014.24	1.11833
2014.49	1.11637
2014.74	1.11785
2014.99	-0.755798
2015.23	-1.69112
2015.48	-2.62772
2015.73	0.184603
2015.97	-0.742443
2016.22	-1.66982
2016.47	2.09157
2016.71	1.14989
2016.96	1.14598
2017.21	0.200754
2017.46	-0.745501
2017.7	-0.754118
2017.95	0.17556
2018.2	-0.770374
2018.44	-1.71608
2018.69	2.02477
2018.94	2.01633
2019.18	-3.60809
2019.43	1.07233
2019.68	2.00788
2019.93	-0.802542
2020.17	2.00597
2020.42	-0.804424
2020.67	-1.7393
2020.91	-4.54824
2021.16	-1.73839
2021.41	1.07022
2021.65	-1.74165
2021.9	2.0007
2022.15	1.99586
2022.4	-5.49787
2022.64	0.111341
2022.89	0.106966
2023.14	-0.833448
2023.38	1.9671
2023.63	-1.77768
2023.88	0.0878143
2024.12	-0.854607
2024.37	-0.861952
2024.62	-0.869112
2024.86	0.0576553
2025.11	1.91739
2025.36	0.977791
2025.6	-1.82756
2025.85	0.0415401
2026.1	0.0508823
2026.34	3.80092
2026.59	1.95219
2026.84	0.101303
2027.08	-0.825224
2027.33	1.04055
2027.57	-2.71497
2027.82	1.92898
2028.07	0.0228462
2028.32	-1.78266
2028.56	0.143623
2028.81	-0.823669
2029.06	-0.81535
2029.3	1.01949
2029.55	0.993299
2029.79	0.0396671
2030.04	0.966494
2030.29	0.0229225
2030.53	1.90437
2030.78	-1.81801
2031.03	-0.887432
2031.27	2.84468
2031.52	-0.885788
2031.77	0.987242
2032.01	1.92879
2032.26	-0.864826
2032.5	-2.72697
2032.75	-1.78775
2033	2.89085
2033.24	0.0931892
2033.49	2.89785
2033.74	0.0810547
2033.98	0.996845
2034.23	2.8416
2034.48	-0.891857
2034.72	0.0495415
2034.97	0.991432
2035.21	1.00601
2035.46	1.02186
2035.71	-4.57975
2035.95	2.8972
2036.2	0.0820522
2036.45	0.0850563
2036.69	-1.78144
2036.94	1.95831
2037.18	1.95669
2037.43	-0.850657
2037.68	-3.65786
2037.92	0.0778236
2038.17	-0.860371
2038.41	-0.863928
2038.66	0.0666428
2038.91	3.79868
2039.15	-0.875198
2039.4	-1.81426
2039.64	0.979919
2039.89	0.973433
2040.14	-0.898476
2040.38	2.82693
2040.63	0.0242634
2040.87	1.88498
2041.12	0.951153
2041.37	-0.915081
2041.61	0.945597
2041.86	0.942938
2042.1	-3.7215
2042.35	3.73143
2042.6	1.86758
2042.84	0.00656891
2043.09	4.67365
2043.33	-2.77518
2043.58	1.89704
2043.83	2.83204
2044.07	0.964123
2044.32	0.957458
2044.56	0.945936
2044.81	-0.00827599
2045.05	0.963036
2045.3	-1.83654
2045.55	-1.80105
2045.79	-2.70582
2046.04	0.0728397
2046.28	-0.881302
2046.53	1.90427
2046.78	0.0400753
2047.02	-0.901968
2047.27	-2.78366
2047.51	-0.92193
2047.76	-0.920918
2048	-0.920052
2048.25	-2.78344
2048.5	2.81568
2048.74	0.95433
2048.99	-1.83949
2049.23	0.966112
2049.48	0.974455
2049.72	0.0464439
2049.97	3.78873
2050.22	-0.879078
2050.46	0.989849
2050.71	0.987602
2050.95	-0.885715
2051.2	-1.82522
2051.44	1.90961
2051.69	0.0428734
2051.93	0.0457172
2052.18	-2.75516
2052.42	1.91751
2052.67	0.987129
2052.91	-0.877184
2053.16	1.93326
2053.41	0.0729256
2053.65	1.94736
2053.9	1.01448
2054.14	2.88571
2054.39	3.82021
2054.63	1.01247
2054.88	-1.7961
2055.12	3.80973
2055.37	0.0669498
2055.62	1.00037
2055.86	0.0629749
2056.11	-0.8743
2056.35	1.92842
2056.6	0.0588436
2056.84	0.0597706
2057.09	-3.67795
2057.33	4.7391
2057.58	-0.867924
2057.82	0.0708656
2058.07	0.0760536
2058.31	0.0808372
2058.56	-1.78673
2058.8	-0.848139
2059.05	0.0889797
2059.29	1.96255
2059.54	-0.846647
2059.78	2.8947
2060.03	0.0825291
2060.27	0.0810833
2060.52	0.0837212
2060.76	-0.849524
2061.01	0.0883827
2061.25	1.9615
2061.5	0.0892067
2061.74	3.83521
2061.99	2.90063
2062.24	1.03016
2062.48	1.03344
2062.73	2.91116
2062.97	-2.70704
2063.22	1.0438
2063.46	1.98321
2063.7	-1.76427
2063.95	1.04934
2064.19	0.114588
2064.44	2.93062
2064.68	-0.814648
2064.93	0.129725
2065.18	-2.67983
2065.42	-0.798042
2065.66	-0.794245
2065.91	1.08626
2066.15	1.08656
2066.4	1.0896
2066.64	1.09153
2066.89	-1.72461
2067.13	2.97554
2067.38	-2.65842
2067.62	2.98261
2067.87	-0.774584
2068.11	3.92596
2068.36	3.93045
2068.6	0.168865
2068.85	0.164995
2069.09	-0.781963
2069.34	-3.60975
2069.58	-1.73352
2069.83	-2.67042
2070.07	0.157913
2070.31	2.98943
2070.56	0.180422
2070.8	1.11596
2071.05	-2.65228
2071.29	-0.740589
2071.54	-0.737383
2071.78	-2.62341
2072.03	-0.741734
2072.27	2.08226
2072.52	4.90417
2072.76	1.13819
2073.01	-2.62935
2073.25	1.13765
2073.5	2.07972
2073.74	1.13946
2073.98	1.14209
2074.23	0.204676
2074.47	3.97961
2074.72	-1.66655
2074.96	0.228792
2075.21	-1.64701
2075.45	3.07861
2075.69	3.08238
2075.94	4.02679
2076.18	-2.58118
2076.43	3.07959
2076.67	0.242855
2076.92	2.1234
2077.16	3.05645
2077.41	-0.717726
2077.65	2.11452
2077.9	3.0623
2078.14	1.17745
2078.38	1.17954
2078.63	1.18295
2078.87	3.07738
2079.12	2.14345
2079.36	-3.51932
2079.61	0.262529
2079.85	-1.62391
2080.09	-0.676836
2080.34	3.10262
2080.58	1.21012
2080.83	2.15322
2081.07	3.09726
2081.32	1.2068
2081.56	-0.683321
2081.8	0.263004
2082.05	-0.680511
2082.29	2.15536
2082.54	0.265415
2082.78	3.09969
2083.02	0.263458
2083.27	0.26247
2083.51	-0.682526
2083.76	-0.682652
2084	0.261908
2084.24	-0.682831
2084.49	3.0976
2084.73	1.20739
2084.98	-1.62781
2085.22	1.20695
2085.47	0.264183
2085.71	-1.62065
2085.95	1.22289
2086.2	1.22725
2086.44	-0.662642
2086.69	2.17836
2086.93	0.289749
2087.17	1.23739
2087.42	2.18382
2087.66	2.18399
2087.9	0.291677
2088.15	1.23901
2088.39	3.13314
2088.64	-0.652205
2088.88	3.13854
2089.12	2.19556
2089.37	2.20248
2089.61	2.20354
2089.85	2.20467
2090.1	4.1011
2090.34	-0.633959
2090.59	0.315859
2090.83	2.21361
2091.07	1.26824
2091.32	-1.56949
2091.56	2.22993
2091.8	-0.608368
2092.05	-0.601601
2092.29	0.355061
2092.54	4.15921
2092.78	1.31611
2093.02	0.371874
2093.27	2.2778
2093.51	3.2331
2093.75	3.23735
2094	-2.46619
2094.24	-0.565096
2094.49	1.33497
2094.73	-1.51913
2094.97	1.32848
2095.22	-3.42733
2095.46	0.370512
2095.7	1.31793
2095.95	-1.53385
2096.19	-1.5348
2096.43	0.363659
2096.68	2.25972
2096.92	-0.594133
2097.16	-1.54762
2097.41	-3.44811
2097.65	2.24653
2097.89	2.24466
2098.14	-1.55488
2098.38	0.343138
2098.62	-0.606846
2098.87	4.13695
2099.11	0.339703
2099.36	1.28823
2099.6	2.23739
2099.84	3.18716
2100.08	0.341135
2100.33	-0.605297
2100.57	-1.54975
2100.81	-0.596443
2101.06	1.30546
2101.3	1.30655
2101.54	0.356409
2101.79	1.30573
2102.03	1.30554
2102.28	1.30357
2102.52	-1.54942
2102.76	0.345203
2103	1.29239
2103.25	2.24058
2103.49	1.29016
2103.73	2.23993
2103.98	0.343567
2104.22	0.346962
2104.46	4.14877
2104.71	0.353277
2104.95	0.35737
2105.19	3.21308
2105.44	3.21732
2105.68	-1.53233
2105.92	1.32125
2106.17	0.37155
2106.41	-0.578022
2106.65	3.22711
2106.89	-0.576021
2107.14	1.3225
2107.38	0.367126
2107.62	-1.53946
2107.87	1.3047
2108.11	-0.601265
2108.35	-3.45399
2108.59	0.342524
2108.84	0.343931
2109.08	-0.599157
2109.32	2.25377
2109.57	1.30392
2109.81	1.30393
2110.05	-1.54618
2110.3	-1.54628
2110.54	1.30365
2110.78	-2.49664
2111.02	0.351366
2111.27	-2.50131
2111.51	5.09437
2111.75	3.19344
2112	-0.604956
2112.24	0.347281
2112.48	1.2992
2112.72	2.25216
2112.97	-1.54215
2113.21	-2.48888
2113.45	-0.586266
2113.7	0.362169
2113.94	0.360279
2114.18	-1.54062
2114.42	-2.48991
2114.67	-3.44006
2114.91	-0.590319
2115.15	-1.54253
2115.39	0.35627
2115.64	2.25454
2115.88	3.1989
2116.12	-0.604717
2116.36	1.29295
2116.61	0.342175
2116.85	-0.608337
2117.09	-2.50639
2117.34	-4.40809
2117.58	-2.51222
2117.82	5.07813
2118.06	1.27466
2118.3	0.319023
2118.55	1.26258
2118.79	0.309374
2119.03	-1.59147
2119.28	1.24789
2119.52	1.24369
2119.76	-1.60215
2120	-0.655397
2120.24	-0.654346
2120.49	-0.650709
2120.73	-3.49198
2120.97	0.304684
2121.22	2.20682
2121.46	3.16076
2121.7	2.21732
2121.94	2.22184
2122.18	2.22555
2122.43	-0.618666
2122.67	0.333063
2122.91	-1.56386
2123.15	1.28477
2123.4	2.23216
2123.64	-2.51668
2123.88	0.326836
2124.12	2.21804
2124.36	-0.637026
2124.61	-0.647198
2124.85	0.291155
2125.09	1.2308
2125.33	2.17061
2125.58	1.21707
2125.82	-2.57429
2126.06	-1.6322
2126.3	-1.63647
2126.55	2.14217
2126.79	-1.6447
2127.03	0.244734
2127.27	0.243757
2127.51	2.13303
2127.76	2.1306
2128	-0.706278
2128.24	2.12979
2128.48	4.02044
2128.72	-1.65209
2128.97	-0.708487
2129.21	1.18047
2129.45	-2.60066
2129.69	0.23349
2129.93	-1.65767
2130.18	2.12031
2130.42	1.17321
2130.66	1.17036
2130.9	1.16703
2131.14	1.16348
2131.39	2.10469
2131.63	-0.729837
2131.87	-0.732426
2132.11	-0.73671
2132.35	-0.740219
2132.6	2.08893
2132.84	0.20188
2133.08	-2.62792
2133.32	1.1477
2133.56	-0.739374
2133.81	-1.68167
2134.05	2.09388
2134.29	2.0934
2134.53	3.98033
2134.77	0.204988
2135.01	0.20393
2135.26	-1.6854
2135.5	1.14111
2135.74	2.0766
2135.98	1.12724
2136.22	1.12457
2136.47	0.183756
2136.71	0.184488
2136.95	1.1281
2137.19	0.188349
2137.43	-1.69252
2137.67	1.13357
2137.91	-0.758436
2138.16	3.00784
2138.4	-0.756516
2138.64	0.193638
2138.88	-1.68787
2139.12	0.184502
2139.37	-2.64902
2139.61	0.174719
2139.85	1.11373
2140.09	1.11112
2140.33	1.10891
2140.57	2.04929
2140.81	2.98933
2141.06	0.165106
2141.3	0.159737
2141.54	-0.786108
2141.78	1.09537
2142.02	2.03723
2142.26	-0.781504
2142.51	0.163465
2142.75	1.12751
2142.99	2.05459
2143.23	0.10774
2143.47	-1.76011
2143.71	2.00202
2143.95	1.07166
2144.19	2.02027
2144.44	1.08397
2144.68	1.0686
2144.92	1.07335
2145.16	0.133961
2145.4	3.89367
2145.64	2.01151
2145.88	-1.75048
2146.13	-1.7518
2146.37	-0.81321
2146.61	-0.815113
2146.85	0.121857
2147.09	1.99836
2147.33	0.116888
2147.57	-1.76377
2147.81	1.05189
2148.06	-0.828754
2148.3	1.04675
2148.54	-0.834324
2148.78	1.9775
2149.02	0.0947189
2149.26	-1.7897
2149.5	-0.856316
2149.74	1.9511
2149.98	1.00955
2150.22	0.0705585
2150.47	1.94546
2150.71	-2.73869
2150.95	1.95245
2151.19	0.0803146
2151.43	3.83499
2151.67	0.0862236
2151.91	1.96467
2152.15	1.02373
2152.4	-0.854654
2152.64	0.0793915
2152.88	0.0764008
2153.12	-0.862312
2153.36	-0.864075
2153.6	1.94361
2153.84	-2.74608
2154.08	0.0566998
2154.32	1.92003
2154.56	0.0391674
2154.8	1.90063
2155.05	-0.911436
2155.29	0.952112
2155.53	0.94688
2155.77	0.943218
2156.01	0.00731659
2156.25	0.00687408
2156.49	-1.86142
2156.73	1.87597
2156.97	0.0100079
2157.21	0.948153
2157.45	1.8876
2157.69	0.02211
2157.94	2.82758
2158.18	-0.911055
2158.42	-0.911631
2158.66	-0.913074
2158.9	3.75693
2159.14	-1.8527
2159.38	0.0117741
2159.62	0.00674057
2159.86	5.60368
2160.1	1.86433
2160.34	1.86038
2160.58	-0.00769424
2160.82	2.7909
2161.06	0.922907
2161.3	0.921455
2161.54	0.92131
2161.79	-0.0110607
2162.03	0.922495
2162.27	-0.0103588
2162.51	-0.944868
2162.75	1.85104
2162.99	0.91642
2163.23	0.914639
2163.47	-0.0197411
2163.71	1.84276
2163.95	-0.958612
2164.19	-0.963329
2164.43	-0.965883
2164.67	0.899973
2164.91	-0.029501
2165.15	1.83508
2165.39	-0.0276604
2165.63	-0.026823
2165.87	-3.75625
2166.12	1.83238
2166.35	-0.0337982
2166.6	-0.969063
2166.84	-1.90255
2167.08	-0.975969
2167.32	3.67143
2167.56	-1.92228
2167.8	-1.93043
2168.04	4.57561
2168.28	0.857391
2168.52	-1.92958
2168.76	-0.996098
2169	-2.85103
2169.24	0.8766
2169.48	2.74685
2169.72	1.82594
2169.96	-0.962156
2170.2	0.902517
2170.44	-0.030035
2170.68	-0.033659
2170.92	0.895462
2171.16	-0.975256
2171.4	2.73064
2171.64	-0.995373
2171.88	-0.0691643
2172.12	0.857038
2172.36	1.78406
2172.6	2.71324
2172.84	-1.00276
2173.08	0.856071
2173.32	0.858637
2173.56	0.862228
2173.8	-1.92311
2174.04	1.79606
2174.28	2.72645
2174.52	0.868166
2174.76	-0.0610504
2175	-0.0617542
2175.24	-0.0623302
2175.48	-0.991638
2175.72	-1.92126
2175.96	-2.85154
2176.2	1.79127
2176.44	0.86182
2176.68	0.862726
2176.92	-0.993797
2177.16	0.865114
2177.4	1.79463
2177.64	-3.77794
2177.88	-2.85057
2178.12	0.859617
2178.36	0.856363
2178.6	1.78526
2178.84	0.858538
2179.08	-0.997313
2179.32	-0.0678349
2179.56	-0.995621
2179.8	0.861979
2180.04	-0.0664711
2180.28	-0.995525
2180.52	-0.0675659
2180.76	-0.06744
2181	-0.0681992
2181.24	-0.998241
2181.48	2.71274
2181.72	0.855883
2181.96	-1.00195
2182.2	-1.93081
2182.44	1.77856
2182.68	-0.0802784
2182.92	1.76985
2183.16	-1.01717
2183.4	-1.02056
2183.63	-1.02313
2183.87	-2.87819
2184.11	1.75466
2184.35	-1.02313
2184.59	-0.0935955
2184.83	0.835651
2185.07	-0.088377
2185.31	-1.01166
2185.55	1.7743
2185.79	-1.00257
2186.03	-0.0700855
2186.27	-0.0628605
2186.51	2.72872
2186.75	0.88043
2186.99	-0.969301
2187.23	1.82214
2187.47	-0.962664
2187.71	2.75049
2187.95	-0.967068
2188.18	-4.68372
2188.43	0.882238
2188.66	-0.0504093
2188.9	-0.983244
2189.14	0.86515
2189.38	-6.5565
2189.62	-0.0686398
2189.86	-0.0681496
2190.1	-0.066906
2190.34	-0.0635185
2190.58	-0.988567
2190.82	-0.0602303
2191.06	-0.0579262
2191.3	1.79955
2191.54	2.73005
2191.78	0.878225
2192.01	-0.0465546
2192.25	3.66712
2192.49	-0.0385437
2192.73	2.74999
2192.97	-1.88555
2193.21	2.76196
2193.45	-1.86948
2193.69	-3.71766
2193.93	2.79569
2194.17	0.0115986
2194.41	-4.63755
2194.64	1.86823
2194.88	0.00779152
2195.12	-0.924109
2195.36	-3.71504
2195.6	2.78211
2195.84	-0.93959
2196.08	-0.0169964
2196.32	0.906717
2196.56	2.75897
2196.8	-2.80993
2197.04	5.53569
2197.27	-1.88258
2197.51	5.53918
2197.75	0.905336
2197.99	-0.943604
2198.23	-0.937353
2198.47	1.8555
2198.71	-0.921446
2198.95	2.80165
2199.19	-2.76504
2199.42	-0.898396
2199.66	0.97377
2199.9	-0.874235
2200.14	-0.863577
2200.38	1.94038
2200.62	1.94814
2200.86	0.0910339
2201.1	1.01211
2201.34	-0.872986
2201.58	0.00819397
2201.81	-0.946011
2202.05	1.85863
2202.29	-0.887991
2202.53	-3.66464
2202.77	0.0512638
2203.01	-0.882132
2203.25	-0.850355
2203.49	0.136381
2203.72	0.113846
2203.96	-5.47982
2204.2	-0.81558
2204.44	1.03395
2204.68	-0.84733
2204.92	0.997868
2205.16	2.84713
2205.39	0.0557384
2205.63	0.0579948
2205.87	-2.72567
2206.11	0.0638599
2206.35	-0.871334
2206.59	-0.868685
2206.83	-0.864382
2207.06	0.0706978
2207.3	0.0763721
2207.54	1.94311
2207.78	0.087986
2208.02	0.0935173
2208.26	1.02952
2208.49	0.102657
2208.73	1.0372
2208.97	0.108276
2209.21	-0.822001
2209.45	0.10981
2209.69	-2.68198
2209.93	0.116034
2210.17	0.120354
2210.4	1.05682
2210.64	1.06156
2210.88	-3.59418
2211.12	-0.793243
2211.36	2.94248
2211.6	2.01592
2211.83	2.02072
2212.07	-0.775568
2212.31	-0.77599
2212.55	1.08824
2212.79	-0.777927
2213.02	1.08408
2213.26	1.08184
2213.5	0.152349
2213.74	1.09064
2213.98	1.10227
2214.22	-1.68907
2214.45	1.11448
2214.69	1.11753
2214.93	0.186501
2215.17	-0.745066
2215.41	-0.743483
2215.65	1.125
2215.88	1.12574
2216.12	0.192556
2216.36	1.12617
2216.6	3.92716
2216.84	2.99476
2217.07	-0.737507
2217.31	1.13184
2217.55	0.199017
2217.79	0.199982
2218.03	1.13591
2218.26	1.13947
2218.5	3.0118
2218.74	-3.52145
2218.98	-2.58267
2219.22	1.15794
2219.45	1.16225
2219.69	-3.5078
2219.93	-1.6382
2220.17	-1.6379
2220.41	-3.50664
2220.64	0.230093
2220.88	-3.51128
2221.12	0.220802
2221.36	-2.58414
2221.6	1.14765
2221.83	-1.65435
2222.07	1.14682
2222.31	1.14987
2222.55	0.220718
2222.78	-2.57648
2223.02	-2.57201
2223.26	-2.56614
2223.5	2.11336
2223.74	-3.48707
2223.97	1.19472
2224.21	2.1368
2224.45	2.14319
2224.69	-1.59353
2224.93	-0.651291
2225.16	-1.58036
2225.4	-1.57497
2225.64	1.24052
2225.88	1.24665
2226.11	0.31407
2226.35	-0.61705
2226.59	0.325441
2226.83	0.330086
2227.07	0.333727
2227.3	1.27394
2227.54	1.27419
2227.78	4.08647
2228.02	-3.41521
2228.25	-2.47786
2228.49	0.33478
2228.73	1.27211
2228.96	-2.47657
2229.2	1.27884
2229.44	-2.46553
2229.68	-0.583529
2229.92	0.359535
2230.15	-1.51206
2230.39	-1.50682
2230.63	2.2543
2230.87	1.32193
2231.1	-1.48948
2231.34	2.27367
2231.58	-2.4192
2231.82	0.405563
2232.05	2.2913
2232.29	0.416153
2232.53	1.362
2232.77	2.30793
2233	-1.45005
2233.24	1.37801
2233.48	0.441051
2233.71	0.444588
2233.95	-0.497284
2234.19	-1.43915
2234.43	1.3825
2234.66	-1.44341
2234.9	0.431065
2235.14	-0.51347
2235.38	1.36933
2235.61	2.31177
2235.85	0.433233
2236.09	-0.504992
2236.33	-3.32483
2236.56	-1.44131
2236.8	0.446432
2237.04	0.452406
2237.27	-1.42068
2237.51	-1.41117
2237.75	0.481907
2237.98	1.43148
2238.22	3.32423
2238.46	-1.38216
2238.7	2.39951
2238.93	-1.37218
2239.17	2.40023
2239.41	-0.431742
2239.65	-4.20909
2239.88	2.38738
2240.12	-0.442312
2240.36	0.513027
2240.59	-2.30954
2240.83	2.4102
2241.07	-0.417906
2241.3	-0.415203
2241.54	-0.412922
2241.78	0.533884
2242.02	1.48125
2242.25	-3.23504
2242.49	1.48624
2242.73	3.37443
2242.96	0.539955
2243.2	1.48149
2243.44	-3.23766
2243.67	0.537561
2243.91	-1.34801
2244.15	-2.2875
2244.38	0.552042
2244.62	0.562344
2244.86	-1.31869
2245.09	2.4674
2245.33	-0.362886
2245.57	-3.19404
2245.81	2.48519
2246.04	-1.29352
2246.28	1.54733
2246.52	-1.28643
2246.75	-2.22886
2246.99	-1.27958
2247.23	4.40093
2247.46	1.56202
2247.7	-0.331177
2247.94	1.56115
2248.17	1.56059
2248.41	2.50653
2248.65	1.55984
2248.88	-0.332497
2249.12	-0.327209
2249.36	-0.324104
2249.59	3.46218
2249.83	0.620575
2250.07	0.617033
2250.3	1.55925
2250.54	-0.337032
2250.78	0.605717
2251.01	-1.2875
2251.25	-0.34211
2251.49	1.55069
2251.72	-2.22805
2251.96	0.613159
2252.2	-3.16517
2252.43	2.51956
2252.67	2.53409
2252.91	-0.29784
2253.14	-0.290672
2253.38	0.662739
2253.61	0.667654
2253.85	-0.275143
2254.09	0.676577
2254.32	-0.270634
2254.56	0.675943
2254.8	1.62652
2255.03	-0.2691
2255.27	1.62907
2255.51	1.63089
2255.74	-2.15772
2255.98	-1.20462
2256.22	0.69735
2256.45	0.70174
2256.69	2.60465
2256.92	-2.1371
2257.16	1.66451
2257.4	0.718197
2257.63	0.720156
2257.87	0.721907
2258.11	-0.225508
2258.34	1.67707
2258.58	-1.16866
2258.81	0.735456
2259.05	-1.16219
2259.29	-2.11005
2259.52	-3.05738
2259.76	-3.05474
2260	-4.00281
2260.23	0.753229
2260.47	-0.193295
2260.7	-2.08778
2260.94	-1.13177
2261.18	-2.08186
2261.41	-3.03141
2261.65	-0.174286
2261.88	2.68341
2262.12	-3.02333
2262.36	-0.162424
2262.59	4.60459
2262.83	0.802202
2263.06	1.76281
2263.3	-1.08778
2263.54	-2.9861
2263.77	-1.07045
2264.01	-0.108414
2264.24	1.8076
2264.48	-1.05058
2264.72	-2.00073
2264.95	1.82395
2265.19	-1.99557
2265.42	0.871485
2265.66	-1.99549
2265.9	-0.0893574
2266.13	2.7704
2266.37	-0.0985298
2266.6	3.7147
2266.84	3.71118
2267.08	0.845926
2267.31	-1.06494
2267.55	-0.115141
2267.78	0.835546
2268.02	-1.07199
2268.26	-3.93111
2268.49	-1.06693
2268.73	-2.01577
2268.96	3.71506
2269.2	-2.00373
2269.43	0.867094
2269.67	2.78559
2269.91	-1.02784
2270.14	0.887648
2270.38	-1.97578
2270.61	-1.97104
2270.85	1.85731
2271.08	0.904694
2271.32	-0.0478191
2271.55	-0.999882
2271.79	0.915892
2272.03	4.7437
2272.26	3.78877
2272.5	-0.0364513
2272.73	2.83587
2272.97	-2.90374
2273.2	-4.81617
2273.44	-0.986671
2273.68	3.80031
2273.91	0.930601
2274.15	0.932304
2274.38	-0.98045
2274.62	-0.0211868
2274.85	-0.97683
2275.09	-0.0178146
2275.32	2.85469
2275.56	0.943817
2275.79	-0.00811386
2276.03	-1.91848
2276.27	-0.955406
2276.5	-0.950716
2276.74	1.93079
2276.97	1.93915
2277.21	-1.88925
2277.44	0.998585
2277.68	1.00811
2277.91	0.0514393
2278.15	0.0533619
2278.38	2.93531
2278.62	-1.86739
2278.85	-0.908064
2279.09	0.0480919
2279.33	1.95855
2279.56	0.99259
2279.8	-2.85002
2280.03	2.90009
2280.27	0.978125
2280.5	0.016613
2280.74	0.973385
2280.97	-0.946146
2281.21	0.0111294
2281.44	-1.90332
2281.68	0.0158405
2281.91	-0.93935
2282.15	1.94213
2282.38	2.90719
2282.62	-0.924421
2282.85	0.0417881
2283.09	-3.78967
2283.32	-3.78107
2283.56	1.03201
2283.79	0.0811462
2284.03	-1.83647
2284.26	2.01376
2284.5	2.01962
2284.73	-4.71106
2284.97	0.102318
2285.2	2.02757
2285.44	-0.864349
2285.67	-0.871206
2285.91	1.05227
2286.14	-0.869507
2286.38	-1.82716
2286.61	4.9202
2286.85	2.04153
2287.08	-2.77016
2287.32	0.122292
2287.55	-0.835716
2287.79	-1.80052
2288.02	2.04958
2288.26	0.120096
2288.49	1.07907
2288.73	2.03467
2288.96	2.02622
2289.2	3.94177
2289.43	1.04747
2289.67	0.0830498
2289.9	6.81068
2290.14	1.04294
2290.37	2.00527
2290.61	-0.875362
2290.84	-1.83122
2291.08	0.0996304
2291.31	-1.82005
2291.55	-1.81637
2291.78	1.07539
2292.02	1.08007
2292.25	0.122536
2292.48	3.01756
2292.72	1.09504
2292.95	-0.828833
2293.19	-0.826357
2293.42	0.138597
2293.66	0.137007
2293.89	-0.829132
2294.13	-3.72288
2294.36	2.05399
2294.6	3.97721
2294.83	-3.73087
2295.07	0.118488
2295.3	2.04129
2295.54	-1.81225
2295.77	1.0699
2296.01	-2.78689
2296.24	2.02279
2296.47	1.06289
2296.71	1.06635
2296.94	-1.8167
2297.18	1.07616
2297.41	3.00904
2297.65	1.0907
2297.88	3.02272
2298.11	1.09907
2298.35	3.03176
2298.58	2.07406
2298.82	1.11487
2299.05	0.154453
2299.29	-0.808296
2299.52	0.156288
2299.76	1.12094
2299.99	-1.77315
2300.23	1.12379
2300.46	0.162773
2300.69	0.165695
2300.93	0.168203
2301.16	-0.795523
2301.4	2.10079
2301.63	2.10002
2301.87	0.167549
2302.1	-3.69401
2302.33	-1.76327
2302.57	1.13157
2302.8	1.13049
2303.04	-2.73002
2303.27	0.165802
2303.5	2.09863
2303.74	0.172138
2303.97	1.14112
2304.21	1.14379
2304.44	-0.784239
2304.68	2.1177
2304.91	-3.67631
2305.14	1.1555
2305.38	3.09005
2305.61	0.194309
2305.85	-0.769596
2306.08	1.1645
2306.31	-0.768183
2306.55	5.031
2306.78	-3.66867
2307.02	1.16183
2307.25	0.192829
2307.48	-0.774944
2307.72	2.1216
2307.95	-0.778364
2308.19	2.11999
2308.42	1.15531
2308.65	2.12523
2308.89	-0.770048
2309.12	0.202353
2309.36	-1.72491
2309.59	-1.72075
2309.82	2.15065
2310.06	-2.68568
2310.29	1.18326
2310.53	1.18081
2310.76	-3.65998
2310.99	3.09421
2311.23	0.181704
2311.46	1.13959
2311.7	0.169027
2311.93	0.165825
2312.16	1.12708
2312.4	-1.77028
2312.63	0.159529
2312.86	-0.802589
2313.1	-3.69166
2313.33	2.10953
2313.56	2.11668
2313.8	5.02284
2314.03	-0.768429
2314.27	-0.760138
2314.5	0.213953
2314.73	-3.65207
2314.97	-2.69031
2315.2	2.14012
2315.43	3.10224
2315.67	2.12905
2315.9	-1.74823
2316.14	-0.787378
2316.37	1.14106
2316.6	2.10655
2316.84	1.14248
2317.07	1.14395
2317.3	-5.61112
2317.54	2.12086
2317.77	0.180262
2318	2.10881
2318.24	1.1402
2318.47	-1.75933
2318.71	6.92441
2318.94	4.02526
2319.17	4.98772
2319.41	4.9861
2319.64	4.98666
2319.87	4.02273
2320.11	1.12786
2320.34	0.165531
2320.57	1.13435
2320.81	1.13848
2321.04	4.03979
2321.27	1.14839
2321.51	4.05359
2321.74	5.9948
2321.97	3.10232
2322.21	2.13812
2322.44	0.203728
2322.67	2.13882
2322.91	3.10777
2323.14	3.10959
2323.37	6.97958
2323.61	6.01378
2323.84	4.0789
2324.07	0.210468
2324.31	4.07175
2324.54	5.03048
2324.77	6.95325
2325.01	9.84472
2325.24	12.7358
2325.47	10.7986
2325.71	11.7576
2325.94	13.6808
2326.17	16.5681
2326.41	31.9942
2326.64	41.627
2326.87	62.8255
2327.1	99.4483
2327.34	146.659
2327.57	188.085
2327.8	171.714
2328.04	120.63
2328.27	81.116
2328.5	53.1472
2328.74	31.9367
2328.97	24.2166
2329.2	11.6926
2329.44	10.7286
2329.67	11.6973
2329.9	11.6949
2330.13	4.95113
2330.37	8.8014
2330.6	3.02315
2330.83	2.06267
2331.07	2.06701
2331.3	2.07167
2331.53	2.07836
2331.77	5.92481
2332	2.06789
2332.23	-0.823879
2332.47	3.02564
2332.7	0.134834
2332.93	1.09554
2333.16	5.90665
2333.4	2.05506
2333.63	2.05252
2333.86	3.01155
2334.09	3.00583
2334.33	1.07968
2334.56	3.00167
2334.79	1.07856
2335.02	1.07817
2335.26	0.118547
2335.49	1.08285
2335.72	0.121222
2335.96	-1.80336
2336.19	2.04267
2336.42	0.11969
2336.66	-3.72596
2336.89	1.08135
2337.12	0.12014
2337.35	-1.80327
2337.59	1.08027
2337.82	0.11924
2338.05	1.08052
2338.28	-0.841185
2338.52	2.04449
2338.75	-2.75977
2338.98	1.08624
2339.21	3.00915
2339.45	0.125071
2339.68	3.96761
2339.91	3.00372
2340.14	1.07959
2340.38	2.99672
2340.61	1.07081
2340.84	3.94444
2341.07	2.01712
2341.31	3.93041
2341.54	2.00933
2341.77	-0.869808
2342	0.0873699
2342.24	2.0039
2342.47	0.0869579
2342.7	3.92261
2342.93	2.96599
2343.17	0.0907326
2343.4	-1.82548
2343.63	-1.82339
2343.86	2.01431
2344.1	0.0995636
2344.33	0.100655
2344.56	-2.77467
2344.79	1.05904
2345.02	0.0988464
2345.26	0.0949516
2345.49	1.05094
2345.72	1.04862
2345.95	-0.866125
2346.19	-0.865244
2346.42	-0.864208
2346.65	1.05095
2346.88	3.92354
2347.12	0.0957279
2347.35	-2.77381
2347.58	-0.850237
2347.81	2.00414
2348.04	0.0950489
2348.28	0.105793
2348.51	0.915897
2348.74	0.886406
2348.97	0.123575
2349.2	2.10555
2349.44	0.118933
2349.67	1.69703
2349.9	-0.194372
2350.13	-0.15201
2350.37	3.07568
2350.6	-0.961773
2350.83	-2.16397
2351.06	1.74214
2351.29	0.135715
2351.53	-1.29684
2351.76	2.44832
2351.99	-3.80754
2352.22	0.239525
2352.45	-0.329372
2352.69	-1.65411
2352.92	-0.749155
2353.15	-1.49355
2353.38	1.5844
2353.61	0.196613
2353.85	-2.24302
2354.08	2.84951
2354.31	0.100924
2354.54	-2.15555
2354.77	0.527225
2355.01	-2.20001
2355.24	-0.250889
2355.47	1.70998
2355.7	-0.196449
2355.93	-0.425505
2356.17	1.33209
2356.4	0.873917
2356.63	-1.56692
2356.86	-0.0694103
2357.09	1.73885
2357.32	1.84138
2357.56	-0.240572
2357.79	-1.87054
2358.02	0.695951
2358.25	-0.40247
2358.48	0.213491
2358.71	-1.09525
2358.95	0.833796
2359.18	1.67303
2359.41	-1.01401
2359.64	1.4593
2359.87	-1.93566
2360.1	-1.81809
2360.34	-0.0742073
2360.57	1.33858
2360.8	-1.37009
2361.03	0.930552
2361.26	2.10879
2361.49	-0.324896
2361.73	-1.76785
2361.96	0.365629
2362.19	-0.573589
2362.42	-1.16333
2362.65	1.01164
2362.88	-3.49117
2363.11	0.0741825
2363.35	1.78537
2363.58	0.203363
2363.81	0.339472
2364.04	0.453974
2364.27	-2.64046
2364.5	-1.7671
2364.73	1.03716
2364.97	-1.36596
2365.2	0.0171204
2365.43	0.555323
2365.66	1.53042
2365.89	0.663074
2366.12	-0.0399323
2366.36	0.159758
2366.59	1.80391
2366.82	1.27671
2367.05	0.446262
2367.28	-2.96517
2367.51	-1.01925
2367.74	-1.22143
2367.97	-0.580339
2368.2	1.38687
2368.44	1.948
2368.67	0.224743
2368.9	0.400221
2368.98	1.11089
2369.22	-4.54871
2369.45	-2.65932
2369.69	-1.71416
2369.92	0.173441
2370.15	1.1182
2370.39	0.178713
2370.62	-0.760778
2370.86	0.184784
2371.09	-1.69488
2371.33	1.13601
2371.56	-0.742601
2371.79	1.14428
2372.03	0.20676
2372.26	0.210676
2372.5	0.215055
2372.73	-1.6614
2372.97	0.227406
2373.2	1.175
2373.43	0.238573
2373.67	2.12288
2373.9	1.18621
2374.14	-1.6301
2374.37	0.254999
2374.6	2.13931
2374.84	1.20298
2375.07	0.267521
2375.31	0.273643
2375.54	0.280743
2375.77	-0.651169
2376.01	3.11272
2376.24	-1.57826
2376.48	1.24409
2376.71	0.312279
2376.94	-1.55763
2377.18	-1.55037
2377.41	0.33259
2377.65	-0.600748
2377.88	-1.53237
2378.11	1.28716
2378.35	1.29239
2378.58	0.360044
2378.82	1.30174
2379.05	-0.570036
2379.28	0.369801
2379.52	0.375267
2379.75	1.31941
2379.98	-0.544569
2380.22	-1.47202
2380.45	-0.52664
2380.69	0.419111
2380.92	0.429489
2381.15	-2.36764
2381.39	-1.41982
2381.62	-1.40904
2381.85	-0.46348
2382.09	2.35516
2382.32	-4.18629
2382.56	-1.36882
2382.79	0.512812
2383.02	-1.34781
2383.26	0.534672
2383.49	-3.19693
2383.72	1.49329
2383.96	-1.30158
2384.19	1.51684
2384.42	-0.343603
2384.66	1.53839
2384.89	-0.323206
2385.13	-1.24921
2385.36	-1.24021
2385.59	-0.297878
2385.83	-2.15956
2386.06	2.52097
2386.29	4.39504
2386.53	2.53279
2386.76	2.53971
2386.99	-0.254257
2387.23	0.686871
2387.46	3.49752
2387.69	-2.08536
2387.93	0.727324
2388.16	0.740879
2388.4	-0.178936
2388.63	2.63162
2388.86	-1.08694
2389.1	-0.140244
2389.33	-1.05902
2389.56	-0.112667
2389.8	-0.0981598
2390.03	1.78177
2390.26	0.865173
2390.5	-0.0507584
2390.73	0.898718
2390.96	-0.950106
2391.2	-0.933901
2391.43	2.81204
2391.66	-1.83659
2391.9	1.90797
2392.13	-0.875231
2392.36	-1.79363
2392.59	0.0798836
2392.83	-1.77405
2393.06	-1.76397
2393.3	0.107149
2393.53	-0.811773
2393.76	0.132158
2394	-2.6434
2394.23	-2.63054
2394.46	-3.54758
2394.69	0.191179
2394.93	0.212603
2395.16	0.237865
2395.39	3.09258
2395.63	-2.48006
2395.86	-0.597517
2396.09	0.368471
2396.33	-0.536964
2396.56	4.13192
2396.79	-2.38298
2397.02	0.432768
2397.26	4.18251
2397.49	-1.39324
2397.73	-0.440788
2397.96	-1.35459
2398.19	-2.26798
2398.42	-2.24807
2398.66	5.23244
2398.89	1.52212
2399.12	1.54371
2399.36	-0.300516
2399.59	1.58586
2399.82	-3.05638
