#Acq. time (s)=	30
#Accumulations=	2
#Range (cm-¹)=	1200...2365
#Windows=	3
#Auto scanning=	Off
#Autofocus=	Off
#Macrospot=	Off
#AutoExposure=	Off
#Spike filter=	Multiple accum.
#Delay time (s)=	2
#Binning=	1
#Readout mode=	Signal
#DeNoise=	Off
#ICS correction=	On
#Dark correction=	Off
#Inst. Process=	Off
#Detector Gain=	Best Dynamic
#Detector ADC=	50 kHz HS
#Detector temperature (°C)=	-60.09
#Instrument=	LabRAM HR Evol
#Detector=	SIN-EM FIVIS
#Objective=	x100_VIS
#Grating=	1800 (450-850nm)
#ND Filter=	100%
#Laser=	532nm_Edge
#Hole=	49.98
#Temperature=	0
#Range=	Visible
#StageXY=	75x50mm Scan+
#StageZ=	Z motor
#X (µm)=	0
#Y (µm)=	0
#Z (µm)=	-251.2
#Full time(mm:ss)=	3:17
#Project=	21_11_04
#Sample=	BU19w
#Site=	
#Title=	BU19w-E-FF11b-FI02-V_1800 (450-850nm)_532nm_Edge_100%_x100_VIS_H50um_30sX2
#Remark=	
#Date=	04.11.2021 18:23
#Acquired=	04.11.2021 18:23:01
#Base:Fit=	16.12.2021 17:39:50
#Base:Fit=	16.12.2021 17:46:34
#Base:Sub=	16.12.2021 17:46:35
1202.73	5.97152
1203.01	9.06413
1203.29	4.60959
1203.57	0.183729
1203.85	5.42861
1204.12	3.17188
1204.4	6.27659
1204.68	4.00113
1204.96	4.94571
1205.24	0.522509
1205.51	-0.678177
1205.79	1.34181
1206.07	0.143879
1206.35	4.30647
1206.63	2.03863
1206.9	0.848694
1207.18	-0.337404
1207.46	2.76018
1207.74	3.71808
1208.01	3.6033
1208.29	3.48803
1208.57	2.30459
1208.85	1.12535
1209.13	-0.0490494
1209.4	1.98481
1209.68	0.809267
1209.96	-1.43868
1210.23	0.585348
1210.51	3.67824
1210.79	-0.701759
1211.07	0.256531
1211.35	0.148476
1211.62	-3.15883
1211.9	-2.1976
1212.18	0.895992
1212.46	-2.40364
1212.73	1.75571
1213.01	-4.73151
1213.29	1.55924
1213.57	0.400404
1213.84	-1.81864
1214.12	1.28566
1214.4	-0.933285
1214.68	0.041481
1214.95	4.21004
1215.23	0.926769
1215.51	-0.23068
1215.78	-2.45487
1216.06	0.638124
1216.34	3.72878
1216.62	2.56955
1216.9	1.41271
1217.17	-0.804586
1217.45	1.22878
1217.73	-2.04543
1218	-0.0108604
1218.28	-0.0964432
1218.56	3.00456
1218.84	-0.261154
1219.11	-5.64749
1219.39	-0.42754
1219.67	3.73484
1219.94	-3.76596
1220.22	1.45933
1220.5	1.38182
1220.77	4.48132
1221.05	-3.02016
1221.33	3.25831
1221.61	-0.00684357
1221.88	-2.21231
1222.16	-2.29987
1222.44	2.90266
1222.72	-0.357254
1222.99	-3.6155
1223.27	-1.58142
1223.55	-2.71982
1223.82	-2.79785
1224.1	3.46307
1224.38	-0.834293
1224.65	3.31863
1224.93	-0.969208
1225.21	-3.14152
1225.49	2.07571
1225.76	-1.15588
1226.04	-0.167168
1226.32	-0.235806
1226.59	-1.36118
1226.87	0.674191
1227.15	-2.57856
1227.42	6.81607
1227.7	-4.85127
1227.98	0.324421
1228.25	3.38757
1228.53	-4.04189
1228.81	0.151405
1229.08	1.22866
1229.36	-0.929153
1229.64	2.14198
1229.91	2.06248
1230.19	-2.20969
1230.47	4.04408
1230.74	3.92605
1231.02	-2.45782
1231.3	0.641308
1231.57	-1.51574
1231.85	1.57876
1232.13	0.472351
1232.4	3.56945
1232.68	-1.73955
1232.96	3.4583
1233.23	-0.794552
1233.51	-0.843239
1233.79	2.26089
1234.06	0.113506
1234.34	-0.981152
1234.62	1.07484
1234.89	-0.0225906
1235.17	-0.0670967
1235.45	-1.163
1235.72	5.09908
1236	0.84222
1236.27	-1.3128
1236.55	-1.36549
1236.83	2.78001
1237.1	0.619461
1237.38	-1.53931
1237.66	3.65096
1237.93	-2.7039
1238.21	1.43567
1238.49	-1.76161
1238.76	-3.90732
1239.04	-1.8574
1239.31	0.193447
1239.59	-0.89872
1239.87	1.15496
1240.14	-3.07881
1240.42	-2.07029
1240.7	2.08426
1240.97	-1.10133
1241.25	3.04393
1241.52	-0.145622
1241.8	1.909
1242.08	-2.31838
1242.35	-2.35513
1242.63	-1.33756
1242.91	-3.47095
1243.18	-3.50991
1243.46	2.74488
1243.74	1.66156
1244.01	-0.473949
1244.29	0.535412
1244.56	2.58991
1244.84	-0.599625
1245.11	-1.69248
1245.39	3.49428
1245.67	3.45016
1245.94	0.273094
1246.22	-2.90277
1246.49	3.34492
1246.77	2.2625
1247.05	-1.95934
1247.32	1.1464
1247.6	2.15115
1247.87	2.10571
1248.15	-3.15838
1248.43	6.22361
1248.7	-0.079361
1248.98	-3.24761
1249.25	-4.326
1249.53	-1.2184
1249.8	2.93164
1250.08	3.93706
1250.36	5.98829
1250.63	-2.41002
1250.91	-2.44488
1251.18	0.654751
1251.46	-2.51358
1251.74	3.71796
1252.01	2.63869
1252.29	3.64755
1252.56	1.52492
1252.84	-0.594189
1253.11	1.46515
1253.39	-3.77494
1253.66	1.42476
1253.94	2.45165
1254.22	0.344109
1254.49	1.36485
1254.77	0.298
1255.04	2.36369
1255.32	-1.83859
1255.59	-0.81781
1255.87	-1.88321
1256.14	0.187244
1256.42	-2.96577
1256.7	2.23381
1256.97	5.33981
1257.25	12.6228
1257.52	7.37587
1257.8	7.35039
1258.07	11.5012
1258.35	5.20588
1258.62	1.00536
1258.9	8.29459
1259.18	4.10154
1259.45	9.3235
1259.73	9.29902
1260	9.26889
1260.28	6.10118
1260.55	13.3722
1260.83	8.12738
1261.1	8.10286
1261.38	17.5095
1261.65	22.7762
1261.93	28.0954
1262.2	30.0686
1262.48	31.0077
1262.75	36.1158
1263.03	40.3389
1263.31	44.5643
1263.58	39.3829
1263.85	43.6532
1264.13	38.3489
1264.41	27.8505
1264.68	26.7861
1264.96	18.4126
1265.23	15.246
1265.51	12.0938
1265.78	9.99114
1266.06	7.89161
1266.33	11.0203
1266.61	4.74414
1266.88	7.87815
1267.16	8.92348
1267.43	3.69281
1267.71	3.69527
1267.98	2.6556
1268.26	4.74632
1268.53	6.8358
1268.81	1.59084
1269.08	9.9627
1269.36	6.79759
1269.63	6.77255
1269.91	5.70054
1270.18	8.81933
1270.46	1.47063
1270.73	5.64021
1271.01	6.67091
1271.28	1.42598
1271.56	8.74776
1271.83	2.46879
1272.1	8.75521
1272.38	5.61771
1272.65	7.71419
1272.93	7.7165
1273.2	6.67053
1273.48	6.67276
1273.75	7.72147
1274.03	5.61844
1274.3	7.70643
1274.58	7.69614
1274.85	3.4941
1275.13	3.49117
1275.4	9.7855
1275.68	12.9359
1275.95	13.988
1276.22	6.64005
1276.5	4.5389
1276.78	9.79148
1277.05	6.64385
1277.32	3.49471
1277.6	6.64955
1277.87	11.907
1278.15	15.0675
1278.42	17.175
1278.7	17.1782
1278.97	22.4323
1279.24	18.2136
1279.52	26.6145
1279.79	23.4476
1280.07	25.5473
1280.34	31.8566
1280.62	42.3843
1280.89	57.1374
1281.17	67.6785
1281.44	111.882
1281.71	138.2
1281.99	196.127
1282.26	282.434
1282.54	399.155
1282.81	541.774
1283.09	683.287
1283.36	838.819
1283.63	864.817
1283.91	691.125
1284.18	504.992
1284.46	313.292
1284.73	193.051
1285.01	135.028
1285.28	82.3619
1285.55	60.2725
1285.83	50.8058
1286.1	42.3547
1286.38	32.8734
1286.65	22.3394
1286.93	19.1706
1287.2	17.0512
1287.47	20.1961
1287.75	15.9814
1288.02	19.1371
1288.3	15.9789
1288.57	14.9308
1288.84	11.7799
1289.12	17.0512
1289.39	10.7413
1289.67	7.58979
1289.94	11.8063
1290.21	11.7976
1290.49	7.57835
1290.76	11.7882
1291.04	7.57314
1291.31	5.46407
1291.58	8.62009
1291.86	6.51513
1292.13	3.35543
1292.4	8.61416
1292.68	5.45331
1292.95	7.56675
1293.23	2.31836
1293.5	8.6593
1293.77	4.45675
1294.05	5.50836
1294.32	3.39879
1294.59	8.67004
1294.87	8.68772
1295.14	12.9331
1295.42	4.51809
1295.69	4.54571
1295.96	3.49761
1296.24	2.44199
1296.51	3.49747
1296.79	3.49044
1297.06	2.42572
1297.33	2.41661
1297.61	6.63093
1297.88	3.45902
1298.15	5.57528
1298.43	7.68031
1298.7	2.39477
1298.97	5.55618
1299.25	5.55293
1299.52	8.72532
1299.79	2.39889
1300.07	0.290508
1300.34	4.51445
1300.61	5.56938
1300.89	4.51527
1301.16	6.6338
1301.44	7.69927
1301.71	0.312477
1301.98	0.316097
1302.26	1.37419
1302.53	2.43034
1302.8	-1.79659
1303.08	0.311504
1303.35	3.47718
1303.62	5.59098
1303.9	4.53757
1304.17	-0.74033
1304.44	2.42636
1304.72	9.81198
1304.99	-3.91748
1305.26	2.40827
1305.54	-0.764549
1305.81	5.55793
1306.08	6.60903
1306.36	-1.82713
1306.63	3.45114
1306.9	-0.762703
1307.18	4.51375
1307.45	3.46105
1307.72	3.46605
1307.99	-3.91568
1308.27	-0.748268
1308.54	3.47934
1308.81	-3.89651
1309.09	-3.88793
1309.36	1.3965
1309.63	-2.82096
1309.91	2.45636
1310.18	3.51397
1310.45	-4.92367
1310.73	1.4138
1311	1.41928
1311.27	-2.79696
1311.54	1.43493
1311.82	6.72475
1312.09	-2.77008
1312.36	2.51472
1312.64	3.56766
1312.91	2.51185
1313.18	1.45802
1313.45	-1.7084
1313.73	0.405384
1314	-3.81134
1314.27	-0.637249
1314.55	-4.85157
1314.82	-1.67532
1315.09	1.50184
1315.36	5.73636
1315.64	-1.65108
1315.91	0.463207
1316.18	1.52163
1316.46	-2.69955
1316.73	-3.75157
1317	2.59277
1317.28	-1.62248
1317.55	2.61056
1317.82	-4.77755
1318.09	0.510536
1318.37	1.57225
1318.64	-0.53648
1318.91	0.523384
1319.18	0.526718
1319.46	-3.69294
1319.73	1.59557
1320	6.88165
1320.27	2.65641
1320.55	2.65337
1320.82	-2.63173
1321.09	-1.58269
1321.36	-4.75192
1321.64	-4.75565
1321.91	0.517109
1322.18	-0.537861
1322.45	0.516617
1322.73	3.67658
1323	-0.534519
1323.27	4.74576
1323.54	-2.62854
1323.82	0.539391
1324.09	2.65436
1324.36	3.71274
1324.63	-1.55064
1324.91	-1.55018
1325.18	1.60254
1325.45	-5.78642
1325.72	-4.7536
1325.99	-1.6062
1326.27	-1.60778
1326.54	2.61181
1326.81	2.6458
1327.08	-2.59688
1327.36	0.582798
1327.63	-0.450066
1327.9	0.626305
1328.17	2.75627
1328.45	2.77325
1328.72	-2.50362
1328.99	-0.382774
1329.26	3.84302
1329.53	2.79144
1329.81	-1.42641
1330.08	-0.371723
1330.35	-4.59179
1330.62	-2.48677
1330.9	1.72243
1331.17	0.656284
1331.44	0.646671
1331.71	-0.410786
1331.98	0.636681
1332.26	2.73397
1332.53	2.72472
1332.8	3.76839
1333.07	-4.64663
1333.34	0.603168
1333.62	0.598164
1333.89	-2.55622
1334.16	4.78956
1334.43	-0.46175
1334.7	4.78428
1334.98	4.78228
1335.25	-0.464008
1335.52	0.584862
1335.79	-2.56081
1336.06	-5.7047
1336.34	-1.50877
1336.61	-1.50581
1336.88	2.6904
1337.15	-1.49894
1337.42	5.83715
1337.69	1.63993
1337.96	3.73523
1338.24	1.64126
1338.51	-2.54696
1338.78	0.599403
1339.05	-0.440498
1339.32	3.75759
1339.6	2.71909
1339.87	-6.69815
1340.14	-1.45315
1340.41	-2.49316
1340.68	6.93752
1340.95	1.70609
1341.23	5.89769
1341.5	-0.38311
1341.77	4.85027
1342.04	0.660656
1342.31	-1.43543
1342.58	1.70204
1342.86	3.79743
1343.13	-3.51852
1343.4	1.71734
1343.67	-2.45848
1343.94	-0.358967
1344.21	1.73812
1344.48	4.87681
1344.76	-2.4429
1345.03	-1.40049
1345.3	1.7304
1345.57	-0.363205
1345.84	1.71568
1346.11	5.88079
1346.39	-0.385365
1346.66	2.73937
1346.93	-4.56491
1347.2	3.77508
1347.47	1.69146
1347.74	2.73703
1348.01	-0.385288
1348.28	-1.42441
1348.55	-3.50728
1348.83	-1.42316
1349.1	-0.381195
1349.37	1.70201
1349.64	1.70235
1349.91	1.70262
1350.18	1.70132
1350.45	2.73925
1350.73	2.73857
1351	-1.42308
1351.27	3.77838
1351.54	2.74443
1351.81	5.87449
1352.08	-5.55079
1352.35	9.03159
1352.62	0.723701
1352.89	4.91938
1353.17	6.01365
1353.44	1.84313
1353.71	-0.284489
1353.98	0.713001
1354.25	6.94384
1354.52	6.95776
1354.79	3.84011
1355.06	6.94651
1355.33	-1.34697
1355.6	6.9906
1355.88	1.79019
1356.15	-0.283581
1356.42	1.79819
1356.69	2.8412
1356.96	4.92119
1357.23	4.92272
1357.5	3.88535
1357.77	-3.37974
1358.04	-0.264851
1358.31	3.88678
1358.58	1.81071
1358.86	1.81237
1359.13	-0.258873
1359.4	7.00066
1359.67	2.84784
1359.94	8.02577
1360.21	4.91427
1360.48	2.84566
1360.75	3.88812
1361.02	9.0749
1361.29	8.04454
1361.56	3.90619
1361.83	4.94434
1362.1	0.806698
1362.37	5.98891
1362.65	9.10444
1362.92	7.04765
1363.19	7.06377
1363.46	3.96952
1363.73	7.0886
1364	10.2014
1364.27	11.2413
1364.54	12.278
1364.81	5.02797
1365.08	8.13154
1365.35	9.16388
1365.62	2.9535
1365.89	3.98675
1366.16	6.05224
1366.43	7.08003
1366.7	7.07671
1366.97	7.08038
1367.24	7.08972
1367.52	10.2048
1367.79	11.2499
1368.06	9.19399
1368.33	15.4083
1368.6	32.9968
1368.87	43.3506
1369.14	49.56
1369.41	29.915
1369.68	15.4442
1369.95	9.24131
1370.22	14.407
1370.49	8.20865
1370.76	7.17315
1371.03	5.10229
1371.3	6.12696
1371.57	9.21358
1371.84	10.2363
1372.11	8.16813
1372.38	12.2907
1372.65	9.19957
1372.92	8.1715
1373.19	13.3275
1373.46	4.05762
1373.73	13.3361
1374	15.4019
1374.27	11.286
1374.54	13.3493
1374.81	10.2665
1375.08	11.3101
1375.35	10.2902
1375.62	13.3916
1375.89	10.3028
1376.16	14.4191
1376.43	10.2942
1376.7	20.5737
1376.97	12.3461
1377.24	13.3943
1377.51	11.3617
1377.78	14.4831
1378.05	16.5835
1378.32	15.5783
1378.59	18.6823
1378.86	19.7164
1379.13	19.7175
1379.4	17.6553
1379.67	15.5871
1379.94	19.6735
1380.21	21.7088
1380.48	21.6871
1380.75	19.6446
1381.02	29.9314
1381.29	24.773
1381.56	28.8604
1381.83	28.839
1382.1	26.7703
1382.37	29.8316
1382.64	33.925
1382.91	36.9875
1383.18	39.0331
1383.45	46.2033
1383.72	59.5401
1383.99	57.5033
1384.26	70.8585
1384.53	72.9405
1384.8	105.831
1385.07	121.275
1385.34	170.61
1385.61	253.806
1385.87	382.258
1386.14	570.288
1386.41	960.657
1386.68	1517.23
1386.95	1910.01
1387.22	1662.91
1387.49	1074.95
1387.76	568.637
1388.03	320.787
1388.3	202.283
1388.57	140.961
1388.84	92.7015
1389.11	65.0233
1389.38	62.9622
1389.65	53.6763
1389.92	43.3445
1390.19	41.3355
1390.46	32.0729
1390.73	35.1458
1390.99	33.1048
1391.26	31.0508
1391.53	19.7738
1391.8	21.8171
1392.07	18.7436
1392.34	16.6972
1392.61	20.7946
1392.88	18.7508
1393.15	18.7548
1393.42	11.5957
1393.69	16.718
1393.96	15.7008
1394.23	11.6146
1394.5	15.7178
1394.76	13.6907
1395.03	13.7071
1395.3	11.6739
1395.57	14.7542
1395.84	15.7838
1396.11	14.7642
1396.38	16.8137
1396.65	13.7456
1396.92	11.6989
1397.19	17.839
1397.46	12.7321
1397.73	6.60654
1397.99	10.7123
1398.26	13.7957
1398.53	7.66973
1398.8	15.8705
1399.07	6.67736
1399.34	15.9029
1399.61	11.8204
1399.88	12.8574
1400.14	10.8299
1400.41	14.9442
1400.68	12.9074
1400.95	8.82339
1401.22	12.932
1401.49	16.0247
1401.76	11.9604
1402.03	10.9743
1402.3	8.95719
1402.57	14.1157
1402.83	12.084
1403.1	12.0973
1403.37	9.02205
1403.64	17.2199
1403.91	13.1197
1404.18	14.1557
1404.45	15.1861
1404.72	18.2651
1404.99	18.265
1405.25	19.2903
1405.52	20.3159
1405.79	21.3437
1406.06	23.398
1406.33	31.6079
1406.6	26.4971
1406.87	39.8391
1407.13	50.1063
1407.4	52.1723
1407.67	58.3397
1407.94	77.8375
1408.21	89.1356
1408.48	89.1569
1408.75	76.8705
1409.01	74.8388
1409.28	60.4954
1409.55	44.0968
1409.82	29.7365
1410.09	27.6795
1410.36	20.4936
1410.62	18.4389
1410.89	17.4138
1411.16	7.17031
1411.43	15.3722
1411.7	8.21481
1411.97	10.2846
1412.23	7.23818
1412.5	11.4039
1412.77	10.4354
1413.04	7.35497
1413.31	6.26885
1413.58	10.3716
1413.84	11.435
1414.11	7.37251
1414.38	9.43562
1414.65	4.3142
1414.92	7.40494
1415.19	5.36243
1415.45	4.34914
1415.72	8.47071
1415.99	10.5396
1416.26	3.36529
1416.53	3.38059
1416.8	4.42314
1417.06	8.5486
1417.33	8.56272
1417.6	9.60207
1417.87	6.53058
1418.14	-1.67644
1418.4	2.44406
1418.67	6.5685
1418.94	6.5763
1419.21	6.57975
1419.48	5.55384
1419.74	2.47547
1420.01	7.61328
1420.28	3.50729
1420.55	6.58923
1420.82	5.56702
1421.08	2.4987
1421.35	4.56829
1421.62	5.62344
1421.89	9.75283
1422.16	2.59243
1422.42	6.74155
1422.69	6.80077
1422.96	7.84637
1423.23	10.7124
1423.5	7.70404
1423.76	4.59899
1424.03	8.67356
1424.3	2.57219
1424.57	7.70222
1424.83	7.77149
1425.1	2.61246
1425.37	2.65151
1425.64	3.68533
1425.91	5.74388
1426.17	2.6672
1426.44	2.66807
1426.71	3.69255
1426.98	-0.408035
1427.24	-0.412968
1427.51	5.73477
1427.78	0.622032
1428.05	-2.43899
1428.32	6.78901
1428.58	1.68329
1428.85	1.69827
1429.12	0.690361
1429.38	4.8062
1429.65	2.7783
1429.92	0.749454
1430.19	1.79425
1430.46	2.84618
1430.72	-1.23025
1430.99	3.92087
1431.26	4.9614
1431.53	3.94204
1431.79	0.865444
1432.06	4.97269
1432.33	3.95031
1432.6	1.89576
1432.86	0.867119
1433.13	8.03393
1433.4	3.93468
1433.67	0.867882
1433.93	0.885586
1434.2	1.93835
1434.47	4.00111
1434.73	0.939175
1435	4.02426
1435.27	1.98485
1435.54	0.969429
1435.8	6.10125
1436.07	2.01133
1436.34	6.11668
1436.6	-1.04596
1436.87	-0.0121422
1437.14	3.0697
1437.41	3.0776
1437.67	2.06544
1437.94	-0.99139
1438.21	-2.00005
1438.48	1.08683
1438.74	1.09998
1439.01	2.14037
1439.28	9.33352
1439.54	-4.99462
1439.81	0.149384
1440.08	3.24042
1440.35	-1.87381
1440.61	4.29211
1440.88	1.22656
1441.15	1.23338
1441.41	1.24054
1441.68	3.30645
1441.95	-0.779922
1442.21	2.31341
1442.48	-1.77716
1442.75	-0.745224
1443.02	3.36222
1443.28	2.34422
1443.55	3.37875
1443.82	3.39119
1444.08	2.38577
1444.35	2.40733
1444.62	3.45725
1444.88	2.44544
1445.15	0.402008
1445.42	5.53986
1445.69	3.49683
1445.95	-1.6227
1446.22	5.5658
1446.49	0.447002
1446.75	3.53199
1447.02	1.48862
1447.28	-0.554127
1447.55	-7.72016
1447.82	3.57296
1448.09	1.54282
1448.35	-5.62027
1448.62	0.546341
1448.89	2.6075
1449.15	-0.461239
1449.42	0.570862
1449.69	-1.47369
1449.95	4.68517
1450.22	-3.50595
1450.49	-0.421597
1450.75	3.68708
1451.02	-2.45303
1451.29	0.629753
1451.55	3.71256
1451.82	4.74688
1452.09	2.70998
1452.35	4.77233
1452.62	0.689861
1452.88	-1.34336
1453.15	5.84432
1453.42	0.730595
1453.68	3.81446
1453.95	1.77678
1454.22	-4.35904
1454.48	-0.248196
1454.75	0.786522
1455.02	-4.32586
1455.28	0.815304
1455.55	-1.21737
1455.81	-3.25383
1456.08	3.93155
1456.35	-2.2104
1456.61	1.89404
1456.88	0.87859
1457.15	-1.16029
1457.41	0.898796
1457.68	-0.113102
1457.95	-3.1735
1458.21	-0.0859947
1458.48	1.97752
1458.74	1.99115
1459.01	-0.0438385
1459.28	-0.0320435
1459.54	-1.04605
1459.81	-2.0603
1460.08	1.0229
1460.34	3.08071
1460.61	2.06418
1460.87	3.09613
1461.14	-2.01581
1461.41	-3.03233
1461.67	3.11624
1461.94	-0.97213
1462.2	-3.01294
1462.47	-1.98454
1462.74	0.0657806
1463	0.0699997
1463.27	-0.945187
1463.54	0.0953445
1463.8	3.19566
1464.07	3.22229
1464.33	-0.846367
1464.6	-1.84132
1464.86	1.15797
1465.13	-1.92831
1465.4	-1.93172
1465.66	1.15681
1465.93	3.21635
1466.19	-1.88865
1466.46	-2.90964
1466.73	-0.849529
1466.99	-2.8789
1467.26	2.23224
1467.52	-0.817387
1467.79	3.27504
1468.05	2.26732
1468.32	0.238895
1468.59	1.26872
1468.85	-3.82148
1469.12	4.34436
1469.38	0.270161
1469.65	3.33321
1469.92	3.34045
1470.18	-4.80259
1470.45	2.33924
1470.71	0.312225
1470.98	1.33657
1471.24	0.325195
1471.51	2.37158
1471.77	0.34647
1472.04	-3.71444
1472.31	1.3889
1472.57	1.40034
1472.84	-2.66296
1473.1	-0.619308
1473.37	1.42501
1473.64	-0.600624
1473.9	-3.64142
1474.17	-1.59141
1474.43	-3.61032
1474.7	-2.57859
1474.96	-2.56568
1475.23	-0.519047
1475.49	-1.52752
1475.76	-0.500935
1476.02	-4.56005
1476.29	0.536205
1476.55	-0.473938
1476.82	-4.53286
1477.09	1.58094
1477.35	-1.45755
1477.62	3.63816
1477.88	2.62826
1478.15	0.602127
1478.41	0.610447
1478.68	-0.398006
1478.94	-2.42285
1479.21	1.64746
1479.47	3.68455
1479.74	-1.38996
1480	5.7182
1480.27	0.648399
1480.53	1.67187
1480.8	2.69499
1481.07	2.70787
1481.33	1.71164
1481.6	2.74617
1481.86	-3.32341
1482.12	-4.31967
1482.39	-3.28903
1482.65	0.788063
1482.92	2.83559
1483.19	1.83475
1483.45	-2.21412
1483.72	-0.178261
1483.98	1.84823
1484.25	-4.25208
1484.51	1.79981
1484.78	1.78464
1485.04	4.80537
1485.31	-0.195938
1485.57	0.865891
1485.84	0.893105
1486.1	-0.126339
1486.37	-3.15371
1486.63	-0.0908585
1486.9	-0.0816307
1487.16	4.98819
1487.43	3.9825
1487.69	-1.07266
1487.96	0.959526
1488.22	1.97731
1488.49	1.9836
1488.75	1.99246
1489.02	0.991104
1489.28	-0.00951004
1489.54	-4.0434
1489.81	1.02859
1490.07	0.02808
1490.34	-6.03237
1490.6	-0.968143
1490.87	0.0524902
1491.13	5.11929
1491.4	1.08834
1491.66	2.11454
1491.93	-3.93807
1492.19	11.2392
1492.46	4.17454
1492.72	4.18835
1492.99	4.20032
1493.25	1.17978
1493.52	-0.82819
1493.78	0.198143
1494.04	-4.83972
1494.31	5.28437
1494.57	2.26154
1494.84	-5.81819
1495.1	1.25817
1495.37	-3.78876
1495.63	2.27731
1495.9	-1.75252
1496.16	4.3146
1496.43	1.29488
1496.69	-2.72969
1496.96	1.32155
1497.22	1.3339
1497.48	-0.671772
1497.75	-2.6761
1498.01	0.366169
1498.28	1.39054
1498.54	1.40598
1498.81	2.43137
1499.07	-1.58938
1499.33	4.48493
1499.6	0.462868
1499.86	1.48695
1500.13	3.51915
1500.39	-0.505741
1500.66	-4.53133
1500.92	2.54184
1501.18	0.534245
1501.45	2.5656
1501.71	4.59684
1501.98	2.59095
1502.24	7.64322
1502.51	2.60449
1502.77	1.60698
1503.03	3.63052
1503.3	-4.42402
1503.56	-0.373581
1503.83	-0.357281
1504.09	3.69158
1504.35	0.679829
1504.62	-0.317005
1504.88	3.72602
1505.15	-2.31474
1505.41	1.71609
1505.68	4.7487
1505.94	1.73957
1506.2	4.77485
1506.47	0.765793
1506.73	2.79682
1507	6.84402
1507.26	3.83609
1507.52	0.82547
1507.79	0.837025
1508.05	2.86666
1508.32	-0.140293
1508.58	7.93613
1508.84	-1.1184
1509.11	0.910362
1509.37	1.93378
1509.63	-2.07569
1509.9	-0.0517159
1510.16	2.97971
1510.43	1.97888
1510.69	3.99909
1510.95	7.0217
1511.22	5.00375
1511.48	3.99188
1511.75	-5.05761
1512.01	5.99426
1512.27	7.0026
1512.54	2.99104
1512.8	2.99806
1513.07	3.00707
1513.33	2.01919
1513.59	0.0420074
1513.86	1.06841
1514.12	2.08467
1514.38	7.11518
1514.65	4.10567
1514.91	3.1084
1515.17	3.11243
1515.44	-3.90622
1515.7	3.12088
1515.96	-1.88256
1516.23	4.14611
1516.49	5.16049
1516.76	0.16032
1517.02	4.18551
1517.28	2.19635
1517.55	5.22464
1517.81	1.23169
1518.07	7.26627
1518.34	1.26514
1518.6	5.29492
1518.86	5.31261
1519.13	-5.70652
1519.39	1.33139
1519.65	5.35682
1519.92	-0.650364
1520.18	-3.64494
1520.44	1.38827
1520.71	6.42285
1520.97	-0.584097
1521.23	1.43711
1521.5	5.4628
1521.76	-0.545696
1522.02	-1.5377
1522.29	4.49168
1522.55	0.489822
1522.81	2.50185
1523.08	0.49976
1523.34	4.51204
1523.6	-2.49364
1523.87	2.52319
1524.13	1.53095
1524.39	2.54724
1524.66	4.56748
1524.92	5.58526
1525.18	4.60218
1525.45	3.62142
1525.71	2.64242
1525.97	5.67183
1526.24	2.68443
1526.5	-1.30975
1526.76	-0.29563
1527.02	-1.28601
1527.29	4.73922
1527.55	10.7633
1527.81	0.754248
1528.08	-2.24002
1528.34	2.78054
1528.6	4.79645
1528.87	0.803612
1529.13	6.82661
1529.39	1.82908
1529.65	5.84642
1529.92	4.86131
1530.18	-0.125957
1530.44	6.90792
1530.71	-3.09026
1530.97	0.934875
1531.23	-1.05563
1531.5	5.9734
1531.76	-3.0324
1532.02	4.99872
1532.28	7.02537
1532.55	5.0479
1532.81	2.06661
1533.07	4.09417
1533.34	1.10344
1533.6	2.12219
1533.86	2.13581
1534.12	2.14835
1534.39	4.1659
1534.65	6.18329
1534.91	2.18227
1535.17	4.18817
1535.44	-0.820015
1535.7	1.19099
1535.96	1.19607
1536.22	3.20131
1536.49	-0.798988
1536.75	4.21279
1537.01	6.22031
1537.28	3.23263
1537.54	3.24331
1537.8	1.24823
1538.06	2.25755
1538.33	6.26623
1538.59	0.287931
1538.85	0.31711
1539.11	4.35748
1539.38	8.39843
1539.64	-0.586191
1539.9	6.45858
1540.16	1.47245
1540.43	1.4949
1540.69	2.50229
1540.95	5.52032
1541.21	0.51638
1541.48	3.52923
1541.74	2.53375
1542	5.54473
1542.26	7.55343
1542.52	2.55456
1542.79	1.56096
1543.05	8.57009
1543.31	7.56941
1543.57	-1.4185
1543.84	1.5978
1544.1	4.61822
1544.36	9.64644
1544.62	2.66427
1544.89	4.69385
1545.15	2.71587
1545.41	3.73717
1545.67	-2.25301
1545.93	0.765903
1546.2	4.78774
1546.46	6.80972
1546.72	3.82294
1546.98	4.84513
1547.25	3.85611
1547.51	3.85182
1547.77	6.86717
1548.03	1.87284
1548.29	9.9172
1548.56	4.90269
1548.82	3.87752
1549.08	1.87418
1549.34	5.89854
1549.61	3.94076
1549.87	9.01885
1550.13	5.06287
1550.39	11.1576
1550.65	3.11744
1550.91	5.13993
1551.18	1.13676
1551.44	7.15825
1551.7	4.1711
1551.96	7.21854
1552.22	4.21873
1552.49	3.2265
1552.75	3.21475
1553.01	2.21647
1553.27	3.23215
1553.53	4.24461
1553.79	7.25842
1554.06	2.2501
1554.32	1.24943
1554.58	2.26039
1554.84	1.27061
1555.1	3.28772
1555.37	3.30379
1555.63	4.32357
1555.89	3.33064
1556.15	6.34923
1556.41	5.36444
1556.68	6.38325
1556.94	2.39229
1557.2	5.4116
1557.46	4.42113
1557.72	-0.582449
1557.98	7.43486
1558.25	8.43788
1558.51	3.43797
1558.77	4.44349
1559.03	-0.549709
1559.29	5.45806
1559.55	8.46609
1559.82	4.47831
1560.08	-2.50583
1560.34	5.50148
1560.6	5.51518
1560.86	4.53127
1561.12	3.55166
1561.38	6.57279
1561.65	1.60023
1561.91	4.61798
1562.17	2.63149
1562.43	4.64367
1562.69	5.65897
1562.95	4.67183
1563.21	7.68272
1563.48	2.70467
1563.74	4.73302
1564	-0.24847
1564.26	2.76904
1564.52	1.77328
1564.78	6.74269
1565.04	6.67601
1565.3	3.63079
1565.57	4.72873
1565.83	2.82142
1566.09	3.83782
1566.35	4.82698
1566.61	3.85338
1566.87	9.90147
1567.13	5.92095
1567.39	6.91339
1567.66	7.92253
1567.92	6.94234
1568.18	7.96056
1568.44	4.97467
1568.7	3.97947
1568.96	10.9801
1569.22	3.99683
1569.48	6.0121
1569.75	2.03043
1570.01	10.0408
1570.27	7.05687
1570.53	7.07012
1570.79	3.0848
1571.05	4.09415
1571.31	4.10237
1571.57	5.11351
1571.83	8.12139
1572.1	1.13855
1572.36	7.13905
1572.62	5.15164
1572.88	6.15888
1573.14	9.16165
1573.4	2.18837
1573.66	4.20296
1573.92	7.21943
1574.18	8.24084
1574.44	6.26698
1574.7	3.29283
1574.97	4.31328
1575.23	2.33225
1575.49	3.3445
1575.75	7.35516
1576.01	4.3695
1576.27	1.37856
1576.53	3.37909
1576.79	1.38496
1577.05	1.38852
1577.31	6.38091
1577.57	7.38139
1577.83	4.39606
1578.1	6.40087
1578.36	4.42038
1578.62	4.43425
1578.88	7.43922
1579.14	4.46366
1579.4	8.47041
1579.66	6.4939
1579.92	8.50393
1580.18	5.52599
1580.44	9.52559
1580.7	0.561285
1580.96	13.5305
1581.22	5.56389
1581.48	4.57375
1581.74	2.59143
1582	9.57714
1582.26	4.60735
1582.53	2.62707
1582.79	9.61234
1583.05	6.6377
1583.31	7.64448
1583.57	6.66106
1583.83	1.69744
1584.09	7.69008
1584.35	6.7099
1584.61	8.71657
1584.87	5.74048
1585.13	1.76935
1585.39	8.75355
1585.65	1.78976
1585.91	5.77837
1586.17	4.79003
1586.43	9.77506
1586.69	4.80911
1586.95	10.7898
1587.21	4.83156
1587.47	6.83466
1587.73	8.8405
1587.99	6.86789
1588.25	6.88673
1588.51	7.90037
1588.77	4.93251
1589.03	5.94553
1589.29	4.96573
1589.55	1.99248
1589.81	7.98189
1590.07	8.99527
1590.33	6.02589
1590.59	7.03536
1590.85	4.06136
1591.12	5.06933
1591.38	8.06779
1591.64	3.09727
1591.9	5.09216
1592.16	5.0966
1592.42	7.09562
1592.68	5.10926
1592.94	9.08718
1593.2	4.11586
1593.46	6.10638
1593.72	5.12038
1593.98	5.13233
1594.24	3.16162
1594.5	6.16177
1594.76	2.2058
1595.02	6.19887
1595.28	9.17778
1595.54	8.19336
1595.8	7.21341
1596.06	6.23376
1596.32	9.22784
1596.58	4.27703
1596.84	5.2864
1597.09	8.28383
1597.35	5.31725
1597.61	7.31531
1597.87	6.33054
1598.13	3.35625
1598.39	2.36878
1598.65	1.38349
1598.91	3.37666
1599.17	6.36152
1599.43	5.37694
1599.69	7.36881
1599.95	6.38414
1600.21	3.41533
1600.47	5.40208
1600.73	4.41373
1600.99	7.38807
1601.25	2.4396
1601.51	10.3666
1601.77	3.44334
1602.03	10.378
1602.29	4.44548
1602.55	2.47288
1602.81	2.47993
1603.07	8.42196
1603.33	3.48754
1603.59	-0.455639
1603.85	8.45611
1604.11	3.5266
1604.37	7.49516
1604.63	4.5425
1604.89	4.55652
1605.14	6.54896
1605.4	-0.356827
1605.66	6.58332
1605.92	6.60081
1606.18	-0.307806
1606.44	10.5915
1606.7	6.64847
1606.96	2.7036
1607.22	3.68579
1607.48	6.62098
1607.74	5.59875
1608	4.56428
1608.26	10.4335
1608.52	2.77979
1608.78	5.73985
1609.04	7.47822
1609.29	7.10608
1609.55	2.98824
1609.81	6.63271
1610.07	6.15786
1610.33	8.79299
1610.59	6.59866
1610.85	4.94549
1611.11	2.64564
1611.37	4.68574
1611.63	8.82963
1611.89	4.05478
1612.15	7.87528
1612.4	3.77353
1612.66	4.64868
1612.92	8.07301
1613.18	1.45432
1613.44	5.55068
1613.7	8.16158
1613.96	5.0463
1614.22	3.34156
1614.48	4.31581
1614.74	6.46161
1615	2.39165
1615.25	7.46255
1615.51	5.5561
1615.77	3.74934
1616.03	6.28409
1616.29	3.05621
1616.55	7.01047
1616.81	6.45527
1617.07	4.91531
1617.33	3.39177
1617.59	2.83702
1617.84	4.46453
1618.1	6.389
1618.36	8.05812
1618.62	2.85457
1618.88	4.52227
1619.14	3.81242
1619.4	4.67038
1619.66	4.86997
1619.91	5.74649
1620.17	4.25307
1620.43	2.60281
1620.69	3.45557
1620.95	2.47124
1621.21	3.43252
1621.47	4.83845
1621.73	3.11461
1621.98	4.94313
1622.24	4.43811
1622.5	6.61232
1622.76	3.83544
1623.02	5.47539
1623.28	4.35337
1623.54	5.8759
1623.79	1.50226
1624.05	3.74634
1624.31	2.37787
1624.57	4.41792
1624.83	4.47948
1625.09	1.84666
1625.35	4.08222
1625.6	5.35807
1625.86	3.39975
1626.12	4.09475
1626.38	4.79296
1626.64	4.16056
1626.9	1.37481
1627.16	3.8567
1627.41	3.69532
1627.67	1.75045
1627.93	3.47242
1628.19	2.16657
1628.45	4.61917
1628.71	3.59103
1628.96	3.99842
1629.22	-1.11536
1629.48	2.09648
1629.74	1.061
1630	3.33289
1630.26	4.8775
1630.51	8.4071
1630.77	1.8049
1631.03	5.58149
1631.29	1.85534
1631.3	1.7589
1631.56	2.76111
1631.82	3.75826
1632.08	-0.166685
1632.34	-0.142574
1632.6	2.82249
1632.86	0.848228
1633.13	4.79579
1633.39	-1.10202
1633.65	1.87045
1633.91	-0.0872517
1634.17	5.83922
1634.43	2.89356
1634.69	1.91839
1634.96	5.87075
1635.22	2.92311
1635.48	1.94629
1635.74	3.92496
1636	2.9474
1636.26	3.93999
1636.52	4.93158
1636.79	4.93708
1637.05	1.00649
1637.31	5.93994
1637.57	2.01046
1637.83	3.00321
1638.09	0.0588036
1638.35	-0.914036
1638.61	3.03477
1638.87	5.01443
1639.13	2.07241
1639.4	5.0363
1639.66	5.0463
1639.92	2.10422
1640.18	6.05908
1640.44	-0.817469
1640.7	1.16462
1640.96	4.12819
1641.22	-0.787094
1641.48	-0.77796
1641.75	0.216097
1642.01	1.21038
1642.27	2.2044
1642.53	1.23013
1642.79	9.11458
1643.05	3.21942
1643.31	1.25962
1643.57	0.283489
1643.83	5.21049
1644.09	0.297157
1644.35	6.20976
1644.62	2.28654
1644.88	4.26987
1645.14	-0.637619
1645.4	3.31082
1645.66	1.35079
1645.92	2.3421
1646.18	5.30111
1646.44	2.35822
1646.7	1.38292
1646.96	5.32428
1647.22	-1.55191
1647.48	0.424322
1647.74	5.35312
1648.01	3.4013
1648.27	1.4498
1648.53	3.43986
1648.79	3.46121
1649.05	1.49892
1649.31	4.45981
1649.57	1.51593
1649.83	2.51736
1650.09	0.566471
1650.35	5.50641
1650.61	3.55275
1650.87	1.59661
1651.13	2.59427
1651.39	-0.351347
1651.65	0.64439
1651.92	-0.329994
1652.18	0.664162
1652.44	2.64156
1652.7	2.64986
1652.96	0.689407
1653.22	2.67118
1653.48	0.71324
1653.74	3.68178
1654	-4.19088
1654.26	6.6619
1654.52	3.7187
1654.78	3.73431
1655.04	-0.192211
1655.3	2.78634
1655.56	2.804
1655.82	4.79276
1656.08	-1.11658
1656.34	-0.118128
1656.6	3.8399
1656.86	1.87346
1657.12	4.84124
1657.38	3.86196
1657.64	2.88293
1657.9	6.83665
1658.16	-2.03704
1658.42	5.86073
1658.69	2.90701
1658.95	0.940283
1659.21	1.93206
1659.47	1.936
1659.73	4.904
1659.99	-0.0122776
1660.25	1.97341
1660.51	1.00159
1660.77	2.00254
1661.03	1.03136
1661.29	4.00364
1661.55	-1.90259
1661.81	2.02337
1662.07	3.06828
1662.33	-1.82876
1662.59	3.11073
1662.85	1.13835
1663.11	6.09543
1663.37	-0.880091
1663.63	5.08015
1663.89	1.14995
1664.15	1.15914
1664.41	6.1208
1664.67	-2.75056
1664.93	6.12754
1665.19	2.13298
1665.45	5.19372
1665.71	3.23611
1665.97	2.24882
1666.23	1.26478
1666.49	2.12473
1666.75	3.22446
1667.01	0.266401
1667.27	6.19144
1667.53	3.23791
1667.79	4.22824
1668.05	1.27661
1668.31	4.25562
1668.56	0.334408
1668.83	-0.640701
1669.09	1.3442
1669.35	4.31746
1669.6	4.32514
1669.86	2.35522
1670.12	-0.587349
1670.38	4.37601
1670.64	1.41659
1670.9	1.42302
1671.16	3.40742
1671.42	1.4398
1671.68	2.43983
1671.94	-2.49298
1672.2	4.43553
1672.46	-0.498701
1672.72	4.45331
1672.98	-0.479721
1673.24	1.50782
1673.5	1.51908
1673.76	1.53121
1674.02	0.554256
1674.28	3.53345
1674.54	3.54707
1674.8	0.592014
1675.06	-3.35542
1675.32	3.58119
1675.58	2.59959
1675.83	1.61898
1676.1	0.639215
1676.35	1.63824
1676.61	1.64647
1676.87	1.65353
1677.13	0.670019
1677.39	3.64344
1677.65	-2.28933
1677.91	1.67047
1678.17	1.67369
1678.43	2.66683
1678.69	2.67166
1678.95	3.66588
1679.21	1.69442
1679.47	-0.276863
1679.73	2.69412
1679.98	1.71143
1680.25	-0.259315
1680.5	1.72252
1680.76	1.7291
1681.02	1.73654
1681.28	3.72012
1681.54	2.74016
1681.8	1.76042
1682.06	-0.206982
1682.32	-0.199755
1682.58	3.75894
1682.84	-1.17295
1683.1	0.810606
1683.35	1.80574
1683.61	3.78768
1683.87	1.81623
1684.13	3.79663
1684.39	-1.13478
1684.65	2.82205
1684.91	1.84174
1685.17	0.861814
1685.43	-2.09273
1685.69	0.877792
1685.95	-0.100489
1686.2	3.86319
1686.46	-3.04089
1686.72	2.8951
1686.98	3.88877
1687.24	-2.03337
1687.5	1.92201
1687.76	1.9271
1688.02	3.90669
1688.28	1.93591
1688.54	0.950382
1688.79	1.94047
1689.05	-1.01696
1689.31	3.91889
1689.57	-1.99831
1689.83	1.95034
1690.09	1.96458
1690.35	1.97555
1690.6	0.998663
1690.86	-1.95277
1691.12	-1.9436
1691.38	-1.93386
1691.64	3.99542
1691.9	-0.933233
1692.16	3.01816
1692.42	2.0335
1692.68	1.04853
1692.93	1.04897
1693.19	3.02026
1693.45	0.0642204
1693.71	2.03768
1693.97	1.05393
1694.23	1.05687
1694.49	5.00293
1694.74	-1.88409
1695	5.02016
1695.26	-2.85275
1695.52	-1.8591
1695.78	1.10672
1696.04	2.10192
1696.3	1.12359
1696.55	0.143002
1696.81	2.11625
1697.07	4.08663
1697.33	-0.837883
1697.59	2.11732
1697.85	4.08809
1698.11	-1.81505
1698.36	2.12474
1698.62	2.12922
1698.88	1.15109
1699.14	1.15879
1699.4	1.16598
1699.66	4.12505
1699.92	-0.791849
1700.17	-0.787066
1700.43	-0.781443
1700.69	2.17499
1700.95	2.17935
1701.21	1.19845
1701.46	4.14995
1701.72	-1.74747
1701.98	-0.762442
1702.24	0.222399
1702.5	2.1922
1702.76	-0.750154
1703.01	0.237457
1703.27	0.241598
1703.53	0.246275
1703.79	1.23666
1704.05	2.22895
1704.3	3.21924
1704.56	-1.68868
1704.82	0.281267
1705.08	-0.695259
1705.34	0.293846
1705.6	0.296736
1705.85	0.297907
1706.11	-1.66559
1706.37	0.298506
1706.63	0.298464
1706.89	-1.66316
1707.14	4.22356
1707.4	1.27849
1707.66	3.23735
1707.92	-1.66566
1708.18	2.25123
1708.43	3.22768
1708.69	0.289494
1708.95	-0.687559
1709.21	-0.683483
1709.47	-1.65704
1709.72	1.28608
1709.98	-0.665308
1710.24	1.30006
1710.5	1.31006
1710.76	0.338953
1711.01	0.346947
1711.27	-2.5837
1711.53	-3.55667
1711.79	-0.614332
1712.04	2.32328
1712.3	-3.55445
1712.56	-2.5789
1712.82	-2.58238
1713.08	2.30443
1713.33	-1.60983
1713.59	-1.60859
1713.85	1.32476
1714.11	-0.625742
1714.36	-2.57505
1714.62	0.359972
1714.88	-1.58539
1715.14	-0.596619
1715.4	0.386179
1715.65	0.389898
1715.91	-2.5385
1716.17	-1.56062
1716.43	-1.56117
1716.68	5.26938
1716.94	2.33578
1717.2	-4.49797
1717.46	4.27127
1717.71	-4.50344
1717.97	0.365318
1718.23	-2.55649
1718.49	3.28782
1718.74	-2.54974
1719	-0.597216
1719.26	-1.56675
1719.52	-1.56082
1719.78	1.36719
1720.03	-0.576895
1720.29	2.34476
1720.55	2.34329
1720.81	1.36928
1721.06	2.34243
1721.32	-1.54862
1721.58	1.36806
1721.83	-0.577452
1722.09	3.30902
1722.35	-0.57881
1722.61	-0.578814
1722.86	-1.54916
1723.12	1.36628
1723.38	-1.54272
1723.64	2.34488
1723.89	3.31902
1724.15	1.37877
1724.41	1.37747
1724.66	-1.53745
1724.92	2.33863
1725.18	-1.544
1725.44	0.393156
1725.69	-0.574459
1725.95	-0.568798
1726.21	-2.50301
1726.46	4.28134
1726.72	3.30867
1726.98	2.3423
1727.24	-2.49153
1727.49	0.419407
1727.75	4.2947
1728.01	2.35346
1728.27	-1.54125
1728.52	-2.53572
1728.78	1.31282
1729.04	4.22244
1729.29	-0.586735
1729.55	4.25811
1729.81	-2.50956
1730.06	-1.54663
1730.32	-1.54518
1730.58	2.34505
1730.83	4.28844
1731.09	3.3274
1731.35	-1.50084
1731.61	1.40171
1731.86	-4.39413
1732.12	1.40565
1732.38	-2.4578
1732.63	-1.49164
1732.89	1.40323
1733.15	-3.42808
1733.4	1.39143
1733.66	0.423689
1733.92	-0.543594
1734.17	-1.51056
1734.43	-2.477
1734.69	-0.552855
1734.95	0.407555
1735.2	1.36946
1735.46	0.406885
1735.72	4.25896
1735.97	2.33567
1736.23	1.37412
1736.49	0.412817
1736.74	0.413509
1737	-2.47143
1737.26	2.33912
1737.51	0.415741
1737.77	0.414814
1738.03	1.37505
1738.28	0.412971
1738.54	1.37231
1738.8	2.33
1739.05	0.404524
1739.31	1.35766
1739.57	1.35083
1739.82	1.34528
1740.08	-0.576168
1740.34	-0.577993
1740.59	0.379061
1740.85	6.12544
1741.1	-1.53889
1741.36	-0.58123
1741.62	-1.53746
1741.88	-0.577587
1742.13	0.382092
1742.39	0.383381
1742.64	3.25704
1742.9	-0.568602
1743.16	-1.52361
1743.41	3.26057
1743.67	-0.567699
1743.93	-1.52378
1744.18	-0.565704
1744.44	1.35093
1744.69	-2.47111
1744.95	-0.554213
1745.21	-0.551489
1745.46	3.27515
1745.72	-1.50716
1745.98	1.35889
1746.23	1.35526
1746.49	-1.51364
1746.74	0.39463
1747	-0.562748
1747.26	-2.47365
1747.51	2.29971
1747.77	-0.561205
1748.03	-1.51206
1748.28	-0.553171
1748.54	1.36111
1748.8	2.32197
1749.05	1.37452
1749.31	-1.48263
1749.56	1.39165
1749.82	-0.51026
1750.08	0.453878
1750.33	-0.495977
1750.59	-0.490294
1750.84	-0.485744
1751.1	-2.39651
1751.36	-2.39853
1751.61	-2.40154
1751.87	-0.493004
1752.12	-0.494545
1752.38	-1.45105
1752.64	-0.49811
1752.89	0.455059
1753.15	0.454235
1753.4	2.36167
1753.66	2.35956
1753.92	-4.31808
1754.17	1.40264
1754.43	4.26229
1754.68	2.35583
1754.94	-1.45645
1755.2	2.35492
1755.45	-4.31625
1755.71	-0.507627
1755.96	-0.510473
1756.22	-0.514452
1756.47	0.433044
1756.73	-2.42491
1756.99	-2.42493
1757.24	-0.522274
1757.5	-2.42086
1757.75	-3.36361
1758.01	2.35094
1758.27	5.20948
1758.52	5.21289
1758.78	2.36152
1759.03	-0.489035
1759.29	0.465467
1759.54	-0.484737
1759.8	2.37077
1760.05	-0.482838
1760.31	1.42022
1760.57	2.37057
1760.82	3.3193
1761.08	1.41572
1761.33	0.464678
1761.59	2.36696
1761.84	0.466627
1762.1	-2.37834
1762.36	2.38118
1762.61	-5.22178
1762.87	-0.466028
1763.12	-0.462641
1763.38	0.492556
1763.63	-1.40428
1763.89	-0.447048
1764.14	3.37146
1764.4	1.47508
1764.66	0.529482
1764.91	0.534521
1765.17	0.53898
1765.42	0.542721
1765.68	-1.35853
1765.93	2.45183
1766.19	-0.403275
1766.44	0.549259
1766.7	-1.35193
1766.95	-0.399078
1767.21	0.552465
1767.46	-4.20669
1767.72	-0.400127
1767.98	1.50232
1768.23	1.50461
1768.48	-0.40354
1768.74	-3.26539
1769	0.527275
1769.25	-1.37968
1769.51	-0.427288
1769.76	-1.37055
1770.02	-0.410946
1770.27	2.44208
1770.53	-1.3544
1770.78	0.553337
1771.04	0.565033
1771.29	-1.33003
1771.55	0.575092
1771.8	-0.37007
1772.06	-3.21687
1772.31	0.594578
1772.57	-4.15776
1772.82	0.605192
1773.08	-2.2452
1773.33	5.3742
1773.59	-0.332764
1773.84	-0.328993
1774.1	-0.325516
1774.35	3.48836
1774.61	-0.315847
1774.86	4.45219
1775.12	-1.2514
1775.37	0.663923
1775.63	0.669756
1775.88	3.53332
1776.14	1.62815
1776.39	2.58088
1776.65	0.672815
1776.9	-2.18658
1777.16	1.62341
1777.41	-0.284
1777.67	-1.23836
1777.92	-2.19234
1778.18	4.4701
1778.43	-1.24565
1778.69	-0.29789
1778.94	-2.20269
1779.2	-0.298651
1779.45	1.61197
1779.71	-0.28647
1779.96	-2.18623
1780.21	0.673254
1780.47	-0.274193
1780.73	0.680723
1780.98	-4.0764
1781.23	-0.264294
1781.49	-2.16373
1781.74	2.60366
1782	-3.10418
1782.25	0.712303
1782.51	0.7173
1782.76	-0.231033
1783.02	-3.08552
1783.27	1.68553
1783.53	-2.12259
1783.78	-4.97782
1784.04	2.6595
1784.29	1.71192
1784.54	-1.14598
1784.8	1.71866
1785.05	-1.14266
1785.31	-0.188814
1785.56	1.71816
1785.82	-2.09537
1786.07	-1.13797
1786.33	-1.1327
1786.58	3.64529
1786.84	-3.02775
1787.09	-0.154476
1787.34	-1.09464
1787.6	1.78944
1787.85	-2.97587
1788.11	1.82167
1788.36	-0.0869846
1788.62	-0.0805073
1788.87	0.888365
1789.12	3.77164
1789.38	-0.0564651
1789.63	1.86516
1789.89	-0.0464516
1790.14	-4.83746
1790.4	2.83253
1790.65	-0.0436554
1790.91	-1.97432
1791.16	-1.97408
1791.41	-1.01711
1791.67	0.900085
1791.92	0.90307
1792.18	-2.92546
1792.43	-1.963
1792.68	1.87251
1792.94	-0.998507
1793.19	-0.997562
1793.45	-0.0340672
1793.7	-1.94808
1793.96	-0.029232
1794.21	-2.90578
1794.46	5.72234
1794.72	-0.965509
1794.97	1.92722
1795.23	0.976372
1795.48	0.981766
1795.73	1.94798
1795.99	-0.926758
1796.24	0.0397797
1796.49	1.0069
1796.75	1.97412
1797	-0.903431
1797.26	0.0625095
1797.51	-1.85597
1797.76	1.99364
1798.02	1.99696
1798.27	-0.885616
1798.53	0.07654
1798.78	1.03728
1799.04	0.0740662
1799.29	1.0324
1799.54	1.02944
1799.8	1.02753
1800.05	1.02617
1800.3	-0.895668
1800.56	1.02553
1800.81	0.0657272
1801.07	-0.89336
1801.32	1.02991
1801.57	0.0723686
1801.83	0.0760231
1802.08	0.0804291
1802.33	1.04666
1802.59	0.0916443
1802.84	1.05946
1803.1	-0.857683
1803.35	0.107855
1803.6	-0.85111
1803.86	-2.77094
1804.11	1.08237
1804.36	-2.76052
1804.62	3.0198
1804.87	1.10237
1805.13	1.10975
1805.38	-1.77291
1805.63	0.159073
1805.89	1.12771
1806.14	1.13254
1806.39	0.172567
1806.65	0.175011
1806.9	-1.75086
1807.15	0.178259
1807.41	-3.67536
1807.66	-3.67362
1807.91	-0.780172
1808.17	1.1497
1808.42	2.1159
1808.67	1.15431
1808.93	2.12059
1809.18	4.05114
1809.43	-0.76685
1809.69	-0.764687
1809.94	-2.69131
1810.2	3.0941
1810.45	1.16594
1810.7	-0.761341
1810.95	-0.760433
1811.21	-0.759472
1811.46	1.17013
1811.71	-0.755817
1811.97	0.212006
1812.22	1.18073
1812.47	1.18632
1812.73	1.19168
1812.98	1.19414
1813.23	2.16338
1813.49	-1.69032
1813.74	-0.717964
1813.99	4.117
1814.25	3.16208
1814.5	-1.66225
1814.75	0.27529
1815.01	1.24508
1815.26	-2.61816
1815.51	1.25003
1815.77	0.286158
1816.02	-1.64478
1816.27	0.292379
1816.53	-1.64142
1816.78	3.19141
1817.03	0.282419
1817.29	0.273998
1817.54	-0.68997
1817.79	-4.54898
1818.04	0.287958
1818.3	-1.63838
1818.55	-1.63881
1818.8	-2.60265
1819.06	-0.666069
1819.31	-0.661995
1819.56	0.307903
1819.81	1.27859
1820.07	2.25009
1820.32	1.28716
1820.57	1.29047
1820.83	2.26215
1821.08	-0.635189
1821.33	-1.59838
1821.58	1.30875
1821.84	-1.59142
1822.09	4.21909
1822.34	0.349689
1822.6	-0.615973
1822.85	-0.614775
1823.1	-1.58346
1823.35	-0.616411
1823.61	1.31925
1823.86	1.3222
1824.11	0.357542
1824.37	3.26504
1824.62	0.364059
1824.87	0.367712
1825.12	1.33922
1825.38	0.372578
1825.63	3.27899
1825.88	3.28042
1826.14	0.376949
1826.39	-1.55844
1826.64	-0.587608
1826.89	1.35292
1827.15	1.35666
1827.4	-0.577452
1827.65	0.393225
1827.9	0.393356
1828.16	-3.48258
1828.41	2.32784
1828.66	2.32629
1828.91	2.32629
1829.17	-0.578938
1829.42	-4.45283
1829.67	0.388123
1829.92	4.25935
1830.18	1.35332
1830.43	2.3219
1830.68	1.35731
1830.93	-0.575062
1831.19	-0.570946
1831.44	-2.50422
1831.69	1.37438
1831.94	1.37879
1832.2	1.38439
1832.45	3.32787
1832.7	3.33002
1832.95	0.423576
1833.2	-0.542864
1833.46	0.429052
1833.71	1.40093
1833.96	4.30573
1834.21	4.29351
1834.47	1.37571
1834.72	-3.47374
1834.97	-1.54384
1835.22	0.386259
1835.47	2.32019
1835.73	0.382971
1835.98	-0.514975
1836.23	-3.40428
1836.48	-2.4606
1836.74	4.31175
1836.99	2.35902
1837.24	-0.560089
1837.49	0.387714
1837.75	-3.49297
1838	1.33491
1838.25	3.30248
1838.5	1.39252
1838.75	-2.47232
1839.01	-0.529671
1839.26	0.443325
1839.51	0.449587
1839.76	-1.50243
1840.01	-4.42147
1840.26	-0.562027
1840.52	0.394382
1840.77	-1.5482
1841.02	-1.55655
1841.27	1.3324
1841.53	0.35939
1841.78	-0.612207
1842.03	2.27504
1842.28	-0.615566
1842.53	-0.615473
1842.79	-2.54213
1843.04	1.31761
1843.29	1.31853
1843.54	-3.50525
1843.79	-1.57565
1844.04	0.356764
1844.3	0.3587
1844.55	-0.607891
1844.8	-2.53591
1845.05	2.28821
1845.3	4.22758
1845.56	0.379023
1845.81	-0.576569
1846.06	0.405264
1846.31	-0.567785
1846.56	-1.55972
1846.81	4.18507
1847.06	1.28405
1847.32	-2.56637
1847.57	1.29552
1847.82	-6.3995
1848.07	-0.626181
1848.32	-3.52046
1848.58	1.29494
1848.83	1.29204
1849.08	-3.5256
1849.33	-2.56843
1849.58	-1.61123
1849.83	1.26619
1850.08	-0.662203
1850.34	-0.667101
1850.59	1.25059
1850.84	2.2075
1851.09	-3.55762
1851.34	2.20302
1851.59	2.20267
1851.85	1.24313
1852.1	-1.63649
1852.35	-0.675276
1852.6	3.16614
1852.85	-1.6352
1853.1	-2.59627
1853.36	3.16054
1853.61	-0.683847
1853.86	1.22884
1854.11	1.22262
1854.36	0.260609
1854.61	-3.57634
1854.86	0.253609
1855.11	-1.6695
1855.37	-0.71504
1855.62	0.241861
1855.87	1.19925
1856.12	-1.6733
1856.37	4.07465
1856.62	4.07461
1856.87	1.20044
1857.13	1.19864
1857.38	1.19685
1857.63	0.237015
1857.88	3.10509
1858.13	0.229523
1858.38	1.18198
1858.63	-0.735636
1858.88	3.08483
1859.14	4.99283
1859.39	-1.6995
1859.64	4.03802
1859.89	0.215746
1860.14	2.13313
1860.39	3.09532
1860.64	1.18685
1860.89	5.97586
1861.14	-0.716526
1861.39	0.243076
1861.64	1.20026
1861.9	-1.67235
1862.15	-1.67561
1862.4	1.18973
1862.65	2.14132
1862.9	-2.6431
1863.15	1.17658
1863.4	0.217403
1863.65	-0.741089
1863.9	2.12177
1864.16	-2.65677
1864.41	0.204876
1864.66	4.0188
1864.91	-1.71391
1865.16	2.09643
1865.41	2.08834
1865.66	-0.780594
1865.91	2.06982
1866.16	1.10814
1866.41	2.05143
1866.66	2.04244
1866.92	2.98539
1867.17	0.125492
1867.42	0.122185
1867.67	1.07131
1867.92	-1.78139
1868.17	2.02228
1868.42	-3.6796
1868.67	3.92726
1868.92	2.97638
1869.17	-0.826557
1869.42	-1.77732
1869.67	-0.826834
1869.92	2.02455
1870.17	-0.826683
1870.42	2.9754
1870.68	0.124907
1870.93	-2.72635
1871.18	-0.826948
1871.43	-0.82933
1871.68	2.96865
1871.93	2.01736
1872.18	-6.53293
1872.43	-2.73705
1872.68	-0.840195
1872.93	-0.840406
1873.18	-0.840786
1873.43	2.95397
1873.68	1.05257
1873.93	1.04857
1874.18	0.0954208
1874.43	1.98732
1874.68	1.03381
1874.93	-1.8149
1875.18	-1.82082
1875.44	2.90432
1875.69	1.00195
1875.94	1.94214
1876.19	0.0450306
1876.44	0.042572
1876.69	-2.80228
1876.94	1.91161
1877.19	-1.88813
1877.44	0.0103569
1877.69	0.0823402
1877.94	-3.71313
1878.19	-1.83401
1878.44	0.0565014
1878.69	-0.872326
1878.94	0.088541
1879.19	1.03284
1879.44	0.0795841
1879.69	0.0786209
1879.94	0.0784473
1880.19	0.083437
1880.44	0.081459
1880.69	-2.75952
1880.94	-1.81879
1881.19	1.01014
1881.44	1.94505
1881.69	0.0435314
1881.94	2.86505
1882.19	0.0178719
1882.44	0.954502
1882.69	1.88336
1882.94	3.91035
1883.19	0.0654068
1883.44	0.000265121
1883.69	-0.00676537
1883.94	-2.8227
1884.19	0.942181
1884.44	-0.937113
1884.69	0.961246
1884.94	0.967173
1885.19	0.97138
1885.44	-0.905403
1885.69	0.0459938
1885.94	-1.83792
1886.19	-2.78231
1886.44	0.0437031
1886.69	-4.67978
1886.94	-1.85188
1887.19	-1.85565
1887.44	-2.80277
1887.69	-1.86407
1887.94	0.0142994
1888.19	0.94973
1888.44	0.00177574
1888.69	1.87879
1888.94	-0.0075779
1889.19	-1.88965
1889.44	1.87532
1889.69	-2.82859
1889.94	0.943121
1890.19	1.89222
1890.44	2.83745
1890.69	-0.929325
1890.94	0.953121
1891.19	0.954155
1891.44	2.83735
1891.69	0.95364
1891.94	1.89617
1892.19	2.83564
1892.44	0.00806618
1892.69	0.00237465
1892.94	-0.949358
1893.19	2.80097
1893.43	2.79607
1893.69	-0.955584
1893.93	-0.962776
1894.18	1.85298
1894.43	-0.0270081
1894.68	-0.0252876
1894.93	-0.962002
1895.18	-0.0189304
1895.43	2.80418
1895.68	3.74851
1895.93	-0.946245
1896.18	1.87985
1896.43	2.82585
1896.68	-0.931446
1896.93	-0.927984
1897.18	1.89646
1897.43	-4.68682
1897.68	-1.86457
1897.93	0.956127
1898.17	-2.8079
1898.42	-0.93049
1898.67	0.945086
1898.92	0.941542
1899.17	3.75928
1899.42	-0.940044
1899.67	-0.0024395
1899.92	-1.88076
1900.17	1.8784
1900.42	-0.936354
1900.67	0.947453
1900.92	-0.925833
1901.17	-0.92046
1901.42	-0.914696
1901.67	-1.84912
1901.91	1.91995
1902.16	0.0408859
1902.41	0.980932
1902.66	1.92061
1902.91	1.91895
1903.16	-2.78353
1903.41	-1.84322
1903.66	-1.84288
1903.91	-0.901979
1904.16	0.0388699
1904.41	0.979218
1904.66	0.0393925
1904.9	-1.83964
1905.15	0.0408974
1905.4	-0.902363
1905.65	1.90886
1905.9	-0.911152
1906.15	2.84453
1906.4	0.0259228
1906.65	5.65987
1906.9	-1.85129
1907.15	-2.7876
1907.39	0.972435
1907.64	2.85747
1907.89	-1.83615
1908.14	-2.77322
1908.39	1.92818
1908.64	-0.886055
1908.89	-3.70038
1909.14	1.00654
1909.39	0.074297
1909.63	0.0829983
1909.88	1.03328
1910.13	1.04225
1910.38	3.87422
1910.63	3.88005
1910.88	-1.76729
1911.13	-0.822819
1911.38	0.120565
1911.62	1.06274
1911.87	-1.76328
1912.12	-0.820492
1912.37	0.122688
1912.62	0.124249
1912.87	-0.815599
1913.12	0.130575
1913.37	-1.74648
1913.61	-3.62357
1913.86	3.92504
1914.11	0.159735
1914.36	0.166136
1914.61	-3.60155
1914.86	-0.766504
1915.11	-0.763443
1915.36	0.181444
1915.6	2.06837
1915.85	-0.762245
1916.1	1.12373
1916.35	-1.70941
1916.6	1.11746
1916.85	0.172602
1917.1	2.05717
1917.34	-0.771116
1917.59	1.11604
1917.84	1.12042
1918.09	0.183802
1918.34	-0.752131
1918.59	-1.68789
1918.84	2.09578
1919.08	-5.44744
1919.33	-0.716349
1919.58	2.12435
1919.83	3.07249
1920.08	-1.65243
1920.32	3.0735
1920.57	2.13611
1920.82	3.08953
1921.07	2.15006
1921.32	-1.62784
1921.57	4.05044
1921.82	-1.6223
1922.06	1.21505
1922.31	-1.62346
1922.56	0.265894
1922.81	1.21049
1923.06	0.264893
1923.3	2.15483
1923.55	1.20815
1923.8	0.260714
1924.05	2.14878
1924.3	1.20439
1924.55	-1.62768
1924.79	-0.678865
1925.04	-3.50828
1925.29	4.06146
1925.54	0.288103
1925.79	1.24139
1926.03	-0.64296
1926.28	2.20454
1926.53	-4.41491
1926.78	1.27034
1927.03	3.16912
1927.27	-3.45558
1927.52	-1.55742
1927.77	-0.606262
1928.02	0.344397
1928.27	1.29615
1928.52	0.353239
1928.76	1.30604
1929.01	1.31257
1929.26	2.26942
1929.51	3.22613
1929.75	-0.560108
1930	-0.55298
1930.25	0.403498
1930.5	-0.541721
1930.75	1.35946
1930.99	-0.539061
1931.24	-0.540092
1931.49	3.25533
1931.74	-3.38982
1931.99	0.404873
1932.23	-0.545689
1932.48	-1.49417
1932.73	0.402348
1932.98	1.35314
1933.22	-0.537088
1933.47	-0.525606
1933.72	-0.510475
1933.97	-3.34282
1934.22	-0.47036
1934.46	-1.40476
1934.71	1.4687
1934.96	0.528946
1935.21	-1.36877
1935.45	3.38926
1935.7	0.525942
1935.95	-0.426556
1936.2	2.43132
1936.45	4.33374
1936.69	1.47163
1936.94	3.37287
1937.19	0.512936
1937.44	-0.441532
1937.68	2.41107
1937.93	-0.443432
1938.18	-0.435539
1938.43	2.4262
1938.67	2.43133
1938.92	0.532143
1939.17	2.44209
1939.42	1.4949
1939.66	1.4981
1939.91	4.36358
1940.16	-0.394377
1940.41	1.52763
1940.65	0.585409
1940.9	0.588419
1941.15	-2.27504
1941.4	3.44377
1941.64	1.52459
1941.89	1.5308
1942.14	2.50873
1942.39	-0.34473
1942.63	-2.25151
1942.88	-4.16543
1943.13	-1.3093
1943.37	3.4539
1943.62	4.42179
1943.87	2.5224
1944.12	2.52908
1944.36	0.626421
1944.61	2.54405
1944.86	-1.26992
1945.1	3.51519
1945.35	4.47858
1945.6	0.661087
1945.85	-0.289875
1946.09	-1.24198
1946.34	1.63044
1946.59	-0.280859
1946.83	2.58827
1947.08	0.675014
1947.33	1.63214
1947.58	3.54607
1947.82	0.678951
1948.07	0.679134
1948.32	1.63766
1948.57	1.64317
1948.81	3.5627
1949.06	-3.12743
1949.31	0.706863
1949.55	2.62901
1949.8	-1.19008
1950.05	-0.220881
1950.3	1.70577
1950.54	0.75773
1950.79	2.68713
1951.04	1.73881
1951.28	1.748
1951.53	-0.16535
1951.78	1.76032
1952.02	1.76586
1952.27	-0.153355
1952.52	0.812115
1952.76	0.819391
1953.01	-2.06507
1953.26	0.810259
1953.5	1.75806
1953.75	-2.09024
1954	2.69412
1954.25	-0.190138
1954.49	-1.15055
1954.74	-2.10782
1954.98	0.769957
1955.23	2.6939
1955.48	3.66435
1955.72	-0.154303
1955.97	-1.10465
1956.22	-0.136354
1956.47	2.75022
1956.71	1.79715
1956.96	2.76458
1957.21	1.81032
1957.45	2.77659
1957.7	5.66423
1957.95	-2.98209
1958.19	-0.0957012
1958.44	2.78816
1958.69	-2.01933
1958.93	-1.05896
1959.18	-3.94062
1959.43	2.78357
1959.67	1.8209
1959.92	-3.94336
1960.17	-2.0241
1960.41	1.81428
1960.66	-1.06789
1960.9	1.80987
1961.15	-0.110325
1961.4	0.851442
1961.64	1.81419
1961.89	-0.102634
1962.14	3.73936
1962.38	-0.0972309
1962.63	4.70494
1962.88	0.867918
1963.12	-0.0895023
1963.37	4.71341
1963.62	-2.96293
1963.86	0.882088
1964.11	-0.076437
1964.36	2.80425
1964.6	3.76655
1964.85	0.886906
1965.09	-0.0712814
1965.34	1.85297
1965.59	0.89854
1965.83	0.905355
1966.08	2.83405
1966.33	-0.0433292
1966.57	1.8839
1966.82	2.84643
1967.06	0.925768
1967.31	3.81328
1967.56	-0.990385
1967.8	-0.0264111
1968.05	0.936615
1968.3	3.82039
1968.54	-0.0265522
1968.79	0.930952
1969.03	0.925819
1969.28	-0.0400295
1969.53	1.87601
1969.77	0.912853
1970.02	0.911129
1970.26	-0.0503712
1970.51	3.78555
1970.76	1.86568
1971	-0.0533371
1971.25	1.86493
1971.49	2.82689
1971.74	0.91258
1971.99	5.71241
1972.23	1.87678
1972.48	-1.0011
1972.72	0.915707
1972.97	1.87156
1973.22	-0.0487919
1973.46	-1.0087
1973.71	-1.00888
1973.95	1.86739
1974.2	0.910587
1974.45	1.8716
1974.69	2.8337
1974.94	2.83848
1975.18	-0.991611
1975.43	-0.0280037
1975.68	0.935209
1975.92	2.85695
1976.17	-0.0180206
1976.41	-0.975323
1976.66	1.90359
1976.9	1.90388
1977.15	0.944054
1977.4	-0.0165405
1977.64	-0.977133
1977.89	-0.0196972
1978.13	1.89668
1978.38	-0.0202312
1978.63	-0.977238
1978.87	1.90057
1979.12	0.944059
1979.36	-0.0120659
1979.61	-0.00982094
1979.85	-0.00975227
1980.1	-0.0117054
1980.34	0.944447
1980.59	0.943867
1980.84	-0.973223
1981.08	3.81528
1981.33	1.89956
1981.57	-0.0152321
1981.82	2.85887
1982.06	4.77249
1982.31	2.85472
1982.55	3.80834
1982.8	-0.0251408
1983.05	-0.985292
1983.29	-1.94262
1983.54	-0.0292072
1983.78	-0.0295296
1984.03	2.83907
1984.27	0.925976
1984.52	0.924273
1984.76	-0.035532
1985.01	-0.0372524
1985.25	0.919962
1985.5	0.922882
1985.75	-0.984518
1985.99	0.9328
1986.24	0.936752
1986.48	1.8942
1986.73	4.76567
1986.97	-0.972464
1987.22	-2.88847
1987.46	-0.981812
1987.71	2.83306
1987.95	0.914688
1988.2	0.901546
1988.44	-1.97329
1988.69	1.82829
1988.93	-1.03622
1989.18	2.74629
1989.42	0.788729
1989.67	-0.0920715
1989.91	4.47121
1990.16	-0.107494
1990.41	1.00432
1990.65	1.0138
1990.89	0.908894
1991.14	3.60089
1991.39	-1.27959
1991.63	-1.72182
1991.88	-1.69181
1992.12	-1.54508
1992.37	0.107157
1992.61	1.86299
1992.86	4.2288
1993.1	0.641552
1993.35	-1.58767
1993.59	3.3435
1993.84	1.63546
1994.08	2.01372
1994.33	4.83818
1994.57	0.602507
1994.82	-2.0064
1995.06	1.52326
1995.31	-1.13947
1995.55	5.81296
1995.8	2.45157
1996.04	-1.42183
1996.29	0.789448
1996.53	1.11805
1996.78	0.267921
1997.02	1.33896
1997.26	-0.556271
1997.51	-0.795248
1997.76	-1.29187
1998	-0.233664
1998.24	0.274794
1998.49	2.42706
1998.73	1.93519
1998.98	0.376688
1999.22	1.16083
1999.47	1.67189
1999.71	0.0153923
1999.96	-0.464825
2000.2	1.52553
2000.45	-0.582991
2000.69	1.93661
2000.94	1.36987
2001.18	2.04817
2001.43	1.79403
2001.67	0.0355549
2001.92	0.346607
2002.16	-0.452171
2002.4	-0.0357513
2002.65	0.368372
2002.89	1.75966
2003.14	1.50565
2003.38	1.30384
2003.63	-0.29491
2003.87	-1.09602
2004.12	0.0899582
2004.36	1.37211
2004.6	1.17164
2004.85	1.9937
2005.1	1.08301
2005.34	0.827026
2005.58	0.362312
2005.83	1.07835
2006.07	0.545277
2006.32	2.48149
2006.56	0.557669
2006.81	1.11414
2007.05	-0.470253
2007.3	-0.00666618
2007.54	-1.4631
2007.78	-0.575592
2008.03	1.1949
2008.27	-0.623882
2008.52	-0.961439
2008.76	-0.820278
2009	0.774435
2009.25	1.30455
2009.49	0.0228367
2009.74	-0.79804
2009.98	1.02383
2010.23	0.91116
2010.47	0.818577
2010.72	0.857761
2010.96	2.85202
2011.2	-4.47719
2011.45	-0.863703
2011.69	0.835522
2011.94	1.66343
2012.18	0.684237
2012.42	-2.07944
2012.67	-3.0249
2012.92	0.728527
2013.16	-1.15695
2013.41	1.65713
2013.66	0.708832
2013.91	-0.240257
2014.15	-0.250458
2014.4	-0.25272
2014.65	-2.12771
2014.9	-0.246902
2015.14	1.63586
2015.39	2.57904
2015.64	0.701965
2015.88	-1.17434
2016.13	-1.15514
2016.38	-0.209959
2016.63	-1.14947
2016.87	-2.09072
2017.12	2.6038
2017.37	-1.15906
2017.61	-0.226494
2017.86	0.704344
2018.11	-2.11725
2018.35	-2.12295
2018.6	1.62023
2018.85	3.48681
2019.1	-1.20201
2019.34	-4.95028
2019.59	0.668972
2019.84	-0.266834
2020.08	1.60663
2020.33	-1.20278
2020.58	-0.264315
2020.82	-1.19817
2021.07	1.61331
2021.32	1.61362
2021.57	2.54938
2021.81	-0.261887
2022.06	-0.264585
2022.31	0.667597
2022.55	-0.273178
2022.8	0.65864
2023.05	0.655052
2023.29	0.651278
2023.54	0.647572
2023.79	2.51378
2024.03	-0.295643
2024.28	-1.23608
2024.53	-0.307976
2024.77	-2.18069
2025.02	-1.2521
2025.27	-1.2566
2025.51	0.602997
2025.76	2.46972
2026.01	1.54581
2026.25	-2.17362
2026.5	-2.15799
2026.75	-2.14047
2026.99	-2.12794
2027.24	0.679668
2027.49	-0.26667
2027.73	-0.284298
2027.98	-1.26647
2028.23	0.636536
2028.47	-2.09273
2028.72	0.691572
2028.97	-2.10242
2029.21	0.67593
2029.46	0.651114
2029.71	2.49047
2029.95	-2.1739
2030.2	1.53685
2030.45	3.41732
2030.69	1.56956
2030.94	-3.09779
2031.19	-1.23058
2031.43	-3.09603
2031.68	-1.22325
2031.92	-0.282045
2032.17	0.660851
2032.42	0.669416
2032.66	3.48022
2032.91	-3.05716
2033.16	-0.246067
2033.4	0.696568
2033.65	-1.18392
2033.89	1.60877
2034.14	-0.283024
2034.39	1.57419
2034.64	1.58578
2034.88	-2.14018
2035.13	-1.19521
2035.37	1.6254
2035.62	1.63918
2035.87	-0.227549
2036.11	-3.044
2036.36	1.62927
2036.6	-1.16775
2036.85	0.703142
2037.1	5.37825
2037.34	-0.232969
2037.59	-2.10431
2037.84	-0.236788
2038.08	-0.239244
2038.33	4.43018
2038.57	0.689869
2038.82	-0.247156
2039.07	-1.18395
2039.31	-0.253538
2039.56	-1.19221
2039.8	-2.13025
2040.05	2.53027
2040.3	0.659685
2040.54	-1.20933
2040.79	-2.14457
2041.03	0.651024
2041.28	-2.14604
2041.53	2.5129
2041.77	-0.285463
2042.02	-3.08399
2042.26	-0.290503
2042.51	0.641975
2042.76	0.64414
2043	1.58212
2043.25	0.659454
2043.49	1.60229
2043.74	0.674971
2043.99	-0.257763
2044.23	1.60406
2044.48	0.662752
2044.72	-1.21755
2044.97	-1.20167
2045.22	-0.255379
2045.46	-1.16478
2045.71	-1.13029
2045.95	-0.201714
2046.2	-0.223305
2046.44	-1.17257
2046.69	0.692799
2046.94	1.62192
2047.18	1.60596
2047.43	0.666698
2047.67	-3.06135
2047.92	-2.12751
2048.16	1.60364
2048.41	-0.258308
2048.66	-1.18505
2048.9	-0.247421
2049.15	3.49153
2049.39	0.700613
2049.64	1.64145
2049.88	2.58253
2050.13	-0.214994
2050.37	-0.212976
2050.62	-1.14755
2050.87	2.58552
2051.11	-0.222008
2051.36	-2.0902
2051.6	0.711922
2051.85	-0.218485
2052.09	1.65127
2052.34	0.720236
2052.58	0.724211
2052.83	0.729019
2053.08	-0.199675
2053.32	-1.12443
2053.57	0.751219
2053.81	-1.11582
2054.06	-0.178902
2054.3	1.69216
2054.55	-0.179319
2054.79	-1.11527
2055.04	2.62081
2055.29	-1.12196
2055.53	1.68248
2055.78	-3.9285
2056.02	0.743835
2056.27	3.54673
2056.51	3.54675
2056.76	1.67878
2057	1.68086
2057.25	3.55384
2057.49	0.753019
2057.74	1.69153
2057.98	-1.10857
2058.23	1.70352
2058.47	-2.97052
2058.72	1.71337
2058.96	1.71529
2059.21	1.7168
2059.45	-2.02643
2059.7	1.71588
2059.95	-1.09491
2060.19	0.773823
2060.44	-1.09527
2060.68	-0.155792
2060.93	-0.153032
2061.17	-0.151657
2061.42	0.785379
2061.66	-1.08627
2061.91	-2.02101
2062.15	0.790676
2062.4	0.793964
2062.64	-2.01213
2062.89	-2.00844
2063.13	0.80574
2063.38	0.808617
2063.62	0.81082
2063.87	-1.06186
2064.11	2.6904
2064.36	-0.118561
2064.6	-1.98962
2064.85	2.70719
2065.09	-1.97765
2065.34	0.843302
2065.58	5.54232
2065.83	-0.0872879
2066.07	-0.0857601
2066.32	2.73337
2066.56	0.858332
2066.81	-1.01832
2067.05	-0.0761776
2067.29	1.80666
2067.54	1.81029
2067.78	2.75286
2068.03	4.6346
2068.27	-1.00238
2068.52	0.879211
2068.76	1.81641
2069.01	2.75022
2069.25	0.861582
2069.5	-0.0829029
2069.74	0.857708
2069.99	3.68441
2070.23	-0.0627651
2070.48	-0.0516624
2070.72	0.890209
2070.97	1.8241
2071.21	0.902636
2071.46	2.80066
2071.7	0.916479
2071.94	-0.968632
2072.19	2.797
2072.43	-0.0293903
2072.68	-0.971371
2072.92	1.85223
2073.17	-0.0302505
2073.41	1.85367
2073.66	0.913301
2073.9	-0.96784
2074.15	3.74512
2074.39	-0.0169525
2074.64	0.932579
2074.88	0.942162
2075.13	1.89716
2075.37	0.962463
2075.61	0.0232697
2075.86	-0.919703
2076.1	0.0250931
2076.35	2.85511
2076.59	-1.86859
2076.84	-1.87304
2077.08	1.89084
2077.32	-0.942274
2077.57	-0.940643
2077.81	0.95022
2078.06	0.00897217
2078.3	2.84112
2078.55	0.957024
2078.79	2.84894
2079.03	0.972216
2079.28	1.9215
2079.52	0.0361004
2079.77	-2.79507
2080.01	0.987421
2080.26	2.87814
2080.5	2.87531
2080.74	1.92836
2080.99	0.0376301
2081.23	3.81672
2081.48	-0.908941
2081.72	-2.79728
2081.97	-0.906212
2082.21	-1.85017
2082.45	2.87517
2082.7	1.92961
2082.94	0.983421
2083.19	-0.907789
2083.43	-0.908197
2083.67	0.981865
2083.92	-1.85364
2084.16	0.981142
2084.41	0.981571
2084.65	-3.74347
2084.89	-2.79899
2085.14	3.81605
2085.38	0.981306
2085.63	1.93167
2085.87	-2.78918
2086.12	1.94481
2086.36	1.00087
2086.6	-2.78129
2086.85	0.0600452
2087.09	0.0624218
2087.34	1.95486
2087.58	0.0620899
2087.82	-0.884256
2088.07	-0.883785
2088.31	0.0633965
2088.56	-0.88253
2088.8	1.01318
2089.04	-1.82396
2089.29	0.074604
2089.53	-0.870132
2089.77	0.0777206
2090.02	1.0261
2090.26	0.0802059
2090.51	-1.81308
2090.75	-1.81137
2090.99	0.0857983
2091.24	-2.75374
2091.48	1.04436
2091.72	-2.74339
2091.97	0.108852
2092.21	0.115751
2092.45	-0.828121
2092.7	-1.77317
2092.94	1.08138
2093.19	-0.814091
2093.43	-1.76072
2093.67	-1.75752
2093.92	1.09575
2094.16	2.04609
2094.41	2.04455
2094.65	0.141027
2094.89	2.03814
2095.14	-1.76811
2095.38	3.92951
2095.62	0.125483
2095.87	0.123091
2096.11	1.0715
2096.35	-0.829859
2096.6	1.06664
2096.84	2.01131
2097.08	1.05633
2097.33	2.95216
2097.57	2.00076
2097.81	-0.84865
2098.06	1.04572
2098.3	0.0957851
2098.55	-0.85445
2098.79	1.04173
2099.03	1.03991
2099.28	0.0896854
2099.52	-0.859941
2099.76	1.03795
2100	3.88568
2100.25	0.0900574
2100.49	-0.854576
2100.74	1.99777
2100.98	-0.849014
2101.22	2.00119
2101.47	0.100964
2101.71	0.0994511
2101.95	1.04879
2102.2	2.9466
2102.44	0.0932617
2102.68	1.0372
2102.92	-1.81462
2103.17	2.93073
2103.41	1.97893
2103.65	1.02911
2103.9	2.92846
2104.14	1.98194
2104.39	1.03512
2104.63	2.93687
2104.87	-0.859554
2105.11	1.04442
2105.36	1.0484
2105.6	2.95089
2105.84	0.101011
2106.09	-0.849165
2106.33	-0.849356
2106.57	-3.70067
2106.82	-0.848051
2107.06	1.05048
2107.3	-2.75672
2107.54	2.93953
2107.79	-0.868456
2108.03	1.97443
2108.27	0.0688057
2108.52	2.91412
2108.76	2.91365
2109	1.01849
2109.25	2.92342
2109.49	1.02286
2109.73	1.02195
2109.97	-2.77897
2110.22	1.01989
2110.46	-2.78101
2110.7	1.96778
2110.95	-3.73412
2111.19	-0.887991
2111.43	1.95764
2111.68	1.00554
2111.92	2.90335
2112.16	-1.84426
2112.4	1.95623
2112.65	1.95777
2112.89	0.0616283
2113.13	1.01591
2113.38	1.01737
2113.62	-0.885265
2113.86	-1.8387
2114.1	1.01057
2114.35	-1.84081
2114.59	-3.74208
2114.83	0.0575924
2115.07	-0.895643
2115.32	1.95225
2115.56	-0.901237
2115.8	0.993919
2116.04	0.0384827
2116.29	0.984623
2116.53	-1.86665
2116.77	0.980145
2117.02	1.92918
2117.26	0.976845
2117.5	1.92162
2117.74	1.91657
2117.99	0.9606
2118.23	-0.944674
2118.47	2.84322
2118.71	-1.90473
2118.96	-0.961966
2119.2	-0.967428
2119.44	2.81849
2119.68	0.918373
2119.93	1.86315
2120.17	-1.92788
2120.41	2.81218
2120.65	2.81361
2120.9	-0.974663
2121.14	0.925594
2121.38	-0.0189838
2121.62	1.88164
2121.86	0.936043
2122.11	0.938391
2122.35	2.83853
2122.59	-0.00754738
2122.84	-1.90557
2123.08	-0.00708961
2123.32	2.83829
2123.56	-1.91174
2123.81	-0.0179863
2124.05	-0.973331
2124.29	1.86308
2124.53	-0.0454483
2124.77	-0.0565834
2125.02	-2.90735
2125.26	1.8204
2125.5	-3.86804
2125.74	-1.98125
2125.98	2.7444
2126.23	1.79189
2126.47	-0.106121
2126.71	-0.112413
2126.95	2.72076
2127.2	0.827135
2127.44	0.824703
2127.68	3.65687
2127.92	1.76301
2128.16	0.816391
2128.41	0.815268
2128.65	-2.02251
2128.89	3.64557
2129.13	2.69721
2129.38	2.69472
2129.62	0.802145
2129.86	1.74441
2130.1	0.796421
2130.34	-0.151932
2130.58	0.788839
2130.83	-2.9941
2131.07	4.55691
2131.31	-0.169771
2131.55	1.7149
2131.79	5.48749
2132.04	1.70537
2132.28	1.69922
2132.52	-3.02284
2132.76	1.69317
2133	-1.13829
2133.25	1.69217
2133.49	0.7474
2133.73	4.52152
2133.97	1.69004
2134.21	2.63175
2134.46	1.68584
2134.7	0.740011
2134.94	-0.206125
2135.18	0.73402
2135.42	-2.10133
2135.67	1.66435
2135.91	0.712553
2136.15	-0.23554
2136.39	2.59131
2136.63	-2.1225
2136.87	-0.238173
2137.12	1.64802
2137.36	-0.234953
2137.6	0.706694
2137.84	0.698982
2138.08	2.5774
2138.32	0.69293
2138.57	0.698862
2138.81	2.58945
2139.05	-2.13493
2139.29	3.50901
2139.53	0.676067
2139.77	-1.21327
2140.02	1.60859
2140.26	-1.22135
2140.5	1.60095
2140.74	-3.11133
2140.98	0.654112
2141.22	-0.292433
2141.46	-1.2405
2141.71	-2.18567
2141.95	0.636471
2142.19	1.57992
2142.43	2.52403
2142.67	1.59689
2142.91	2.53449
2143.15	-1.27991
2143.4	-1.29297
2143.64	1.53024
2143.88	-2.22472
2144.12	0.601957
2144.36	3.42745
2144.6	-4.10721
2144.85	1.53137
2145.09	-0.34907
2145.33	-2.23202
2145.57	-4.11553
2145.81	-1.29841
2146.05	-1.30169
2146.29	5.27458
2146.53	3.39067
2146.78	3.3857
2147.02	0.561867
2147.26	-1.32151
2147.5	-1.32532
2147.74	-0.39003
2147.98	1.48417
2148.22	1.47955
2148.46	1.47441
2148.7	-1.34791
2148.95	-0.415768
2149.19	2.38846
2149.43	2.38069
2149.67	1.43489
2149.91	-0.446619
2150.15	-0.450756
2150.39	1.42142
2150.63	-0.453321
2150.88	0.486042
2151.12	-0.450882
2151.36	-0.449106
2151.6	3.30195
2151.84	2.36658
2152.08	-2.32762
2152.32	0.481264
2152.56	1.41312
2152.8	1.40727
2153.05	2.34088
2153.29	0.462822
2153.53	3.26891
2153.77	0.450888
2154.01	-3.30433
2154.25	-1.44172
2154.49	0.42049
2154.73	-1.46254
2154.97	-2.40574
2155.21	-2.41338
2155.45	3.1869
2155.7	0.377129
2155.94	3.17548
2156.18	0.370136
2156.42	-0.566292
2156.66	1.30017
2156.9	-1.50263
2157.14	-0.567347
2157.38	-0.565136
2157.62	-0.562922
2157.86	0.371229
2158.1	-6.17354
2158.34	2.23639
2158.59	0.363516
2158.83	3.1627
2159.07	2.22268
2159.31	2.21637
2159.55	-3.39485
2159.79	0.333557
2160.03	1.26042
2160.27	1.25395
2160.51	-2.48341
2160.75	0.313356
2160.99	-4.35551
2161.23	2.17165
2161.47	-0.629843
2161.72	0.301262
2161.95	-0.633234
2162.2	3.09651
2162.44	-1.57117
2162.68	-3.44111
2162.92	3.08347
2163.16	0.281626
2163.4	-1.58724
2163.64	-1.59136
2163.88	0.267521
2164.12	0.259607
2164.36	-0.677702
2164.6	-0.679543
2164.84	3.98057
2165.08	1.18375
2165.32	-2.54502
2165.56	0.249121
2165.8	2.10897
2166.04	2.10449
2166.28	-2.55827
2166.53	0.2304
2166.76	-0.706011
2167.01	0.218752
2167.25	1.14142
2167.49	-0.731314
2167.73	-0.742754
2167.97	1.11061
2168.21	-0.75131
2168.45	-0.752028
2168.69	0.178715
2168.93	-0.748665
2169.17	1.1159
2169.41	0.191404
2169.65	-3.52557
2169.89	1.13332
2170.13	0.202885
2170.37	1.13149
2170.61	-0.736393
2170.85	-0.740393
2171.09	2.04248
2171.33	1.095
2171.57	-0.775711
2171.81	2.00637
2172.05	0.141943
2172.29	3.85374
2172.53	0.134508
2172.77	0.132477
2173.01	1.05957
2173.25	-0.798969
2173.49	0.131191
2173.73	0.131756
2173.97	0.131302
2174.21	-2.65818
2174.45	0.128325
2174.69	0.126375
2174.93	-0.805943
2175.17	-2.66753
2175.41	-2.66986
2175.65	0.11517
2175.89	-0.817207
2176.13	-1.75121
2176.37	-0.825449
2176.61	0.101757
2176.85	1.02965
2177.09	-2.68727
2177.33	-2.68946
2177.57	2.88387
2177.81	3.8096
2178.05	0.0862484
2178.29	-0.848858
2178.53	1.00552
2178.77	1.00506
2179.01	1.00385
2179.25	-0.85445
2179.49	1.00089
2179.73	-2.71482
2179.97	1.9256
2180.21	0.994101
2180.45	0.990866
2180.69	1.9171
2180.93	-1.79893
2181.17	-1.80282
2181.41	2.83331
2181.65	0.0467262
2181.89	0.0422153
2182.13	0.966185
2182.37	-2.74804
2182.61	-2.75335
2182.85	0.950676
2183.09	-2.76628
2183.33	0.00850677
2183.57	-1.84991
2183.81	0.925032
2184.05	0.922205
2184.28	-1.8586
2184.53	-0.004776
2184.76	-0.00455093
2185	0.922285
2185.24	-0.930342
2185.48	1.85268
2185.72	2.78309
2185.96	2.78543
2186.2	2.79089
2186.44	5.5808
2186.68	-0.910116
2186.92	-3.69089
2187.16	0.955635
2187.4	-0.901451
2187.64	1.88134
2187.88	0.947233
2188.12	3.72659
2188.36	0.00683784
2188.6	-1.85577
2188.84	0.920507
2189.07	-0.0155983
2189.31	-1.87826
2189.55	3.67972
2189.79	-0.0313339
2190.03	2.74893
2190.27	1.82181
2190.51	-0.958246
2190.75	-3.74142
2190.99	-0.96022
2191.23	1.82193
2191.47	1.82273
2191.71	-0.958946
2191.95	1.82406
2192.19	-0.030508
2192.42	2.75471
2192.67	-0.953758
2192.9	-0.0237751
2193.14	-0.0204029
2193.38	1.84394
2193.62	-0.932695
2193.86	0.00283241
2194.1	0.00585556
2194.34	0.934029
2194.58	-1.85903
2194.82	-1.86225
2195.06	-1.86659
2195.3	-0.0138264
2195.53	1.83658
2195.77	0.898607
2196.01	-0.0386105
2196.25	-0.0456238
2196.49	-1.90694
2196.73	-3.767
2196.97	-1.91603
2197.21	-1.9179
2197.45	-0.0632629
2197.69	-1.91796
2197.92	0.868734
2198.16	0.873426
2198.4	1.8071
2198.64	-1.90071
2198.88	0.891161
2199.12	0.897181
2199.36	-0.955494
2199.6	-2.80729
2199.84	1.85443
2200.07	-1.85916
2200.31	4.66768
2200.55	-1.84673
2200.79	0.0209255
2201.03	0.94516
2201.27	0.92227
2201.51	-0.981159
2201.75	0.838251
2201.99	-3.79488
2202.23	1.81196
2202.46	0.9042
2202.7	0.896189
2202.94	-0.0394955
2203.18	-0.968019
2203.42	0.0530777
2203.66	1.88528
2203.9	0.947607
2204.14	1.88651
2204.37	1.87026
2204.61	2.77868
2204.85	-0.964527
2205.09	-0.0491982
2205.33	0.875635
2205.57	1.80379
2205.8	-0.0517311
2206.05	1.81067
2206.28	3.658
2206.52	-0.990253
2206.76	-0.058466
2207	-0.985516
2207.24	-0.0520172
2207.48	-2.83947
2207.71	0.886049
2207.95	0.889797
2208.19	-0.968863
2208.43	-1.8978
2208.67	0.897129
2208.91	1.82907
2209.15	-0.0341473
2209.38	1.82674
2209.62	-0.967777
2209.86	0.89683
2210.1	-0.0324612
2210.34	2.76533
2210.58	-2.82284
2210.81	2.77135
2211.05	-0.0220413
2211.29	1.84635
2211.53	-0.0141468
2211.77	-0.0118065
2212.01	1.85546
2212.24	3.71869
2212.48	-0.0155411
2212.72	-0.951378
2212.96	1.84269
2213.2	-0.960329
2213.44	-0.0282669
2213.67	-0.0250263
2213.91	2.78058
2214.15	-0.00854874
2214.39	1.85992
2214.63	-1.87272
2214.87	-1.87215
2215.1	-0.00471687
2215.34	1.86244
2215.58	-0.00547218
2215.82	2.79449
2216.06	5.59402
2216.29	1.85771
2216.53	-2.81198
2216.77	3.72208
2217.01	-3.74664
2217.25	-3.74646
2217.49	-0.946058
2217.72	1.85377
2217.96	0.920198
2218.2	-3.74727
2218.44	-0.94376
2218.68	2.79549
2218.91	1.8653
2219.15	0.933374
2219.39	0.935209
2219.63	2.80657
2219.87	-0.932648
2220.1	0.934746
2220.34	1.86791
2220.58	-0.00372314
2220.82	-0.00907898
2221.06	-2.81786
2221.29	-0.0214367
2221.53	0.907303
2221.77	-2.83049
2222.01	0.901926
2222.25	-0.964348
2222.48	-1.89568
2222.72	-0.959362
2222.96	-0.956478
2223.2	-2.82058
2223.43	-0.0122147
2223.67	-0.940645
2223.91	-0.934958
2224.15	-0.930061
2224.39	-1.86127
2224.62	0.0140228
2224.86	0.954832
2225.1	-0.911533
2225.34	0.965961
2225.58	0.0336552
2225.81	-1.83565
2226.05	0.0413246
2226.29	1.91965
2226.53	0.0494041
2226.76	0.990211
2227	0.0550957
2227.24	1.93191
2227.48	1.93133
2227.72	0.991539
2227.95	3.80234
2228.19	0.987501
2228.43	-0.889198
2228.67	2.85926
2228.9	-2.76622
2229.14	-1.82625
2229.38	0.0542755
2229.62	0.0595074
2229.85	1.93999
2230.09	-2.74811
2230.33	-0.867146
2230.57	-2.74062
2230.8	-1.79733
2231.04	0.0859947
2231.28	0.0902672
2231.52	-3.66445
2231.75	1.0385
2231.99	0.102758
2232.23	-0.833563
2232.47	3.87261
2232.7	-0.82604
2232.94	2.00014
2233.18	-0.818539
2233.42	0.12566
2233.65	3.89323
2233.89	2.00988
2234.13	0.125437
2234.37	2.00494
2234.6	0.118877
2234.84	-1.76979
2235.08	-1.77552
2235.31	1.04499
2235.55	-0.834892
2235.79	-1.77431
2236.03	2.92935
2236.26	2.93038
2236.5	-2.71206
2236.74	-0.826429
2236.97	-0.821863
2237.21	0.127117
2237.45	-0.805433
2237.69	2.97142
2237.92	3.92125
2238.16	0.157398
2238.4	0.164099
2238.64	-0.771263
2238.87	0.174919
2239.11	-3.60015
2239.35	-1.7161
2239.58	-0.777958
2239.82	0.158869
2240.06	3.92694
2240.29	2.04857
2240.53	-1.71298
2240.77	1.11894
2241.01	0.177002
2241.24	-0.764824
2241.48	-1.70692
2241.72	2.06996
2241.96	2.07281
2242.19	1.13187
2242.43	-0.75493
2242.67	3.02048
2242.9	1.13007
2243.14	3.95791
2243.38	-0.762753
2243.61	-4.53802
2243.85	3.95598
2244.09	2.07197
2244.32	1.13475
2244.56	0.199682
2244.8	-2.62613
2245.03	0.21447
2245.27	2.10972
2245.51	1.1696
2245.75	2.12043
2245.98	2.12504
2246.22	-4.4939
2246.46	-2.59898
2246.69	1.18964
2246.93	-0.700266
2247.17	-1.64522
2247.4	2.14088
2247.64	-2.59202
2247.88	1.19262
2248.11	3.08419
2248.35	0.244354
2248.59	3.08219
2248.82	-0.703264
2249.06	-0.700048
2249.3	-1.64286
2249.53	1.19711
2249.77	-1.64412
2250.01	0.244915
2250.24	0.240757
2250.48	-2.60139
2250.72	-0.713533
2250.95	-0.716194
2251.19	0.22818
2251.43	-2.60712
2251.66	1.17755
2251.9	-4.49266
2252.14	1.18667
2252.37	-2.59057
2252.61	-0.686827
2252.85	-0.677147
2253.08	2.172
2253.32	1.23098
2253.55	3.13167
2253.79	1.24111
2254.03	-1.59927
2254.26	-0.649719
2254.5	-0.650833
2254.74	0.298326
2254.97	-3.49324
2255.21	-0.647495
2255.45	1.2506
2255.68	0.306318
2255.92	0.311287
2256.16	-1.58161
2256.39	0.32029
2256.63	-1.57344
2256.87	3.1769
2257.1	-0.616037
2257.34	0.336737
2257.57	-2.50985
2257.81	0.340675
2258.05	-0.606886
2258.28	-0.604151
2258.52	-0.600498
2258.76	3.20388
2258.99	-1.54364
2259.23	0.359455
2259.47	-0.587645
2259.7	-1.53504
2259.94	0.369049
2260.17	0.372002
2260.41	0.376093
2260.64	1.33465
2260.88	1.34098
2261.12	2.29497
2261.35	-1.5088
2261.59	-1.50627
2261.83	2.30307
2262.06	-0.548206
2262.3	0.409016
2262.53	-0.537294
2262.77	1.37416
2263.01	2.33497
2263.24	2.34432
2263.48	0.447811
2263.71	2.36513
2263.95	-1.44215
2264.19	4.29212
2264.42	-0.47415
2264.66	1.44138
2264.89	-0.463665
2265.13	2.40417
2265.37	0.495625
2265.6	1.45046
2265.84	3.35683
2266.07	-2.37692
2266.31	-1.42617
2266.55	0.47891
2266.78	-0.478155
2267.02	-0.480391
2267.25	3.33297
2267.49	-0.486286
2267.73	-0.489061
2267.96	0.463833
2268.2	1.41883
2268.43	-0.484425
2268.67	4.29021
2268.91	-1.42634
2269.14	1.44367
2269.38	1.45182
2269.61	1.46102
2269.85	-2.35146
2270.08	-3.30173
2270.32	1.48008
2270.56	2.44211
2270.79	-0.420313
2271.03	0.53993
2271.26	1.50051
2271.5	2.46278
2271.73	0.553553
2271.97	3.42534
2272.2	-1.35589
2272.44	0.559963
2272.68	3.43302
2272.91	1.52184
2273.15	-1.34649
2273.38	-2.30114
2273.62	-3.25594
2273.85	-2.29675
2274.09	1.53426
2274.33	0.579575
2274.56	-3.24701
2274.8	2.49975
2275.03	0.587952
2275.27	3.46059
2275.5	2.50763
2275.74	0.599134
2275.97	1.56412
2276.21	-0.34576
2276.45	-0.340015
2276.68	-2.25143
2276.92	-0.325775
2277.15	1.6023
2277.39	0.653
2277.62	-2.21573
2277.86	0.670019
2278.09	-4.12887
2278.33	-0.28532
2278.56	-0.284695
2278.8	0.675892
2279.03	-1.24635
2279.27	0.664989
2279.5	-1.25954
2279.74	-0.304577
2279.98	1.60972
2280.21	0.647486
2280.45	0.645416
2280.68	2.56195
2280.92	-4.14944
2281.15	1.60007
2281.39	-2.22981
2281.62	2.56578
2281.86	-1.26436
2282.09	-0.299978
2282.33	-0.293428
2282.56	-2.20584
2282.8	-0.279747
2283.03	-3.15013
2283.27	-0.258125
2283.5	1.67404
2283.74	-4.08101
2283.97	3.61932
2284.21	0.738001
2284.44	1.70665
2284.68	-1.17265
2284.91	-0.207207
2285.15	-2.12916
2285.38	-1.16883
2285.62	-0.214632
2285.85	-0.214218
2286.09	1.71258
2286.32	1.71674
2286.56	0.767036
2286.79	-1.14742
2287.03	0.78372
2287.26	-2.10258
2287.5	-0.167566
2287.74	-1.1307
2287.97	0.794174
2288.2	0.792303
2288.44	2.71611
2288.67	-1.14029
2288.91	2.70243
2289.14	4.62028
2289.38	1.72467
2289.61	1.72281
2289.85	3.64416
2290.08	-0.199488
2290.32	2.6862
2290.55	-1.15494
2290.79	0.775234
2291.02	-0.177328
2291.26	5.60336
2291.49	-1.12765
2291.73	1.76553
2291.96	1.77143
2292.2	0.815641
2292.43	-1.10416
2292.67	-1.09885
2292.9	2.7606
2293.14	1.80128
2293.37	0.840952
2293.6	-1.08662
2293.84	2.76732
2294.07	2.76534
2294.31	-0.128117
2294.54	-2.05615
2294.78	1.79512
2295.01	-2.05857
2295.25	-2.05987
2295.48	-1.09793
2295.72	0.825121
2295.95	-0.146114
2296.19	-1.10834
2296.42	-2.06735
2296.65	2.74828
2296.89	-0.133039
2297.12	1.79873
2297.36	0.843704
2297.59	-1.0731
2297.83	-2.03008
2298.06	0.865236
2298.3	0.871059
2298.53	-0.0854931
2298.77	-0.07897
2299	2.82013
2299.23	-1.03371
2299.47	-1.0327
2299.7	-2.95998
2299.94	-0.0654449
2300.17	-0.0616512
2300.41	-1.02102
2300.64	1.87836
2300.87	3.81313
2301.11	0.920952
2301.34	-1.00736
2301.58	-0.0409985
2301.81	2.85429
2302.05	-1.00678
2302.28	1.89079
2302.51	0.926937
2302.75	1.89213
2302.98	-0.0368767
2303.22	-0.0351219
2303.45	1.8986
2303.69	0.938848
2303.92	1.90978
2304.15	-0.0172195
2304.39	0.952946
2304.62	-0.97295
2304.86	0.963541
2305.09	-0.96616
2305.33	0.00321198
2305.56	-2.89171
2305.79	2.91142
2306.03	1.94753
2306.26	-1.91659
2306.5	-0.94878
2306.73	2.91834
2306.97	-2.88096
2307.2	1.94971
2307.43	3.88188
2307.67	0.982698
2307.9	1.94785
2308.13	-0.948957
2308.37	0.0191269
2308.6	0.990139
2308.84	-1.90397
2309.07	0.0354042
2309.3	2.94507
2309.54	1.01788
2309.77	0.0544739
2310.01	1.02407
2310.24	-0.909708
2310.47	2.95894
2310.71	3.9224
2310.94	1.97768
2311.18	1.96194
2311.41	-1.90751
2311.64	-0.946512
2311.88	2.91276
2312.11	-2.88047
2312.34	0.977722
2312.58	-1.91632
2312.81	0.981928
2313.05	2.91985
2313.28	1.96573
2313.51	1.0083
2313.75	-1.88242
2313.98	2.95773
2314.21	4.90157
2314.45	1.04399
2314.68	2.01682
2314.92	-1.8555
2315.15	-1.85975
2315.39	-1.86256
2315.62	0.066658
2315.85	-0.909168
2316.09	1.01632
2316.32	0.0485249
2316.55	-1.88231
2316.79	-0.914589
2317.02	0.0535049
2317.25	2.95747
2317.49	1.03152
2317.72	1.0268
2317.95	3.91989
2318.19	-1.87541
2318.42	1.01878
2318.66	2.94658
2318.89	2.94395
2319.12	1.97719
2319.35	1.01149
2319.59	3.90714
2319.82	1.01406
2320.06	1.98006
2320.29	2.94796
2320.52	1.98745
2320.76	0.0617218
2320.99	0.0667648
2321.22	2.00392
2321.46	2.97747
2321.69	0.0871906
2321.92	2.99389
2322.16	3.96474
2322.39	5.89842
2322.62	3.96659
2322.86	1.06902
2323.09	4.93886
2323.32	2.04071
2323.56	2.0425
2323.79	2.0426
2324.02	3.0092
2324.26	4.93829
2324.49	5.89729
2324.72	6.85449
2324.96	7.81371
2325.19	11.6713
2325.42	12.6309
2325.66	9.72878
2325.89	15.5132
2326.12	13.576
2326.36	19.357
2326.59	24.171
2326.82	33.8038
2327.06	47.2926
2327.29	75.2361
2327.52	105.103
2327.76	149.444
2327.99	177.4
2328.22	156.2
2328.46	106.058
2328.69	76.1632
2328.92	45.3136
2329.15	27.0052
2329.39	18.3353
2329.62	15.4502
2329.85	19.3024
2330.09	13.5204
2330.32	10.6285
2330.55	7.73839
2330.78	8.70341
2331.02	2.92877
2331.25	5.82329
2331.48	1.01202
2331.72	2.93487
2331.95	3.89263
2332.18	0.999912
2332.42	1.95988
2332.65	1.95689
2332.88	0.0286522
2333.12	0.988899
2333.35	3.8743
2333.58	1.94634
2333.81	0.0180855
2334.05	0.974756
2334.28	1.93267
2334.51	3.85358
2334.74	3.85243
2334.98	1.92788
2335.21	1.92834
2335.44	1.92993
2335.68	0.00607109
2335.91	0.00384903
2336.14	0.963669
2336.37	3.84702
2336.61	0.961403
2336.84	2.88298
2337.07	-0.00250626
2337.3	5.76353
2337.54	1.91619
2337.77	3.83717
2338	1.9133
2338.24	2.87332
2338.47	-0.97109
2338.7	-0.00967598
2338.93	3.83475
2339.17	-0.0111485
2339.4	1.90903
2339.63	1.90574
2339.86	0.940479
2340.1	2.85739
2340.33	0.930582
2340.56	0.92379
2340.79	-0.043993
2341.03	0.906809
2341.26	1.85852
2341.49	-0.0650444
2341.72	3.76631
2341.96	-0.0735874
2342.19	-1.9943
2342.42	-0.079237
2342.65	1.83656
2342.89	-1.99859
2343.12	0.875505
2343.35	1.83211
2343.58	-0.0858097
2343.82	2.79037
2344.05	3.74905
2344.28	1.83022
2344.51	-0.0894642
2344.75	3.74124
2344.98	-0.09725
2345.21	-0.103804
2345.44	1.80654
2345.68	1.80091
2345.91	2.75514
2346.14	-2.03559
2346.37	0.834782
2346.6	3.70404
2346.84	1.78574
2347.07	-2.04595
2347.3	-1.08966
2347.53	2.73993
2347.77	0.825989
2348	-0.131227
2348.23	-0.132648
2348.46	1.7792
2348.69	-0.141111
2348.93	3.67717
2349.16	-0.162283
2349.39	1.73769
2349.62	3.6334
2349.85	3.61357
2350.09	-2.14222
2350.32	-2.1837
2350.55	2.59789
2350.78	1.71929
2351.02	0.793842
2351.25	1.71102
2351.48	1.6775
2351.71	3.58264
2351.94	3.5841
2352.18	2.61505
2352.41	2.59139
2352.64	4.47589
2352.87	1.61859
2353.1	2.56855
2353.34	-1.24829
2353.57	0.65382
2353.8	1.60322
2354.03	-1.25261
2354.26	1.60956
2354.5	1.60636
2354.73	1.60233
2354.96	-1.26066
2355.19	2.54537
2355.42	1.58732
2355.66	0.628384
2355.89	5.37976
2356.12	-0.346319
2356.35	1.54448
2356.58	0.585489
2356.81	0.578609
2357.05	3.42415
2357.28	4.36792
2357.51	-3.24293
2357.74	0.553104
2357.97	2.44961
2358.21	0.540329
2358.44	1.4847
2358.67	1.47955
2358.9	-6.12431
2359.13	2.41872
2359.36	-1.38736
2359.6	-1.39531
2359.83	-5.20063
2360.06	3.33304
2360.29	2.37473
2360.52	1.41674
2360.75	2.35562
2360.99	1.39768
2361.22	-5.24725
2361.45	3.27331
2361.68	1.36749
2361.91	-0.537075
2362.14	-0.54608
2362.38	-2.44796
2362.61	0.383902
2362.84	0.376102
2363.07	-1.52338
2363.3	-0.583799
2363.53	2.24764
2363.77	0.347845
2364	1.28598
2364.23	-1.55934
2364.46	0.325623
2364.69	-2.51967
2364.92	1.25347
