#Acq. time (s)=	30
#Accumulations=	2
#Range (cm-¹)=	1200...2365
#Windows=	3
#Auto scanning=	Off
#Autofocus=	Off
#Macrospot=	Off
#AutoExposure=	Off
#Spike filter=	Multiple accum.
#Delay time (s)=	2
#Binning=	1
#Readout mode=	Signal
#DeNoise=	Off
#ICS correction=	On
#Dark correction=	Off
#Inst. Process=	Off
#Detector Gain=	Best Dynamic
#Detector ADC=	50 kHz HS
#Detector temperature (°C)=	-60.09
#Instrument=	LabRAM HR Evol
#Detector=	SIN-EM FIVIS
#Objective=	x100_VIS_LWD
#Grating=	1800 (450-850nm)
#ND Filter=	100%
#Laser=	532nm_Edge
#Hole=	49.98
#Temperature=	0
#Range=	Visible
#StageXY=	75x50mm Scan+
#StageZ=	Z motor
#X (µm)=	0
#Y (µm)=	0
#Z (µm)=	33.2
#Full time(mm:ss)=	3:22
#Project=	21_11_22
#Sample=	BU19w
#Site=	
#Title=	BU19w-D-FFore2-FI12-V_1800 (450-850nm)_532nm_Edge_100%_x100_VIS_LWD_H50um_30sX2
#Remark=	
#Date=	22.11.2021 14:29
#Acquired=	22.11.2021 14:29:18
#Base:Fit=	16.12.2021 17:39:50
#Base:Fit=	16.12.2021 17:40:01
#Base:Sub=	16.12.2021 17:40:04
1202.84	0.411493
1203.12	0.356794
1203.4	-1.84278
1203.67	1.3209
1203.95	-0.876087
1204.23	-3.06942
1204.51	-0.974863
1204.78	-1.02145
1205.06	0.00401688
1205.34	3.16928
1205.62	-0.0883293
1205.9	-3.34367
1206.17	4.09699
1206.45	2.98452
1206.73	-1.33229
1207.01	1.83448
1207.29	-1.41533
1207.56	2.81207
1207.84	-0.440207
1208.12	0.582495
1208.39	-1.59779
1208.67	-1.64123
1208.95	0.447138
1209.23	-0.664248
1209.51	-2.83841
1209.78	1.38229
1210.06	-1.85572
1210.34	-5.08992
1210.62	3.39164
1210.89	2.28741
1211.17	-0.939707
1211.45	0.0924225
1211.72	-3.13424
1212	1.0913
1212.28	2.12257
1212.56	-3.2337
1212.84	-0.0732861
1213.11	-0.110558
1213.39	0.913929
1213.67	0.872168
1213.94	0.83123
1214.22	-1.33218
1214.5	1.81841
1214.78	-1.4052
1215.05	-2.50178
1215.33	-0.412848
1215.61	0.6143
1215.89	0.582546
1216.16	2.67492
1216.44	-0.538668
1216.72	-0.568853
1216.99	-0.601013
1217.27	-2.75048
1217.55	3.58701
1217.83	-0.6835
1218.1	-2.83267
1218.38	1.37856
1218.66	4.52904
1218.93	3.43579
1219.21	-2.95668
1219.49	-0.873339
1219.77	-0.909767
1220.04	1.17016
1220.32	1.13438
1220.6	3.21317
1220.88	2.12358
1221.15	2.0905
1221.43	2.06052
1221.71	0.976948
1221.98	4.1174
1222.26	5.14962
1222.54	1.9635
1222.81	7.22421
1223.09	1.92712
1223.37	5.07301
1223.64	0.826607
1223.92	0.801569
1224.2	6.05393
1224.48	1.79954
1224.75	5.97164
1225.03	5.93145
1225.31	3.78875
1225.58	4.79545
1225.86	10.0076
1226.14	8.93209
1226.41	8.98626
1226.69	4.82302
1226.97	10.0613
1227.24	5.79469
1227.52	5.76371
1227.8	2.58955
1228.07	5.71975
1228.35	7.7408
1228.63	11.9302
1228.9	9.81187
1229.18	8.7443
1229.46	6.62267
1229.73	11.8596
1230.01	10.792
1230.29	10.773
1230.56	7.60545
1230.84	2.33994
1231.12	10.7327
1231.39	13.8739
1231.67	12.8146
1231.95	7.55265
1232.22	13.8484
1232.5	11.736
1232.78	6.47099
1233.05	7.51251
1233.33	8.55129
1233.61	9.58603
1233.88	6.41489
1234.16	2.19279
1234.43	4.27284
1234.71	2.15006
1234.99	8.42783
1235.26	4.20657
1235.54	7.33182
1235.82	4.16486
1236.09	4.14889
1236.37	0.989004
1236.65	3.07249
1236.92	5.1569
1237.2	4.09777
1237.47	1.9915
1237.75	3.03095
1238.03	5.11968
1238.3	1.96716
1238.58	0.908339
1238.85	-1.20137
1239.13	4.02659
1239.41	1.9224
1239.68	1.91629
1239.96	6.10395
1240.24	5.05308
1240.51	2.94903
1240.79	0.844994
1241.06	-0.208754
1241.34	0.8328
1241.62	1.87251
1241.89	2.91157
1242.17	1.85154
1242.45	0.790474
1242.72	1.82306
1243	-3.42739
1243.27	-1.34334
1243.55	-0.304035
1243.83	-4.49663
1244.1	-1.36183
1244.38	-4.50867
1244.65	2.8119
1244.93	0.711763
1245.2	1.74459
1245.48	3.82539
1245.76	-1.40981
1246.03	0.679058
1246.31	1.72323
1246.59	0.672379
1246.86	-0.378191
1247.14	-2.47317
1247.41	5.88526
1247.69	1.69216
1247.96	-2.49787
1248.24	5.85468
1248.51	5.84644
1248.79	0.615383
1249.07	-2.52501
1249.34	-0.442986
1249.62	1.63839
1249.89	-1.50063
1250.17	0.580215
1250.45	-1.51128
1250.72	-3.59988
1251	0.576645
1251.27	-0.463337
1251.55	0.585255
1251.82	-1.5011
1252.1	-0.457285
1252.38	0.588314
1252.65	-2.54457
1252.93	-0.457457
1253.2	-0.456606
1253.48	-1.49902
1253.75	-1.49514
1254.03	-3.58235
1254.3	0.595352
1254.58	-0.452257
1254.86	-1.4981
1255.13	5.81026
1255.41	2.67635
1255.68	1.63095
1255.96	-3.59366
1256.23	1.62506
1256.51	2.67399
1256.78	-0.453846
1257.06	3.73916
1257.33	2.689
1257.61	6.8606
1257.88	2.67626
1258.16	7.88766
1258.44	5.79814
1258.71	4.75829
1258.99	3.7431
1259.26	4.82763
1259.54	-1.41416
1259.81	2.72504
1260.09	4.78072
1260.36	8.93108
1260.64	10.0136
1260.91	4.82273
1261.19	9.03438
1261.46	5.92677
1261.74	10.0908
1262.01	16.3553
1262.29	20.5393
1262.56	25.767
1262.84	25.7604
1263.11	27.8537
1263.39	28.9067
1263.66	31.0084
1263.94	22.6615
1264.21	17.45
1264.49	20.6038
1264.76	10.1616
1265.04	9.13203
1265.31	9.15226
1265.59	6.02984
1265.86	4.99439
1266.14	5.00512
1266.41	2.91932
1266.69	3.97221
1266.96	6.06684
1267.24	10.2524
1267.51	1.87431
1267.79	8.15453
1268.06	6.06145
1268.34	2.9259
1268.61	0.836246
1268.89	7.12226
1269.16	5.04282
1269.44	5.05824
1269.71	1.93456
1269.99	6.13966
1270.26	1.96365
1270.54	4.07444
1270.81	7.23483
1271.09	4.10487
1271.36	3.0687
1271.64	4.12697
1271.91	4.13369
1272.18	7.28801
1272.46	-0.0440922
1272.74	3.11538
1273.01	5.22701
1273.28	5.24229
1273.56	7.35591
1273.83	5.2704
1274.11	8.43362
1274.38	8.44997
1274.66	2.16279
1274.93	9.53452
1275.21	1.14112
1275.48	3.25728
1275.76	5.37779
1276.03	8.5471
1276.3	9.61453
1276.58	6.46588
1276.85	7.52447
1277.13	7.5294
1277.4	8.58844
1277.68	6.49693
1277.95	8.61233
1278.23	8.62992
1278.5	8.6508
1278.77	9.7186
1279.05	9.72699
1279.32	16.0556
1279.6	12.9131
1279.87	16.0757
1280.15	21.3298
1280.42	23.3989
1280.69	34.9462
1280.97	40.2127
1281.24	52.8438
1281.52	68.8444
1281.79	98.3752
1282.07	136.33
1282.34	199.457
1282.61	238.336
1282.89	346.782
1283.16	425.859
1283.44	510.14
1283.71	482.658
1283.99	413.174
1284.26	277.348
1284.53	165.733
1284.81	105.718
1285.08	69.9326
1285.36	43.6332
1285.63	35.2272
1285.9	26.8226
1286.18	18.4205
1286.45	16.3341
1286.73	14.247
1287	14.2666
1287.28	10.0719
1287.55	12.1912
1287.82	11.1452
1288.1	7.9948
1288.37	4.84627
1288.64	5.91089
1288.92	2.76215
1289.19	3.82698
1289.47	7.00051
1289.74	3.85173
1290.01	0.701691
1290.29	7.03353
1290.56	1.78745
1290.84	2.86472
1291.11	3.94294
1291.38	1.85121
1291.66	1.86319
1291.93	6.09205
1292.21	6.10832
1292.48	2.96811
1292.75	4.0511
1293.03	5.13981
1293.3	4.1099
1293.57	-1.15868
1293.85	3.08269
1294.12	4.14977
1294.4	4.15753
1294.67	4.16442
1294.94	1.00172
1295.22	-1.10423
1295.49	2.07821
1295.76	-0.0219021
1296.04	-1.069
1296.31	3.16361
1296.58	3.17217
1296.86	3.1843
1297.13	-4.18843
1297.4	3.21799
1297.68	2.17615
1297.95	3.24408
1298.22	0.0887604
1298.5	-5.17639
1298.77	0.119972
1299.04	1.19333
1299.32	0.152821
1299.59	3.33596
1299.87	1.23648
1300.14	1.2483
1300.41	-0.85334
1300.69	2.324
1300.96	4.44784
1301.23	1.29403
1301.51	-1.8602
1301.78	-2.90288
1302.05	-1.8358
1302.33	-0.770435
1302.6	1.3488
1302.87	-0.753708
1303.15	1.36404
1303.42	-1.79179
1303.69	-0.725758
1303.97	0.342243
1304.24	0.358252
1304.51	-1.7365
1304.79	-2.77777
1305.06	2.50917
1305.33	0.415421
1305.6	0.42745
1305.88	1.49706
1306.15	-0.594719
1306.42	0.477564
1306.7	0.495272
1306.97	1.56723
1307.24	1.58071
1307.52	-1.57288
1307.79	1.60677
1308.06	1.62183
1308.34	-2.58411
1308.61	1.65257
1308.88	0.612999
1309.15	0.631302
1309.43	1.7051
1309.7	0.665337
1309.97	-0.376886
1310.25	0.689079
1310.52	-2.46501
1310.79	3.88108
1311.06	-1.38457
1311.34	-0.315012
1311.61	-3.46632
1311.88	3.9396
1312.16	1.84573
1312.43	0.807102
1312.7	0.824551
1312.98	-1.27028
1313.25	-1.2565
1313.52	-1.24367
1313.79	-3.34251
1314.07	-2.27277
1314.34	3.02174
1314.61	1.98335
1314.89	-1.16858
1315.16	3.07278
1315.43	-0.0809155
1315.7	-1.12245
1315.98	-3.22091
1316.25	-0.0377522
1316.52	-2.13705
1316.79	-1.06714
1317.07	2.11783
1317.34	-4.20592
1317.61	3.20241
1317.88	0.0443745
1318.16	0.053688
1318.43	3.22886
1318.7	2.17914
1318.97	0.0785503
1319.25	0.0860729
1319.52	-3.06716
1319.79	-0.946342
1320.06	-0.935009
1320.34	-0.9258
1320.61	1.20018
1320.88	-0.893143
1321.16	1.23084
1321.43	0.189873
1321.7	1.25936
1321.97	0.218143
1322.25	2.34407
1322.52	-0.810324
1322.79	-0.805876
1323.06	2.35604
1323.33	-0.806419
1323.61	-1.85117
1323.88	1.31676
1324.15	-0.766722
1324.42	1.36974
1324.7	2.44624
1324.97	-3.85307
1325.24	-4.8854
1325.51	0.409258
1325.79	-0.623446
1326.06	-3.77101
1326.33	0.459745
1326.6	-0.577927
1326.87	1.54569
1327.15	2.6131
1327.42	-0.54018
1327.69	-1.58448
1327.96	0.533665
1328.23	4.75747
1328.51	1.60039
1328.78	-1.55596
1329.05	0.556362
1329.32	0.564129
1329.6	1.62368
1329.87	1.62961
1330.14	0.583549
1330.41	2.69246
1330.68	2.69885
1330.96	-0.445877
1331.23	-1.4882
1331.5	-0.429604
1331.77	-0.420929
1332.04	-2.51056
1332.32	1.69706
1332.59	-0.391655
1332.86	1.71645
1333.13	-1.41979
1333.4	-0.360256
1333.67	2.79626
1333.95	1.75909
1334.22	0.72262
1334.49	-1.36159
1334.76	-2.39779
1335.03	-2.38827
1335.3	-3.42682
1335.58	2.86882
1335.85	2.87885
1336.12	1.84268
1336.39	-1.28539
1336.66	0.82349
1336.94	-1.25551
1337.21	-1.24097
1337.48	2.96266
1337.75	2.97766
1338.02	1.944
1338.29	5.09853
1338.57	-0.125189
1338.84	0.933367
1339.11	1.99051
1339.38	4.09261
1339.65	0.960375
1339.93	2.0142
1340.2	2.02424
1340.47	-0.0556469
1340.74	3.09482
1341.01	-0.0291691
1341.28	-0.0150604
1341.55	-3.13881
1341.82	0.0106907
1342.1	2.11211
1342.37	1.07515
1342.64	1.08167
1342.91	-5.1796
1343.18	0.0507278
1343.45	0.0536003
1343.73	1.10312
1344	1.10973
1344.27	2.15902
1344.54	-2.00504
1344.81	2.17449
1345.08	-0.942286
1345.35	1.15377
1345.63	-0.918766
1345.9	2.21762
1346.17	0.14292
1346.44	4.31854
1346.71	4.32705
1346.98	4.33564
1347.25	0.180002
1347.52	-1.89252
1347.8	1.23791
1348.07	0.204929
1348.34	1.25457
1348.61	3.3419
1348.88	4.3926
1349.15	4.40512
1349.42	2.34116
1349.69	2.35931
1349.96	-0.741375
1350.24	2.39605
1350.51	-1.73702
1350.78	3.51079
1351.05	3.5024
1351.32	1.3964
1351.59	1.38272
1351.86	1.39822
1352.13	1.41415
1352.41	3.497
1352.68	3.50372
1352.95	-0.631256
1353.22	2.50218
1353.49	4.58688
1353.76	1.48097
1354.03	5.64617
1354.3	2.54079
1354.57	1.51207
1354.84	3.59767
1355.11	2.568
1355.39	1.53843
1355.66	5.69784
1355.93	2.59265
1356.2	3.63769
1356.47	4.68368
1356.74	3.65586
1357.01	1.58887
1357.28	2.6308
1357.55	2.63654
1357.82	3.68005
1358.09	3.69017
1358.36	3.70204
1358.63	3.71362
1358.9	7.86752
1359.18	3.73407
1359.45	2.70799
1359.72	-0.388355
1359.99	3.7645
1360.26	4.81351
1360.53	6.90114
1360.8	1.73844
1361.07	4.86099
1361.34	6.94509
1361.61	4.88367
1361.88	4.89306
1362.15	2.82953
1362.42	9.04809
1362.69	3.87754
1362.97	3.88374
1363.24	10.0976
1363.51	6.99904
1363.78	1.83252
1364.05	7.00511
1364.32	7.01185
1364.59	7.02084
1364.86	6.00203
1365.13	6.01618
1365.4	9.13066
1365.67	10.178
1365.94	-0.146824
1366.21	4.00218
1366.48	10.2195
1366.75	4.02451
1367.02	10.2357
1367.29	8.17635
1367.56	7.14726
1367.83	7.15461
1368.1	8.19411
1368.37	15.4272
1368.64	24.7187
1368.91	34.0008
1369.18	25.7378
1369.45	14.3882
1369.72	10.2657
1369.99	9.24042
1370.26	10.2782
1370.54	8.22424
1370.81	8.2323
1371.08	8.24087
1371.34	6.18914
1371.62	6.19839
1371.89	7.23753
1372.16	9.30495
1372.43	8.28667
1372.7	11.392
1372.97	13.4625
1373.24	13.4759
1373.51	7.29815
1373.78	9.36178
1374.05	12.4512
1374.32	12.4465
1374.59	12.461
1374.86	13.5091
1375.13	19.7113
1375.4	14.5903
1375.67	14.6219
1375.94	16.7011
1376.21	12.5866
1376.48	17.7471
1376.75	17.7522
1377.02	19.8163
1377.29	14.6606
1377.56	20.8167
1377.83	24.9235
1378.09	22.8568
1378.36	19.7904
1378.64	21.8478
1378.91	24.9221
1379.18	21.8274
1379.44	27.9809
1379.71	29.0002
1379.98	25.9122
1380.25	31.0389
1380.52	28.982
1380.79	33.0849
1381.06	34.1114
1381.33	28.9969
1381.6	36.1878
1381.87	38.2589
1382.14	30.0775
1382.41	35.2389
1382.68	36.2898
1382.95	45.5535
1383.22	39.4101
1383.49	43.5409
1383.76	43.5571
1384.03	50.7568
1384.3	56.8807
1384.57	70.0591
1384.84	69.9126
1385.11	93.3567
1385.38	126.228
1385.65	168.484
1385.92	255.931
1386.19	419.391
1386.45	637.091
1386.72	1016.14
1386.99	1216.03
1387.26	1000.72
1387.53	578.813
1387.8	317.377
1388.07	190.14
1388.34	108.139
1388.61	69.197
1388.88	57.9161
1389.15	49.7105
1389.42	41.511
1389.69	27.1749
1389.96	31.2723
1390.23	22.0624
1390.49	29.2318
1390.76	21.0485
1391.03	21.054
1391.3	14.9201
1391.57	15.9499
1391.84	21.073
1392.11	15.969
1392.38	9.84304
1392.65	11.9026
1392.92	12.9366
1393.19	12.9443
1393.46	8.85605
1393.73	8.86119
1393.99	11.9358
1394.26	12.9616
1394.53	13.9867
1394.8	9.90027
1395.07	8.88529
1395.34	9.91827
1395.61	12.9989
1395.88	9.94047
1396.15	3.81154
1396.42	7.91664
1396.68	10.9983
1396.95	6.91541
1397.22	8.9705
1397.49	4.88766
1397.76	8.99737
1398.03	10.0331
1398.3	10.0404
1398.57	4.93094
1398.84	4.9389
1399.11	7.00342
1399.38	6.00105
1399.64	10.1272
1399.91	5.01825
1400.18	10.1665
1400.45	7.09938
1400.72	3.00119
1400.99	7.11051
1401.26	12.232
1401.53	6.08769
1401.79	9.17101
1402.06	4.04612
1402.33	6.10076
1402.6	7.12882
1402.87	6.1062
1403.14	10.2098
1403.41	7.13893
1403.68	12.2685
1403.94	9.2023
1404.21	9.21165
1404.48	9.22146
1404.75	13.3313
1405.02	11.29
1405.29	11.2989
1405.56	12.3333
1405.82	16.4446
1406.09	11.3272
1406.36	16.4651
1406.63	21.6039
1406.9	25.7165
1407.17	23.6728
1407.44	33.928
1407.7	41.0982
1407.97	44.1611
1408.24	48.2522
1408.51	55.4199
1408.78	54.3921
1409.05	41.0773
1409.31	33.92
1409.58	22.6675
1409.85	21.6727
1410.12	16.596
1410.39	12.519
1410.66	11.4776
1410.92	6.31223
1411.19	12.4762
1411.46	8.39933
1411.73	7.39404
1412	5.34509
1412.27	6.37916
1412.53	4.33226
1412.8	7.41931
1413.07	5.37422
1413.34	8.46347
1413.61	7.44545
1413.88	4.37319
1414.14	5.40942
1414.41	4.39123
1414.68	7.48241
1414.95	6.46267
1415.22	8.5244
1415.48	4.42104
1415.75	2.37303
1416.02	5.46221
1416.29	3.41347
1416.56	4.44474
1416.82	4.44625
1417.09	4.44724
1417.36	4.44864
1417.63	5.47646
1417.9	1.37024
1418.17	1.37201
1418.43	4.45466
1418.7	5.48792
1418.97	1.39299
1419.24	3.46006
1419.5	-2.69126
1419.77	5.54649
1420.04	3.51492
1420.31	5.60115
1420.58	0.420198
1420.84	6.52412
1421.11	0.387857
1421.38	2.4234
1421.65	2.42566
1421.92	4.48915
1422.18	2.45661
1422.45	3.49531
1422.72	3.4937
1422.99	4.53432
1423.26	4.53778
1423.52	1.46203
1423.79	5.56338
1424.06	4.5366
1424.33	5.55952
1424.59	0.432549
1424.86	4.52704
1425.13	4.52804
1425.4	2.48354
1425.66	2.48872
1425.93	1.47089
1426.2	-2.61869
1426.47	3.53301
1426.73	1.49267
1427	5.60005
1427.27	6.63618
1427.54	4.59664
1427.81	5.63361
1428.07	1.54592
1428.34	4.63663
1428.61	-0.486151
1428.88	1.57153
1429.14	7.72985
1429.41	1.57216
1429.68	3.62499
1429.94	3.62301
1430.21	4.64402
1430.48	3.61371
1430.75	-2.53702
1431.02	-0.488819
1431.28	4.63334
1431.55	1.5743
1431.82	-1.49005
1432.08	4.66327
1432.35	2.61832
1432.62	-0.452059
1432.89	-0.448721
1433.15	-1.47032
1433.42	2.63081
1433.69	2.63296
1433.96	2.63495
1434.22	7.75859
1434.49	4.68898
1434.76	2.64224
1435.02	3.66909
1435.29	0.601555
1435.56	0.608444
1435.83	-0.410152
1436.09	3.69227
1436.36	1.6483
1436.63	-1.41882
1436.89	4.73841
1437.16	1.67329
1437.43	1.67989
1437.7	2.71041
1437.96	1.68914
1438.23	1.69395
1438.5	2.72168
1438.77	4.77238
1439.03	0.672897
1439.3	8.88355
1439.57	1.70996
1439.83	2.7434
1440.1	-1.35773
1440.37	0.69346
1440.63	1.71926
1440.9	2.74567
1441.17	2.74814
1441.43	0.702272
1441.7	-0.314068
1441.97	-1.33198
1442.24	0.729679
1442.5	-1.32061
1442.77	2.78449
1443.03	1.76008
1443.3	0.735828
1443.57	-1.31378
1443.84	2.79031
1444.1	-1.31022
1444.37	0.741961
1444.64	1.76782
1444.9	0.743502
1445.17	-1.30414
1445.44	1.7779
1445.7	3.83705
1445.97	-0.261097
1446.24	2.81871
1446.5	-2.30807
1446.77	3.84548
1447.04	-1.28184
1447.3	3.84367
1447.57	3.84457
1447.84	1.79566
1448.1	2.82172
1448.37	4.87232
1448.64	-0.250935
1448.9	1.7992
1449.17	0.775728
1449.44	-2.29604
1449.7	1.80496
1449.97	2.83309
1450.24	1.81351
1450.5	-0.231396
1450.77	1.82114
1451.04	-3.30157
1451.3	1.82356
1451.57	0.80134
1451.83	2.85335
1452.1	-0.218807
1452.37	0.806992
1452.63	-0.215094
1452.9	-0.20937
1453.17	-1.23001
1453.43	0.822323
1453.7	-1.22662
1453.97	2.87156
1454.23	1.84568
1454.5	-0.202568
1454.77	1.8473
1455.03	-0.200132
1455.3	-2.24657
1455.56	-2.24402
1455.83	-0.191961
1456.1	3.90925
1456.36	-1.21066
1456.63	1.86571
1456.9	1.86707
1457.16	-1.20569
1457.43	-0.180466
1457.69	-1.20432
1457.96	-0.179934
1458.23	5.96438
1458.49	-1.20482
1458.76	1.86618
1459.02	2.88835
1459.29	-0.184223
1459.56	1.86052
1459.82	4.92725
1460.09	0.83217
1460.36	-2.23861
1460.62	-0.195572
1460.89	-0.194794
1461.15	2.88039
1461.42	-0.176977
1461.69	-2.21548
1461.95	2.91367
1462.22	2.90283
1462.48	0.820065
1462.75	-0.21562
1463.02	0.803528
1463.28	1.83234
1463.55	-0.208715
1463.81	0.804993
1464.08	0.803156
1464.35	-1.23354
1464.61	-1.2331
1464.88	-0.21274
1465.14	0.807966
1465.41	0.809101
1465.67	1.83019
1465.94	-1.22943
1466.21	1.82995
1466.47	0.809099
1466.74	1.82644
1467	3.86162
1467.27	0.801136
1467.54	1.81878
1467.8	1.81769
1468.07	2.83624
1468.33	-0.221329
1468.6	2.8318
1468.86	2.82999
1469.13	0.793034
1469.39	-2.26127
1469.66	1.81241
1469.93	0.794809
1470.19	-2.25981
1470.46	0.792999
1470.72	-0.226681
1470.99	-0.227808
1471.25	-0.228092
1471.52	0.790545
1471.79	2.82877
1472.05	-2.25764
1472.32	2.83281
1472.58	-4.29137
1472.85	1.81469
1473.11	-1.23978
1473.38	3.84686
1473.64	2.82851
1473.91	1.8089
1474.17	-0.227743
1474.44	0.788548
1474.71	-2.26214
1474.97	-1.24471
1475.24	2.82162
1475.5	-3.2815
1475.77	0.783005
1476.03	-1.25173
1476.3	0.778505
1476.56	1.79166
1476.83	1.78806
1477.09	-3.29335
1477.36	0.762875
1477.62	-1.27195
1477.89	-1.27474
1478.15	0.753563
1478.42	-1.27789
1478.68	3.79693
1478.95	-2.28706
1479.22	-0.253572
1479.48	0.766027
1479.75	-1.26069
1480.01	-0.244665
1480.28	-1.25725
1480.54	-0.239927
1480.81	-1.25465
1481.07	2.8072
1481.34	1.7844
1481.6	-1.26971
1481.87	-3.31448
1482.13	-0.298885
1482.4	-2.33062
1482.66	0.687681
1482.93	1.74687
1483.19	-0.273108
1483.46	1.7635
1483.72	-1.29734
1483.99	0.738695
1484.25	1.75607
1484.52	0.737272
1484.78	0.733089
1485.05	0.730818
1485.31	0.728121
1485.58	0.724268
1485.84	-1.30436
1486.11	-0.295376
1486.37	0.714764
1486.64	-2.32178
1486.9	2.73573
1487.17	3.74759
1487.43	-4.34553
1487.7	-0.300751
1487.96	-3.33815
1488.22	0.703592
1488.49	-0.309067
1488.75	3.73436
1489.02	-1.3205
1489.28	2.72481
1489.55	-1.31968
1489.81	0.701557
1490.08	1.71202
1490.34	0.701365
1490.61	1.71104
1490.87	3.73208
1491.14	1.71084
1491.4	-0.309467
1491.67	1.7144
1491.93	-1.31901
1492.19	1.71089
1492.46	-1.32644
1492.72	2.70799
1492.99	1.69195
1493.25	-0.331079
1493.52	-2.35263
1493.78	0.673775
1494.05	-1.34751
1494.31	1.68025
1494.58	-3.36615
1494.84	1.6791
1495.1	-1.34892
1495.37	3.6973
1495.63	-4.37597
1495.9	-2.35692
1496.16	-0.33757
1496.43	2.69175
1496.69	0.674757
1496.96	0.676495
1497.22	1.68685
1497.48	-0.332436
1497.75	1.68602
1498.01	-2.35268
1498.28	-0.335478
1498.54	-1.34845
1498.81	-1.34961
1499.07	0.668104
1499.34	-1.35089
1499.6	2.68357
1499.86	0.661392
1500.13	1.66591
1500.39	3.68058
1500.66	2.66796
1500.92	-0.35725
1501.18	-1.36392
1501.45	-2.37163
1501.71	0.653786
1501.98	-1.36398
1502.24	-0.357546
1502.5	-1.3686
1502.77	-2.38135
1503.03	-2.3876
1503.3	-1.38146
1503.56	2.64758
1503.83	2.64812
1504.09	-0.371584
1504.35	0.63661
1504.62	-1.37805
1504.88	-0.370609
1505.15	0.635612
1505.41	-1.38085
1505.67	-1.38073
1505.94	-2.38789
1506.2	2.65044
1506.47	1.64233
1506.73	0.634346
1506.99	-2.38707
1507.26	-1.37809
1507.52	-0.374035
1507.78	-0.377758
1508.05	-0.382269
1508.31	-2.40146
1508.58	1.61805
1508.84	-0.404968
1509.1	-1.4204
1509.37	0.580828
1509.63	-0.432337
1509.9	-0.437435
1510.16	1.56628
1510.42	-1.44966
1510.69	-1.4515
1510.95	1.56408
1511.21	-0.436947
1511.48	1.57393
1511.74	-0.437479
1512.01	-1.44605
1512.27	1.56081
1512.53	0.551708
1512.8	3.55576
1513.06	0.539469
1513.32	-0.467941
1513.59	-1.47286
1513.85	1.53359
1514.11	-1.47602
1514.38	2.53367
1514.64	-0.474209
1514.9	0.529472
1515.17	-1.47315
1515.43	-2.47537
1515.7	-2.47452
1515.96	0.535387
1516.22	2.54311
1516.49	-0.465267
1516.75	0.538651
1517.01	-1.46862
1517.28	-0.467272
1517.54	1.53735
1517.8	-1.47144
1518.07	1.53977
1518.33	-2.47218
1518.59	2.54515
1518.86	-1.46947
1519.12	-2.47462
1519.38	1.53597
1519.65	-1.47599
1519.91	-0.475197
1520.17	-1.48132
1520.44	-2.48931
1520.7	2.51456
1520.96	3.51029
1521.23	-0.501396
1521.49	2.49946
1521.75	-1.50952
1522.02	2.49765
1522.28	0.495417
1522.54	0.495792
1522.81	0.498196
1523.07	0.501455
1523.33	1.50836
1523.59	-1.49468
1523.86	1.51365
1524.12	-2.49657
1524.38	0.507448
1524.65	-1.4985
1524.91	2.50808
1525.17	0.501982
1525.44	2.50314
1525.7	1.4987
1525.96	-0.506905
1526.23	-0.508196
1526.49	-1.51047
1526.75	1.49284
1527.02	1.48917
1527.28	-0.51491
1527.54	1.4893
1527.8	-3.51521
1528.07	0.4951
1528.33	0.497829
1528.59	1.50006
1528.86	-1.50764
1529.12	-0.505367
1529.38	-1.51018
1529.64	0.495447
1529.91	-0.502039
1530.17	-2.50098
1530.43	0.512714
1530.69	-0.487915
1530.96	-1.48984
1531.22	0.516031
1531.48	1.51776
1531.75	0.512856
1532.01	0.510485
1532.27	0.508492
1532.53	-1.50057
1532.8	-0.507505
1533.06	-0.513443
1533.32	-0.517796
1533.59	1.47821
1533.85	-2.53341
1534.11	-1.5386
1534.37	1.46019
1534.64	0.454758
1534.9	1.45508
1535.16	2.45082
1535.42	0.444208
1535.69	3.44094
1535.95	-0.5599
1536.21	2.444
1536.48	-1.54559
1536.74	1.47013
1537	-1.52453
1537.26	-1.51752
1537.53	-1.51005
1537.79	0.499918
1538.05	2.50798
1538.31	-0.508724
1538.58	2.49748
1538.84	1.4893
1539.1	-4.52732
1539.36	2.48027
1539.62	0.471951
1539.89	1.46836
1540.15	3.46548
1540.41	0.457685
1540.67	-0.549097
1540.94	-0.555807
1541.2	-8.55583
1541.46	4.44632
1541.72	-0.550817
1541.98	-1.54605
1542.25	1.46003
1542.51	2.46929
1542.77	-1.53209
1543.03	5.48124
1543.3	1.47702
1543.56	0.473917
1543.82	1.47633
1544.08	0.476677
1544.35	-1.5251
1544.61	-1.52326
1544.87	4.48424
1545.13	-1.53644
1545.39	1.46743
1545.66	-2.53755
1545.92	0.472965
1546.18	-1.54641
1546.44	-4.56409
1546.71	3.42832
1546.97	-2.55989
1547.23	-0.541197
1547.49	-1.51576
1547.75	0.510267
1548.02	-1.479
1548.28	1.52067
1548.54	-4.50191
1548.8	-1.49295
1549.06	1.51183
1549.33	2.52479
1549.59	-0.479424
1549.85	2.53106
1550.11	-0.486816
1550.37	1.506
1550.64	2.50579
1550.9	2.50404
1551.16	1.49687
1551.42	0.488432
1551.68	1.48426
1551.94	2.47879
1552.21	5.48139
1552.47	1.47287
1552.73	0.471001
1552.99	1.47398
1553.25	-0.529203
1553.52	1.4712
1553.78	4.47639
1554.04	1.4728
1554.3	2.47582
1554.56	2.47628
1554.82	-0.530035
1555.09	4.47458
1555.35	-3.54281
1555.61	4.46158
1555.87	1.45172
1556.13	1.44552
1556.39	2.4403
1556.65	3.43561
1556.92	3.43175
1557.18	1.42953
1557.44	2.42698
1557.7	1.42599
1557.96	1.42487
1558.22	0.425465
1558.49	1.42629
1558.75	-4.56727
1559.01	-0.563911
1559.27	4.4426
1559.53	0.442411
1559.79	-1.55854
1560.05	2.44026
1560.32	2.44156
1560.58	-2.56021
1560.84	2.43842
1561.1	2.44604
1561.36	1.45406
1561.62	-2.54622
1561.88	0.455166
1562.15	2.44563
1562.41	-0.586796
1562.67	3.35314
1562.93	3.32241
1563.19	-0.579914
1563.45	1.44339
1563.71	3.4325
1563.98	0.420771
1564.24	2.43588
1564.5	-0.545904
1564.76	1.45109
1565.02	0.437164
1565.28	-2.55943
1565.54	0.442894
1565.8	0.444662
1566.07	4.44281
1566.33	2.43551
1566.59	-0.566683
1566.85	1.4324
1567.11	3.43319
1567.37	2.43469
1567.63	4.43425
1567.89	2.43542
1568.15	3.43426
1568.42	3.4327
1568.68	0.432308
1568.94	2.42711
1569.2	4.42471
1569.46	0.427166
1569.72	3.41962
1569.98	2.41838
1570.24	1.41756
1570.5	0.416536
1570.77	-0.583733
1571.03	5.40521
1571.29	6.40826
1571.55	0.424059
1571.81	2.42657
1572.07	3.43141
1572.33	0.439856
1572.59	1.44333
1572.85	-1.55322
1573.11	4.44195
1573.37	2.44354
1573.64	3.44096
1573.9	4.43346
1574.16	-2.56431
1574.42	5.41552
1574.68	1.41654
1574.94	2.40818
1575.2	3.39964
1575.46	1.40213
1575.72	0.404625
1575.98	3.39589
1576.24	0.405617
1576.5	-0.59046
1576.76	2.40222
1577.03	-1.58249
1577.29	3.40551
1577.55	1.41223
1577.81	1.41215
1578.07	1.41058
1578.33	1.40813
1578.59	0.409464
1578.85	4.39267
1579.11	4.38844
1579.37	0.402321
1579.63	2.39422
1579.89	4.38566
1580.15	1.39685
1580.41	4.38524
1580.67	4.38551
1580.93	4.38399
1581.19	3.38882
1581.46	-2.58448
1581.72	1.40182
1581.98	5.38805
1582.24	0.40814
1582.5	4.3922
1582.76	-0.587645
1583.02	2.39939
1583.28	4.38681
1583.54	2.39107
1583.8	3.38349
1584.06	3.38148
1584.32	0.394907
1584.58	2.38416
1584.84	3.379
1585.1	0.395378
1585.36	7.36295
1585.62	4.38158
1585.88	3.39076
1586.14	4.38991
1586.4	4.39392
1586.66	-0.580837
1586.92	-0.579111
1587.18	4.40004
1587.44	2.41155
1587.7	1.41931
1587.96	0.426432
1588.22	4.41052
1588.48	0.427992
1588.74	0.427834
1589	2.41845
1589.26	4.4059
1589.52	0.41898
1589.78	3.40045
1590.04	2.4035
1590.3	4.38583
1590.56	3.3838
1590.82	4.36942
1591.08	2.3779
1591.34	4.36272
1591.6	9.33014
1591.86	3.37453
1592.12	6.36097
1592.38	5.37193
1592.64	7.36086
1592.9	3.37713
1593.16	5.3644
1593.42	0.399586
1593.68	0.401073
1593.94	4.37617
1594.2	1.39915
1594.46	4.38252
1594.72	-0.581587
1594.98	1.40632
1595.24	4.38593
1595.5	2.3968
1595.76	3.38542
1596.02	1.39603
1596.28	5.36376
1596.54	4.36876
1596.8	1.38976
1597.06	2.3798
1597.32	4.36151
1597.58	6.34185
1597.84	6.33719
1598.1	6.33092
1598.36	2.36099
1598.62	3.34614
1598.88	3.3417
1599.14	3.33864
1599.4	-0.623318
1599.66	2.34312
1599.92	9.26504
1600.18	5.30389
1600.44	3.32312
1600.7	4.31075
1600.96	4.31044
1601.22	4.31153
1601.48	3.32481
1601.73	5.30464
1601.99	6.29534
1602.25	4.31997
1602.51	4.3225
1602.77	9.27061
1603.03	4.33046
1603.29	1.36775
1603.55	7.30776
1603.81	3.35472
1604.07	0.389992
1604.33	4.35025
1604.59	9.29911
1604.85	3.36322
1605.11	4.35412
1605.37	5.34501
1605.63	2.37819
1605.89	2.37839
1606.14	6.33114
1606.4	5.33652
1606.66	6.32089
1606.92	6.31555
1607.18	5.30896
1607.44	4.32256
1607.7	-0.464886
1607.96	6.24731
1608.22	1.57423
1608.48	6.16554
1608.74	6.92886
1609	2.31864
1609.26	6.7301
1609.51	1.5881
1609.77	4.88721
1610.03	6.72687
1610.29	5.33496
1610.55	5.8009
1610.81	3.62393
1611.07	3.51878
1611.33	5.89582
1611.59	3.32422
1611.85	3.85807
1612.11	6.3241
1612.36	4.39304
1612.62	7.58902
1612.88	3.1525
1613.14	3.15309
1613.4	1.59675
1613.66	5.76241
1613.92	6.34723
1614.18	5.45896
1614.44	6.00858
1614.7	3.14439
1614.95	3.44392
1615.21	3.30772
1615.47	5.27353
1615.73	4.967
1615.99	3.2613
1616.25	2.70843
1616.51	4.56327
1616.77	6.03168
1617.03	8.90391
1617.28	7.48536
1617.54	6.41967
1617.8	5.17645
1618.06	3.75966
1618.32	5.42968
1618.58	5.17548
1618.84	4.66652
1619.1	5.47218
1619.35	5.45853
1619.61	6.30885
1619.87	5.96694
1620.13	4.33536
1620.39	4.20832
1620.65	6.78742
1620.91	5.39061
1621.17	6.9318
1621.42	4.94206
1621.68	5.58169
1621.94	4.27861
1622.2	6.75452
1622.46	3.74543
1622.72	6.86086
1622.98	4.66865
1623.23	3.61904
1623.49	5.44861
1623.75	6.37866
1624.01	7.79997
1624.27	3.066
1624.53	5.01524
1624.79	5.60025
1625.04	8.33193
1625.3	7.00905
1625.56	4.13175
1625.82	4.35708
1626.08	4.81108
1626.34	10.2551
1626.59	6.09062
1626.85	5.50392
1627.11	5.09906
1627.37	4.98423
1627.63	7.13622
1627.89	7.75925
1628.14	8.61493
1628.4	2.94163
1628.66	4.34872
1628.92	5.97799
1629.18	5.72099
1629.44	4.41141
1629.69	6.7521
1629.95	5.42168
1630.21	6.74936
1630.47	6.90398
1630.73	6.22647
1630.99	6.06278
1631.24	5.20591
1631.29	5.07732
1631.55	5.08097
1631.81	2.12691
1632.07	7.0575
1632.33	5.08776
1632.59	9.03119
1632.86	7.06051
1633.12	6.07507
1633.38	5.08949
1633.64	8.04464
1633.9	6.07359
1634.16	4.10251
1634.42	9.02506
1634.68	3.11808
1634.95	5.08889
1635.21	7.05839
1635.47	3.1211
1635.73	3.12278
1635.99	6.07885
1636.25	5.09728
1636.51	4.11554
1636.77	7.07124
1637.03	6.08916
1637.3	5.10694
1637.56	4.12741
1637.82	8.07259
1638.08	5.1245
1638.34	9.06642
1638.6	5.12845
1638.86	3.16004
1639.12	8.08382
1639.39	10.0543
1639.65	8.08724
1639.91	7.10479
1640.17	7.10686
1640.43	6.12518
1640.69	5.14284
1640.95	5.14374
1641.21	6.1281
1641.47	8.09456
1641.73	5.14377
1641.99	5.14608
1642.25	8.10398
1642.52	6.14161
1642.78	6.14683
1643.04	8.11731
1643.3	6.14955
1643.56	10.0852
1643.82	4.18287
1644.08	9.10337
1644.34	7.13574
1644.6	3.20258
1644.86	7.13721
1645.12	4.19044
1645.38	2.22755
1645.65	6.16971
1645.91	6.17778
1646.17	5.21182
1646.43	8.16796
1646.69	2.26264
1646.95	5.21593
1647.21	4.23603
1647.47	5.23257
1647.73	5.23974
1647.99	4.26281
1648.25	6.24078
1648.51	7.2322
1648.77	8.22189
1649.03	5.26877
1649.29	5.2722
1649.55	7.24778
1649.82	6.26185
1650.08	9.21832
1650.34	14.1468
1650.6	7.25398
1650.86	7.25882
1651.12	7.26508
1651.38	5.29879
1651.64	7.27419
1651.9	1.36598
1652.16	7.28673
1652.42	5.32385
1652.68	4.34835
1652.94	8.30641
1653.2	7.32857
1653.46	6.34858
1653.72	6.35392
1653.98	2.40963
1654.24	7.34764
1654.5	10.3097
1654.76	7.34958
1655.02	4.39092
1655.28	7.35286
1655.54	7.35341
1655.81	7.35329
1656.07	2.42127
1656.33	3.40797
1656.58	5.38048
1656.84	7.35193
1657.11	3.40882
1657.37	5.38616
1657.63	1.44889
1657.89	7.37268
1658.15	6.3946
1658.41	6.40301
1658.67	4.43734
1658.93	5.43058
1659.19	4.44077
1659.45	5.42872
1659.71	4.48446
1659.97	4.50095
1660.23	5.483
1660.49	8.45121
1660.75	4.47893
1661.01	4.45897
1661.27	5.46829
1661.53	6.46312
1661.79	5.48478
1662.05	4.51218
1662.31	5.50164
1662.57	6.45662
1662.83	4.49851
1663.09	3.55529
1663.35	8.50325
1663.61	5.54396
1663.87	3.50226
1664.13	1.52647
1664.39	3.53946
1664.65	3.53854
1664.91	6.50013
1665.17	6.50047
1665.43	4.52782
1665.69	3.54751
1665.95	6.52592
1666.21	3.57673
1666.47	3.5821
1666.72	3.58657
1666.99	0.627905
1667.25	6.55395
1667.51	3.59875
1667.76	4.60388
1668.02	4.61087
1668.28	3.62391
1668.54	5.60331
1668.8	1.65285
1669.06	2.64699
1669.32	4.62919
1669.58	5.62235
1669.84	2.66032
1670.1	6.61853
1670.36	3.65765
1670.62	5.63982
1670.88	1.69094
1671.14	2.68598
1671.4	3.68187
1671.66	4.6774
1671.92	4.68455
1672.18	2.71445
1672.44	2.72111
1672.7	3.71636
1672.96	3.72022
1673.22	6.6928
1673.48	3.72917
1673.74	4.72405
1674	4.72858
1674.25	3.74231
1674.51	3.74496
1674.77	3.74691
1675.03	0.779373
1675.29	3.74727
1675.55	1.76866
1675.81	2.7583
1676.07	2.75975
1676.33	4.73864
1676.59	4.74102
1676.85	0.789087
1677.11	5.73298
1677.37	0.794168
1677.63	2.77258
1677.89	6.72687
1678.15	3.76517
1678.4	1.79265
1678.66	2.78446
1678.92	0.812674
1679.18	5.75644
1679.44	4.773
1679.7	3.78946
1679.96	6.75646
1680.22	4.78433
1680.48	2.81259
1680.74	0.840918
1681	4.79578
1681.25	2.82255
1681.51	2.82401
1681.77	2.82669
1682.03	1.84248
1682.29	2.83361
1682.55	4.81246
1682.81	3.82923
1683.07	5.80867
1683.33	-0.111263
1683.59	2.858
1683.84	-1.0853
1684.1	3.85984
1684.36	2.87614
1684.62	4.85425
1684.88	2.88054
1685.14	-1.06771
1685.4	2.88496
1685.66	5.84907
1685.92	4.86216
1686.18	4.86203
1686.43	2.88884
1686.69	-1.05716
1686.95	2.88959
1687.21	3.87579
1687.47	2.89535
1687.73	0.930519
1687.99	4.8836
1688.25	8.83664
1688.51	2.92159
1688.76	0.955008
1689.02	0.960457
1689.28	2.93847
1689.54	0.967678
1689.8	1.95552
1690.06	-1.00337
1690.32	0.969624
1690.58	0.968866
1690.84	-1.00377
1691.09	2.94019
1691.35	1.95488
1691.61	0.9702
1691.87	1.95732
1692.13	-0.00782013
1692.39	3.93824
1692.64	4.92892
1692.9	2.96431
1693.16	1.98496
1693.42	1.99253
1693.68	1.99832
1693.94	1.01661
1694.2	3.97508
1694.46	3.97504
1694.71	0.0341263
1694.97	3.97269
1695.23	3.97297
1695.49	1.02102
1695.75	0.0384064
1696.01	2.99279
1696.26	2.01216
1696.52	2.0165
1696.78	3.00615
1697.04	2.02672
1697.3	2.03089
1697.56	2.03191
1697.81	3.01967
1698.07	1.0557
1698.33	1.05904
1698.59	3.02878
1698.85	2.04634
1699.11	3.03029
1699.37	-1.88409
1699.62	-0.899729
1699.88	-0.897671
1700.14	1.07137
1700.4	2.05785
1700.66	0.0958996
1700.91	-0.883524
1701.17	3.05049
1701.43	6.00482
1701.69	1.09857
1701.95	0.120651
1702.21	0.124287
1702.46	0.128077
1702.72	0.132729
1702.98	0.136534
1703.24	0.138109
1703.5	0.138884
1703.75	0.139299
1704.01	0.139503
1704.27	0.140011
1704.53	2.10303
1704.79	1.12123
1705.04	2.10061
1705.3	3.07945
1705.56	-0.842638
1705.82	4.0542
1706.08	2.09383
1706.33	-0.842939
1706.59	0.138596
1706.85	-0.836689
1707.11	-0.832144
1707.37	2.10971
1707.62	1.13602
1707.88	1.14275
1708.14	0.170521
1708.4	2.13544
1708.66	0.182905
1708.91	1.16813
1709.17	0.193026
1709.43	3.13304
1709.69	4.10993
1709.95	2.14863
1710.2	5.07922
1710.46	-0.79092
1710.72	0.18442
1710.98	3.11511
1711.23	-0.791363
1711.49	-0.788673
1711.75	2.14492
1712.01	1.17186
1712.27	1.17652
1712.52	-0.767946
1712.78	-0.761166
1713.04	2.17416
1713.3	1.19997
1713.55	0.224823
1713.81	2.17866
1714.07	-1.72763
1714.33	-1.72862
1714.58	-0.755266
1714.84	-0.758947
1715.1	-0.760658
1715.36	-0.762442
1715.61	0.211399
1715.87	2.16011
1716.13	1.18929
1716.39	0.220427
1716.64	2.17187
1716.9	0.228153
1717.16	3.15628
1717.42	-0.734077
1717.68	0.242123
1717.93	3.16344
1718.19	-1.70329
1718.45	1.21747
1718.71	1.21819
1718.96	-0.726271
1719.22	-1.69795
1719.48	0.24671
1719.74	0.247038
1719.99	0.247725
1720.25	2.19142
1720.51	0.250799
1720.76	0.253786
1721.02	-0.712362
1721.28	0.261402
1721.54	0.265381
1721.79	-1.67486
1722.05	2.20709
1722.31	0.263783
1722.56	-3.61616
1722.82	1.23021
1723.08	2.20032
1723.34	0.265406
1723.59	0.271433
1723.85	-0.694847
1724.11	1.24442
1724.37	1.24325
1724.62	0.280527
1724.88	0.288618
1725.14	0.291351
1725.39	0.292303
1725.65	0.286547
1725.91	-0.700544
1726.17	0.24807
1726.42	1.21339
1726.68	2.19434
1726.94	1.24229
1727.19	-1.649
1727.45	-0.686857
1727.71	-2.61655
1727.96	0.288458
1728.22	-0.659086
1728.48	0.312908
1728.74	1.28417
1728.99	0.321829
1729.25	0.325239
1729.51	0.328224
1729.76	-1.60149
1730.02	1.29866
1730.28	-0.632513
1730.53	1.29771
1730.79	-1.60031
1731.05	0.328014
1731.3	0.327442
1731.56	2.25484
1731.82	0.325813
1732.08	1.28839
1732.33	1.28736
1732.59	2.25026
1732.85	-1.59963
1733.1	-0.634396
1733.36	-1.59369
1733.62	0.333933
1733.87	0.336334
1734.13	0.338598
1734.39	0.340706
1734.64	1.30508
1734.9	-0.616232
1735.16	0.34687
1735.41	1.30918
1735.67	0.348959
1735.93	-1.57193
1736.18	1.31095
1736.44	1.31009
1736.7	1.30734
1736.95	-0.615261
1737.21	1.30108
1737.47	-2.5361
1737.72	0.339987
1737.98	1.29897
1738.24	0.341404
1738.49	2.25809
1738.75	1.30122
1739.01	-0.611921
1739.26	-0.608759
1739.52	1.30988
1739.78	0.355341
1740.03	-0.59898
1740.29	2.2764
1740.54	4.19486
1740.8	-0.588562
1741.06	2.28281
1741.31	1.32803
1741.57	-3.45288
1741.83	1.3338
1742.08	-1.53111
1742.34	-1.52623
1742.6	0.391199
1742.85	-1.51833
1743.11	-0.55969
1743.36	2.30963
1743.62	-0.558506
1743.88	1.35215
1744.13	-3.42357
1744.39	0.396845
1744.65	-0.556648
1744.9	3.26225
1745.16	-1.50714
1745.42	-2.45735
1745.67	-0.543409
1745.93	0.416515
1746.18	0.422289
1746.44	1.38386
1746.7	5.21143
1746.95	0.444475
1747.21	-0.502539
1747.46	-2.40561
1747.72	1.42498
1747.98	0.474575
1748.23	-1.43096
1748.49	0.485344
1748.74	1.44269
1749	-1.42502
1749.26	1.44084
1749.51	-0.468666
1749.77	-1.4225
1750.02	-0.466835
1750.28	-4.28353
1750.54	-2.3728
1750.79	-0.462513
1751.05	0.493086
1751.31	-0.460009
1751.56	-1.4124
1751.82	1.44996
1752.07	1.45201
1752.33	-1.40508
1752.59	-1.40272
1752.84	-0.4482
1753.1	2.41053
1753.35	-1.39935
1753.61	-2.35131
1753.86	2.40759
1754.12	0.503099
1754.38	0.503416
1754.63	0.505707
1754.89	-0.442235
1755.14	-1.38695
1755.4	-1.37907
1755.66	0.529457
1755.91	0.534132
1756.17	-1.36446
1756.42	2.44668
1756.68	-2.30653
1756.93	0.552094
1757.19	2.45817
1757.44	-0.393495
1757.7	-2.29346
1757.96	-0.388494
1758.21	3.41727
1758.47	0.565094
1758.72	-0.384077
1758.98	-0.381494
1759.23	2.47319
1759.49	1.52755
1759.75	-2.26832
1760	2.49126
1760.26	-2.25873
1760.51	-0.353119
1760.77	-1.29903
1761.02	0.608292
1761.28	0.614496
1761.53	0.623688
1761.79	-1.27037
1762.05	0.639713
1762.3	-1.25783
1762.56	-1.25233
1762.81	0.656868
1763.07	-1.24263
1763.32	-0.286463
1763.58	-0.283001
1763.83	-0.28027
1764.09	0.67523
1764.34	-1.22496
1764.6	-2.174
1764.85	-1.22046
1765.11	1.63644
1765.37	1.63807
1765.62	-1.21226
1765.88	-0.259497
1766.13	2.5888
1766.39	2.58328
1766.64	0.677784
1766.9	1.6284
1767.15	-1.21531
1767.41	-1.2062
1767.66	-0.250136
1767.92	-1.19573
1768.17	-0.24002
1768.43	-0.230255
1768.68	1.68047
1768.94	-0.216413
1769.19	0.740005
1769.45	-1.15498
1769.7	-0.196536
1769.96	-2.09332
1770.21	-2.08766
1770.47	1.72489
1770.72	0.778889
1770.98	-0.167482
1771.23	0.78969
1771.49	0.794596
1771.74	-3.00885
1772	-2.05068
1772.26	-0.140896
1772.51	-2.99083
1772.76	-0.121774
1773.02	-0.114617
1773.27	-2.01571
1773.53	-0.104918
1773.78	1.80443
1774.04	-1.05362
1774.29	-0.0991726
1774.55	-0.0970974
1774.8	2.76194
1775.06	1.80994
1775.31	1.81053
1775.57	-1.99763
1775.82	0.858955
1776.08	1.80996
1776.33	-1.04506
1776.59	0.85968
1776.84	-2.94101
1777.1	-1.98242
1777.35	0.877502
1777.61	-0.0691795
1777.86	-1.01581
1778.12	-1.01081
1778.37	-1.00662
1778.63	0.902145
1778.88	-0.0444841
1779.13	1.86622
1779.39	0.920839
1779.65	-1.92997
1779.9	-0.971397
1780.15	-0.01297
1780.41	1.89878
1780.66	-0.00154018
1780.92	-0.949014
1781.17	0.963994
1781.43	-0.936212
1781.68	0.978714
1781.94	-0.923429
1782.19	1.9435
1782.45	0.992792
1782.7	1.94934
1782.95	1.95102
1783.21	-1.86207
1783.46	-0.904017
1783.72	-1.85275
1783.97	1.01596
1784.23	1.02351
1784.48	1.98687
1784.74	1.04341
1784.99	0.101586
1785.24	0.115604
1785.5	2.04251
1785.75	0.137405
1786.01	-1.77111
1786.26	1.10993
1786.52	-4.62935
1786.77	1.12635
1787.03	-0.784883
1787.28	-3.65497
1787.54	-1.73296
1787.79	-0.771049
1788.04	-1.72671
1788.3	1.1448
1788.55	0.183841
1788.81	1.14331
1789.06	0.188087
1789.31	1.14972
1789.57	0.195911
1789.82	-0.756942
1790.08	-1.7098
1790.33	1.16883
1790.59	1.17185
1790.84	0.218708
1791.09	0.223357
1791.35	1.18594
1791.6	-3.60324
1791.86	1.18903
1792.11	-0.715321
1792.36	-1.66065
1792.62	1.22783
1792.87	2.19461
1793.13	-0.679261
1793.38	-1.63346
1793.64	0.29343
1793.89	2.22128
1794.14	-1.61526
1794.4	2.2347
1794.65	-3.52645
1794.9	0.323577
1795.16	1.28999
1795.41	1.29466
1795.67	-2.54757
1795.92	-0.621404
1796.17	-0.619333
1796.43	-0.617996
1796.68	-1.57864
1796.94	0.343662
1797.19	-1.57757
1797.44	-4.4586
1797.7	2.26774
1797.95	-1.57284
1798.21	0.350574
1798.46	-1.56771
1798.71	-0.603964
1798.97	3.24204
1799.22	2.28594
1799.47	-0.591316
1799.73	0.374789
1799.98	-0.580379
1800.24	-1.53549
1800.49	2.31657
1800.74	1.36071
1801	2.32653
1801.25	0.406957
1801.5	1.37454
1801.76	2.34296
1802.01	0.424579
1802.27	-3.41875
1802.52	2.36404
1802.77	0.445264
1803.03	2.37795
1803.28	-1.46975
1803.53	-0.501092
1803.79	-2.42367
1804.04	-0.492345
1804.29	-0.489207
1804.55	-1.45006
1804.8	0.480433
1805.05	0.483526
1805.31	-0.477187
1805.56	2.41768
1805.81	-2.3985
1806.07	3.38854
1806.32	-0.463922
1806.58	-0.460635
1806.83	0.506904
1807.08	1.47444
1807.34	1.47769
1807.59	0.516221
1807.84	-2.37437
1808.1	0.519991
1808.35	-1.40561
1808.6	0.524847
1808.86	0.527423
1809.11	2.45856
1809.36	-2.35826
1809.62	-3.31834
1809.87	0.543848
1810.12	1.51395
1810.38	-2.34048
1810.63	-0.407202
1810.88	-0.402084
1811.14	0.569415
1811.39	3.4725
1811.64	-0.381823
1811.9	-3.27328
1812.15	1.56273
1812.4	-0.365281
1812.65	0.604789
1812.91	-0.358443
1813.16	0.61143
1813.41	1.58117
1813.67	-0.347929
1813.92	-0.345516
1814.17	-0.343489
1814.43	1.58745
1814.68	0.615589
1814.93	-0.350634
1815.19	2.55074
1815.44	0.624821
1815.69	-0.334365
1815.95	0.634717
1816.2	2.56988
1816.45	-0.325591
1816.7	1.61194
1816.96	0.649261
1817.21	-1.28046
1817.46	0.657548
1817.72	0.66202
1817.97	-2.23573
1818.22	0.669762
1818.47	-0.292991
1818.73	0.679255
1818.98	-0.28402
1819.23	3.59119
1819.49	0.691293
1819.74	2.63043
1819.99	-0.270479
1820.24	0.700447
1820.5	-2.20243
1820.75	0.702447
1821	-0.265019
1821.26	0.705414
1821.51	1.67698
1821.76	0.712499
1822.01	-1.22029
1822.27	0.719825
1822.52	0.723644
1822.77	-0.241883
1823.03	3.63405
1823.28	-2.17468
1823.53	0.733245
1823.78	1.70408
1824.04	0.738049
1824.29	2.67859
1824.54	1.71366
1824.79	-1.18886
1825.05	-0.216722
1825.3	-0.215332
1825.55	-1.1828
1825.8	-0.214005
1826.06	-3.12007
1826.31	1.72366
1826.56	-1.18044
1826.81	3.66314
1827.07	0.758584
1827.32	-3.11503
1827.57	1.72659
1827.82	-1.17775
1828.08	-1.17508
1828.33	-0.203094
1828.58	-1.1677
1828.83	-0.19538
1829.09	0.776897
1829.34	-0.188008
1829.59	-0.184084
1829.84	-3.08645
1830.1	-0.175611
1830.35	0.79515
1830.6	3.70545
1830.85	-1.13785
1831.11	1.77252
1831.36	0.805806
1831.61	0.801077
1831.86	-0.175087
1832.12	0.7876
1832.37	-0.185623
1832.62	-3.09013
1832.87	0.77719
1833.13	0.779417
1833.38	0.783381
1833.63	0.86095
1833.88	1.80603
1834.13	-2.08906
1834.39	2.75299
1834.64	0.803693
1834.89	-0.172686
1835.14	0.779689
1835.39	-1.15816
1835.65	0.779624
1835.9	-0.157861
1836.15	1.78737
1836.4	-1.11252
1836.65	0.828436
1836.91	1.80167
1837.16	0.834324
1837.41	0.819122
1837.66	-1.12478
1837.92	-1.13148
1838.17	-2.1036
1838.42	-2.1084
1838.67	0.784321
1838.92	2.71004
1839.18	3.66988
1839.43	-0.193828
1839.68	1.73333
1839.93	2.70158
1840.18	-1.15651
1840.43	0.775317
1840.69	-0.188406
1840.94	0.77698
1841.19	0.776846
1841.44	1.74316
1841.7	-0.183294
1841.95	-1.14733
1842.2	-0.183205
1842.45	3.67666
1842.7	0.786227
1842.95	0.794212
1843.2	-1.12893
1843.46	3.70918
1843.71	-0.149252
1843.96	0.804673
1844.21	-1.14681
1844.46	-1.16327
1844.72	-0.202756
1844.97	2.68931
1845.22	-0.190379
1845.47	0.77599
1845.72	1.73298
1845.97	-0.194439
1846.23	2.69419
1846.48	-0.196609
1846.73	-2.12471
1846.98	-0.203778
1847.23	1.71536
1847.48	0.749193
1847.74	0.745477
1847.99	-1.17917
1848.24	-0.220641
1848.49	-3.10381
1848.74	-2.14428
1848.99	0.736223
1849.25	1.69676
1849.5	-1.18318
1849.75	-0.222127
1850	-0.221464
1850.25	0.738845
1850.5	-3.10204
1850.75	2.65705
1851.01	-0.225641
1851.26	-1.18886
1851.51	0.725449
1851.76	0.722336
1852.01	-0.237732
1852.26	1.67734
1852.51	-3.11939
1852.76	-0.248157
1853.02	1.66634
1853.27	1.6655
1853.52	2.6234
1853.77	1.6664
1854.02	0.708785
1854.27	2.62404
1854.52	-2.16561
1854.78	0.706055
1855.03	-1.21028
1855.28	1.65958
1855.53	-3.12877
1855.78	-0.260605
1856.03	-2.17678
1856.28	0.689519
1856.53	1.64202
1856.79	0.684378
1857.04	-3.13895
1857.29	-1.2267
1857.54	-0.268552
1857.79	1.64783
1858.04	-1.21884
1858.29	2.6103
1858.54	-1.21303
1858.79	-2.16782
1859.04	0.703681
1859.3	-2.16803
1859.55	0.700109
1859.8	0.696819
1860.05	-0.263008
1860.3	5.47016
1860.55	-1.22521
1860.8	-2.18351
1861.05	1.63619
1861.3	-0.277236
1861.56	-0.279563
1861.81	1.62783
1862.06	1.62436
1862.31	-1.24353
1862.56	0.660712
1862.81	0.655402
1863.06	-1.25779
1863.31	0.642629
1863.56	-0.316733
1863.81	1.58183
1864.06	0.622965
1864.32	-0.334774
1864.57	-0.340143
1864.82	-2.24571
1865.07	0.604965
1865.32	-1.29796
1865.57	-0.348001
1865.82	-1.29794
1866.07	-0.346457
1866.32	0.603685
1866.57	-0.347896
1866.82	-1.29944
1867.07	-1.30023
1867.32	-1.30097
1867.57	0.599174
1867.83	-0.351862
1868.08	1.54856
1868.33	-0.3526
1868.58	1.54646
1868.83	0.5941
1869.08	1.5411
1869.33	0.589434
1869.58	2.48717
1869.83	-0.365523
1870.08	1.53031
1870.33	1.52833
1870.58	-2.26957
1870.83	-1.32189
1871.08	-0.375275
1871.33	-1.32734
1871.58	-0.382134
1871.84	3.40741
1872.08	-1.33843
1872.33	0.553246
1872.59	2.4435
1872.84	1.4888
1873.09	1.47933
1873.34	-0.419087
1873.59	0.522453
1873.84	-1.37309
1874.09	-0.430516
1874.34	1.45098
1874.59	-0.450521
1874.84	1.42512
1875.09	-0.437687
1875.34	0.551021
1875.59	0.522151
1875.84	2.41144
1876.09	-3.26423
1876.34	-1.35915
1876.59	0.538068
1876.84	2.4258
1877.09	1.47444
1877.34	0.526611
1877.59	0.5262
1877.84	0.527698
1878.09	-0.422889
1878.34	0.521205
1878.59	1.45952
1878.84	-0.440725
1879.09	0.49638
1879.34	3.32119
1879.59	1.42101
1879.84	-0.476329
1880.1	1.40347
1880.34	-2.35108
1880.59	1.48514
1880.84	0.471501
1881.1	-1.44065
1881.34	0.448147
1881.59	1.39419
1881.84	0.446502
1882.1	-0.490402
1882.34	0.458134
1882.59	-2.37113
1882.85	-0.481067
1883.1	-0.475845
1883.34	1.41525
1883.59	-1.41767
1883.85	-1.42138
1884.09	-0.483076
1884.34	-1.43092
1884.59	-0.491508
1884.84	1.39048
1885.09	1.38528
1885.34	-4.2771
1885.59	-0.512733
1885.84	-0.518512
1886.09	-3.34932
1886.34	1.35395
1886.59	0.409996
1886.84	0.408207
1887.09	2.28993
1887.34	-0.532799
1887.59	3.23675
1887.84	-2.41222
1888.09	-1.47082
1888.34	0.410809
1888.59	-1.47451
1888.84	-0.534272
1889.09	1.34709
1889.34	2.28729
1889.59	0.401671
1889.84	1.33959
1890.09	-0.547815
1890.34	1.32604
1890.59	1.31579
1890.84	3.18746
1891.09	-1.51099
1891.34	1.30582
1891.59	0.360386
1891.84	-0.582545
1892.09	-1.52358
1892.34	-1.52407
1892.59	0.355145
1892.83	-3.40303
1893.08	2.23605
1893.33	1.2974
1893.58	0.359127
1893.83	0.360936
1894.08	-0.578259
1894.33	1.30344
1894.58	2.24417
1894.83	-2.45986
1895.08	0.360554
1895.33	0.358085
1895.58	2.23559
1895.83	0.350445
1896.08	-1.53478
1896.33	1.28
1896.58	-1.54273
1896.83	-3.42462
1897.08	-1.54885
1897.32	-0.611999
1897.57	2.20449
1897.82	0.325423
1898.07	0.325913
1898.32	0.327704
1898.57	1.26927
1898.82	-3.42919
1899.07	1.27317
1899.32	-1.54527
1899.57	-0.604089
1899.82	2.21578
1900.07	2.21292
1900.31	2.20938
1900.57	2.20604
1900.81	3.14353
1901.06	-0.619961
1901.31	-0.621992
1901.56	-0.623876
1901.81	0.314168
1902.06	-0.628344
1902.31	-1.57023
1902.56	0.308123
1902.81	0.305287
1903.06	-0.642354
1903.31	0.292179
1903.55	2.16719
1903.8	0.285285
1904.05	-0.656748
1904.3	-0.659239
1904.55	1.21824
1904.8	0.278152
1905.05	-0.659487
1905.3	0.28046
1905.55	-2.5388
1905.79	0.279169
1906.04	-0.660167
1906.29	0.280595
1906.54	0.282361
1906.79	2.16562
1907.04	-1.5931
1907.29	-0.649168
1907.54	0.295656
1907.79	-0.643241
1908.04	-0.641986
1908.28	-0.641713
1908.53	1.24172
1908.78	-0.643689
1909.03	2.18024
1909.28	-2.53267
1909.53	-0.651251
1909.78	-1.59507
1910.03	0.28692
1910.27	-0.65669
1910.52	1.22622
1910.77	-0.656338
1911.02	-0.653323
1911.27	1.23474
1911.52	-0.649679
1911.77	2.18114
1912.02	0.296395
1912.26	0.297521
1912.51	0.297503
1912.76	0.296105
1913.01	-1.59377
1913.26	3.12059
1913.51	-1.59922
1913.76	2.1691
1914	0.277456
1914.25	0.273029
1914.5	-2.55952
1914.75	-1.61979
1915	2.14845
1915.25	-1.62336
1915.49	0.263042
1915.74	-0.678268
1915.99	0.26737
1916.24	0.27027
1916.49	0.273434
1916.74	-0.665762
1916.99	-0.66348
1917.23	-1.60836
1917.48	0.279434
1917.73	-1.61485
1917.98	1.2208
1918.23	-0.666991
1918.48	-0.665277
1918.72	0.279737
1918.97	-1.61125
1919.22	0.278953
1919.47	2.16803
1919.72	-1.6186
1919.97	-1.62307
1920.21	-0.681512
1920.46	-2.57543
1920.71	4.0381
1920.96	-0.691693
1921.21	1.1938
1921.46	-1.64587
1921.7	-2.59395
1921.95	1.1827
1922.2	-1.65269
1922.45	0.237343
1922.7	-2.59666
1922.94	0.241874
1923.19	0.243818
1923.44	4.02981
1923.69	-1.6445
1923.94	-0.695963
1924.19	3.0914
1924.43	-2.58943
1924.68	0.251178
1924.93	0.250883
1925.18	0.250439
1925.43	-1.64491
1925.67	1.1962
1925.92	0.248779
1926.17	2.14404
1926.42	1.19708
1926.66	-0.697254
1926.91	-0.694876
1927.16	0.255257
1927.41	2.15564
1927.66	0.259159
1927.91	-1.6383
1928.15	0.258757
1928.4	4.05434
1928.65	4.99934
1928.9	0.248109
1929.15	0.243658
1929.39	1.18809
1929.64	-1.66314
1929.89	1.17886
1930.14	1.17571
1930.38	0.223057
1930.63	-1.67445
1930.88	0.226357
1931.13	1.18229
1931.37	-0.708593
1931.62	0.253577
1931.87	1.21604
1932.12	0.272703
1932.37	-1.62702
1932.61	-0.669784
1932.86	3.14346
1933.11	2.17616
1933.36	-0.685585
1933.61	-1.64231
1933.85	-0.694016
1934.1	-0.699781
1934.35	-0.705757
1934.6	-0.711242
1934.84	-0.716714
1935.09	-0.721891
1935.34	2.12844
1935.59	-0.727524
1935.83	0.226816
1936.08	-0.726273
1936.33	0.226048
1936.58	2.1311
1936.82	-0.726956
1937.07	-1.68027
1937.32	-0.728692
1937.57	3.08522
1937.81	-0.724441
1938.06	-1.67194
1938.31	2.14622
1938.56	0.234035
1938.8	2.13642
1939.05	1.17246
1939.3	1.16432
1939.55	-2.64345
1939.79	0.228935
1940.04	1.18311
1940.29	1.17886
1940.54	1.16878
1940.78	2.11315
1941.03	-2.6597
1941.28	0.208469
1941.52	-0.745887
1941.77	1.16446
1942.02	1.16584
1942.27	1.16741
1942.51	-2.6533
1942.76	1.17032
1943.01	0.21525
1943.26	0.215395
1943.5	-0.741349
1943.75	4.03942
1944	-1.70117
1944.24	0.208336
1944.49	-1.7084
1944.74	0.200336
1944.99	-2.67123
1945.23	3.06334
1945.48	-2.67707
1945.73	-1.72411
1945.97	0.187083
1946.22	0.187464
1946.47	-0.768579
1946.71	-0.767889
1946.96	0.190381
1947.21	3.06502
1947.46	0.196996
1947.7	1.15931
1947.95	1.16276
1948.2	0.207764
1948.44	-0.747946
1948.69	-0.745357
1948.94	0.215918
1949.19	-1.70429
1949.43	3.09682
1949.68	-1.70628
1949.93	-1.70851
1950.17	1.17373
1950.42	2.1329
1950.67	3.08488
1950.91	2.11332
1951.16	-2.69739
1951.41	-0.789557
1951.65	-0.799728
1951.9	2.06656
1952.15	1.10403
1952.39	-3.68831
1952.64	1.10186
1952.89	1.10464
1953.14	-2.72515
1953.38	1.11744
1953.63	0.159832
1953.88	1.12145
1954.12	-0.798587
1954.37	0.162531
1954.62	-0.797713
1954.86	-0.797909
1955.11	-0.798766
1955.36	1.12202
1955.6	2.08151
1955.85	-1.76593
1956.1	-0.80938
1956.34	2.06816
1956.59	0.142355
1956.84	1.09902
1957.08	-1.78825
1957.33	2.04865
1957.58	0.122368
1957.82	-1.80355
1958.07	-0.848974
1958.31	1.06536
1958.56	-0.859152
1958.81	-0.862717
1959.05	2.01419
1959.3	0.0927649
1959.55	2.01019
1959.79	-2.79106
1960.04	2.00608
1960.29	-1.83577
1960.53	2.00176
1960.78	1.03964
1961.03	2.95831
1961.27	-4.72391
1961.52	-0.884999
1961.77	0.0717373
1962.01	0.0682926
1962.26	-0.894816
1962.5	-0.897893
1962.75	1.02048
1963	1.01994
1963.24	-0.900599
1963.49	1.02153
1963.74	1.022
1963.98	1.02168
1964.23	2.94232
1964.48	-1.86684
1964.72	-0.907834
1964.97	2.93573
1965.21	-2.83472
1965.46	1.96993
1965.71	1.96613
1965.95	0.03866
1966.2	0.993565
1966.44	-0.935429
1966.69	-1.90375
1966.94	0.969643
1967.18	-0.95707
1967.43	-0.00300121
1967.68	1.91139
1967.92	2.86465
1968.17	1.89993
1968.41	-0.0233078
1968.66	2.84985
1968.91	0.927791
1969.15	-0.991527
1969.4	-0.0338755
1969.64	-2.91432
1969.89	1.87895
1970.14	-0.0444288
1970.38	-0.0504055
1970.63	-1.01568
1970.87	1.85502
1971.12	1.85012
1971.37	-0.0709972
1971.61	1.84276
1971.86	-0.0768061
1972.1	0.879669
1972.35	2.79583
1972.6	-0.0807762
1972.84	1.83669
1973.09	-1.04124
1973.33	1.83475
1973.58	-1.04489
1973.82	-1.04737
1974.07	-1.05037
1974.32	1.8237
1974.56	1.81937
1974.81	2.77317
1975.05	-2.98594
1975.3	4.6788
1975.55	-0.119626
1975.79	-0.124024
1976.04	0.830885
1976.28	-2.04715
1976.53	0.825982
1976.77	1.78165
1977.02	1.77968
1977.26	-1.09912
1977.51	-0.145655
1977.76	-0.151562
1978	-1.1149
1978.25	-1.11888
1978.49	-1.12417
1978.74	-1.12831
1978.98	0.783491
1979.23	-0.177602
1979.48	-1.13916
1979.72	-0.187403
1979.97	-0.192943
1980.21	1.71413
1980.46	0.74926
1980.7	-0.21319
1980.95	-0.217099
1981.19	-1.17774
1981.44	1.68709
1981.69	0.726133
1981.93	0.721708
1982.18	0.715295
1982.42	1.66398
1982.67	1.66009
1982.91	0.702065
1983.16	0.70061
1983.4	-0.255563
1983.65	0.700242
1983.89	1.65426
1984.14	0.694408
1984.38	0.692849
1984.63	-1.2267
1984.88	-0.278317
1985.12	-2.19747
1985.37	-1.25086
1985.61	1.60252
1985.86	-2.2293
1986.1	1.57174
1986.35	0.606188
1986.59	-0.35746
1986.84	0.58734
1987.08	-0.370017
1987.33	-0.372707
1987.57	2.48268
1987.82	0.583958
1988.06	1.53754
1988.31	0.586724
1988.55	1.54289
1988.8	1.53657
1989.04	0.582577
1989.29	0.562383
1989.53	2.40985
1989.78	1.53652
1990.02	-0.242781
1990.27	-0.290656
1990.52	0.522327
1990.76	-1.14367
1991.01	0.635895
1991.25	2.18044
1991.49	1.29289
1991.74	2.9421
1991.99	-1.91784
1992.23	-1.87479
1992.47	-0.636241
1992.72	1.21193
1992.97	-0.961677
1993.21	0.301991
1993.45	-1.95993
1993.7	1.23398
1993.95	-0.169336
1994.19	2.97575
1994.43	1.99172
1994.68	-0.500687
1994.93	-0.195245
1995.17	0.93012
1995.41	-0.0373192
1995.66	-0.653166
1995.9	-0.0625496
1996.15	-2.06441
1996.39	0.940525
1996.64	-1.22337
1996.88	-0.612099
1997.13	-0.735422
1997.37	-0.289881
1997.62	0.85202
1997.86	0.458134
1998.11	-1.83888
1998.35	1.90804
1998.6	1.59518
1998.84	-0.188541
1999.09	0.246897
1999.33	2.78585
1999.57	-1.51689
1999.82	0.99584
2000.06	-0.262987
2000.31	-0.403343
2000.55	-0.878286
2000.8	0.0764656
2001.04	-2.2416
2001.29	0.00360298
2001.53	1.9294
2001.78	0.201818
2002.02	-0.75647
2002.27	0.508478
2002.51	-0.826518
2002.75	-0.451677
2003	0.485672
2003.24	-1.2969
2003.49	-0.745108
2003.73	-0.788134
2003.98	-1.1386
2004.22	-1.70622
2004.47	-0.315332
2004.71	-0.464018
2004.95	-0.800509
2005.2	-0.594513
2005.44	0.261871
2005.69	0.384665
2005.93	0.814205
2006.18	-0.43369
2006.42	-2.81135
2006.66	-0.326635
2006.91	-0.889426
2007.15	0.285511
2007.4	0.0384064
2007.64	-0.30847
2007.89	0.0861835
2008.13	0.239285
2008.38	0.405439
2008.62	1.82419
2008.86	1.25686
2009.11	2.38192
2009.35	0.714096
2009.6	-1.05436
2009.84	-0.631907
2010.08	-0.717502
2010.33	0.119171
2010.57	-0.349045
2010.82	0.590334
2011.06	1.21521
2011.3	0.105263
2011.55	0.95537
2011.79	1.11679
2012.04	1.28059
2012.18	2.41341
2012.43	-0.402346
2012.68	0.537022
2012.93	-0.401995
2013.17	0.533991
2013.42	1.47146
2013.67	-0.395173
2013.91	-1.33435
2014.16	0.54245
2014.41	-1.34153
2014.66	-0.407546
2014.9	0.524851
2015.15	0.516449
2015.4	1.44578
2015.64	-0.439247
2015.89	-3.2604
2016.14	-0.455464
2016.38	0.473602
2016.63	1.40454
2016.88	-0.47333
2017.13	0.459595
2017.37	-0.479473
2017.62	0.454287
2017.87	1.38799
2018.11	0.449982
2018.36	-1.42422
2018.61	2.32049
2018.86	0.444407
2019.1	2.31398
2019.35	-1.43625
2019.6	-1.44103
2019.84	-1.4466
2020.09	-1.45277
2020.34	-0.522597
2020.58	0.407326
2020.83	0.401608
2021.08	-0.538987
2021.32	-0.544127
2021.57	-1.48533
2021.82	-1.49247
2022.06	0.368193
2022.31	0.360903
2022.56	1.28723
2022.8	0.347439
2023.05	0.339821
2023.3	-2.45973
2023.54	-1.52401
2023.79	-2.4508
2024.04	-0.573855
2024.28	-0.562543
2024.53	1.31588
2024.78	0.377592
2025.02	-0.568877
2025.27	0.349558
2025.52	0.306414
2025.76	0.336203
2026.01	-0.542017
2026.26	3.17643
2026.5	-0.556671
2026.75	-0.582777
2027	-0.602423
2027.24	0.309202
2027.49	1.2399
2027.74	2.1531
2027.98	0.298782
2028.23	0.308611
2028.48	-0.62907
2028.72	-1.56378
2028.97	-1.56575
2029.22	-2.49668
2029.46	1.24048
2029.71	5.91511
2029.96	2.18368
2030.2	1.25235
2030.45	-2.48499
2030.69	0.322193
2030.94	2.1954
2031.19	0.314297
2031.43	-0.631267
2031.68	0.282864
2031.93	0.274578
2032.17	3.08008
2032.42	-0.649591
2032.66	1.22501
2032.91	-2.50253
2033.16	0.309147
2033.4	-0.62629
2033.65	-1.57195
2033.9	2.16472
2034.14	1.23348
2034.39	0.296677
2034.63	0.294342
2034.88	-2.51361
2035.13	0.287539
2035.37	-1.58579
2035.62	0.279421
2035.87	1.20954
2036.11	-1.59759
2036.36	3.06876
2036.6	0.262053
2036.85	-0.676698
2037.1	1.18428
2037.34	0.244654
2037.59	-0.69419
2037.83	2.09866
2038.08	-0.704385
2038.33	-0.7087
2038.57	-1.64399
2038.82	0.218119
2039.06	1.14668
2039.31	1.14291
2039.56	1.13815
2039.8	0.202969
2040.05	0.201504
2040.3	2.06474
2040.54	1.13582
2040.79	3.00596
2041.03	1.14709
2041.28	0.216221
2041.52	-1.65155
2041.77	-4.45429
2042.02	1.13327
2042.26	-2.60872
2042.51	0.198895
2042.75	1.13946
2043	0.225044
2043.25	0.251112
2043.49	1.17697
2043.74	0.223457
2043.98	1.14294
2044.23	0.207094
2044.47	1.1351
2044.72	0.188423
2044.97	0.182133
2045.21	-0.751075
2045.46	-1.68382
2045.7	-1.68414
2045.95	0.180925
2046.19	-1.68148
2046.44	-0.746801
2046.69	2.98886
2046.93	0.194157
2047.18	1.13147
2047.42	0.201191
2047.67	-0.731242
2047.91	-0.731417
2048.16	-2.60175
2048.41	1.13067
2048.65	-1.67673
2048.9	0.188875
2049.14	0.18807
2049.39	-0.744656
2049.63	-0.744846
2049.88	-0.744229
2050.12	-1.67706
2050.37	-1.67529
2050.62	-1.67274
2050.86	0.203188
2051.11	1.141
2051.35	1.14248
2051.6	0.206776
2051.84	2.07636
2052.09	-2.60259
2052.33	0.20179
2052.58	1.13175
2052.82	1.12859
2053.07	-1.67803
2053.31	-1.68035
2053.56	-1.68299
2053.8	2.98858
2054.05	-0.751432
2054.3	1.11783
2054.54	-2.62107
2054.79	2.05433
2055.03	0.186193
2055.28	1.12278
2055.52	1.12634
2055.77	2.06516
2056.01	2.06829
2056.26	-0.73757
2056.5	0.198736
2056.75	-0.737412
2056.99	-0.737485
2057.24	-0.740296
2057.48	3.00062
2057.73	-2.61805
2057.97	2.06246
2058.22	0.192286
2058.46	-4.48766
2058.71	1.12968
2058.95	-2.61579
2059.2	2.06547
2059.45	-0.743127
2059.69	1.13073
2059.94	2.06907
2060.18	-1.67547
2060.43	-1.67358
2060.67	1.13904
2060.92	0.203205
2061.16	-0.73329
2061.4	0.204704
2061.65	-0.731585
2061.9	0.20776
2062.14	3.02418
2062.39	-1.66103
2062.63	-0.719073
2062.88	0.222887
2063.12	1.16457
2063.37	0.227615
2063.61	2.1061
2063.86	-1.64936
2064.1	-0.708742
2064.34	-1.64729
2064.59	-0.70647
2064.83	-0.704411
2065.08	-0.702607
2065.32	-0.701376
2065.57	2.11903
2065.81	1.18094
2066.06	3.06155
2066.3	2.1185
2066.55	1.17337
2066.79	1.16557
2067.04	1.16125
2067.28	1.16211
2067.53	0.228827
2067.77	2.11699
2068.02	-0.695441
2068.26	-0.695512
2068.51	2.12045
2068.75	1.19621
2069	1.20608
2069.24	-0.678435
2069.48	1.20325
2069.73	-2.5641
2069.97	-0.682419
2070.22	0.258568
2070.46	-0.683942
2070.71	0.257771
2070.95	3.0828
2071.2	2.14204
2071.44	4.96891
2071.69	-2.56251
2071.93	-0.674889
2072.18	-1.61226
2072.42	0.279785
2072.66	-0.655058
2072.91	-0.649243
2073.15	1.24178
2073.4	2.18639
2073.64	1.243
2073.89	0.297297
2074.13	-2.53745
2074.38	1.23366
2074.62	1.22554
2074.87	1.22273
2075.11	1.2244
2075.35	-0.6584
2075.6	0.286459
2075.84	-1.59915
2076.09	0.290085
2076.33	-1.5942
2076.58	2.19051
2076.82	0.305321
2077.06	1.25292
2077.31	0.310997
2077.55	3.14837
2077.8	-0.631051
2078.04	2.20206
2078.29	0.311007
2078.53	3.14495
2078.77	0.310513
2079.02	1.25444
2079.26	1.25592
2079.51	1.2574
2079.75	1.2586
2080	1.25916
2080.24	1.25905
2080.48	-0.631469
2080.73	-1.57697
2080.97	1.25795
2081.22	1.25846
2081.46	0.313433
2081.7	0.313841
2081.95	-3.46541
2082.19	0.315016
2082.44	2.20512
2082.68	-0.629526
2082.93	0.31646
2083.17	-0.624467
2083.41	0.326469
2083.66	1.27692
2083.9	1.27901
2084.14	-0.610819
2084.39	0.33831
2084.63	-0.605761
2084.88	0.341024
2085.12	-4.39032
2085.36	1.28879
2085.61	1.28993
2085.85	-2.49484
2086.1	-0.60065
2086.34	2.2421
2086.58	3.19258
2086.83	-1.53766
2087.07	0.359056
2087.32	-0.586964
2087.56	1.30931
2087.8	1.31137
2088.05	-0.581386
2088.29	1.3162
2088.54	0.370811
2088.78	1.32334
2089.02	-0.567577
2089.27	0.386581
2089.51	1.34143
2089.75	-0.550427
2090	-2.44449
2090.24	2.30848
2090.48	-0.536258
2090.73	-0.53178
2090.97	-1.47835
2091.22	-0.524271
2091.46	1.379
2091.7	0.428923
2091.95	0.428802
2092.19	0.428238
2092.43	0.426199
2092.68	1.37409
2092.92	-1.47846
2093.17	1.37065
2093.41	-0.530107
2093.65	-0.530074
2093.9	1.3699
2094.14	-1.48112
2094.38	1.36558
2094.63	-1.48572
2094.87	3.26041
2095.11	1.36143
2095.36	-0.537038
2095.6	0.410275
2095.84	0.4111
2096.09	2.30974
2096.33	-2.4359
2096.57	0.411257
2096.82	1.3607
2097.06	2.31064
2097.3	-1.48415
2097.55	1.36475
2097.79	2.31619
2098.03	3.27117
2098.28	0.427197
2098.52	-1.46921
2098.76	-1.4673
2099.01	-0.516506
2099.25	-0.516101
2099.5	1.38462
2099.74	0.434891
2099.98	3.28211
2100.22	-1.46826
2100.47	3.2773
2100.71	-1.46858
2100.95	0.429844
2101.2	-0.518205
2101.44	3.28124
2101.68	-2.41155
2101.93	2.33968
2102.17	0.443775
2102.41	0.447645
2102.66	1.40257
2102.9	0.456966
2103.14	1.41032
2103.39	2.36382
2103.63	0.464746
2103.87	-2.38553
2104.12	-1.43245
2104.36	0.47101
2104.6	0.470394
2104.85	-1.43268
2105.09	2.36583
2105.33	-0.488356
2105.57	0.458279
2105.82	3.30428
2106.06	1.40467
2106.3	4.25485
2106.55	-0.487844
2106.79	0.467121
2107.03	-2.3814
2107.27	2.36974
2107.52	3.32092
2107.76	-1.42783
2108	-1.42658
2108.25	0.474501
2108.49	0.474735
2108.73	-0.476045
2108.98	-0.476568
2109.22	-1.4259
2109.46	-1.42483
2109.7	-1.42224
2109.95	1.43017
2110.19	0.483559
2110.43	-1.41157
2110.68	-0.456589
2110.92	0.496906
2111.16	3.34892
2111.4	0.497341
2111.65	0.498224
2111.89	3.35141
2112.13	-1.39868
2112.38	2.4035
2112.62	4.30387
2112.86	-3.2981
2113.1	0.502781
2113.35	1.45101
2113.59	0.49914
2113.83	4.29754
2114.07	1.449
2114.32	2.39929
2114.56	0.502106
2114.8	1.45172
2115.04	2.39984
2115.29	2.39822
2115.53	0.496967
2115.77	2.39098
2116.01	2.38807
2116.26	-3.30419
2116.5	3.3313
2116.74	-2.35865
2116.99	1.4312
2117.23	1.4301
2117.47	0.483028
2117.71	0.484968
2117.96	3.33223
2118.2	-2.35102
2118.44	-1.39851
2118.68	1.45147
2118.92	2.40554
2119.17	-0.434917
2119.41	0.518574
2119.65	2.42086
2119.9	-1.3715
2120.14	0.530428
2120.38	-1.36514
2120.62	-1.36281
2120.86	1.4858
2121.11	-1.36211
2121.35	1.48438
2121.59	2.4305
2121.83	-1.3689
2122.08	0.521677
2122.32	5.25369
2122.56	2.40619
2122.8	0.50828
2123.04	-1.38828
2123.29	-0.444094
2123.53	-0.445696
2123.77	-1.39329
2124.01	-0.448889
2124.26	-0.450603
2124.5	0.495234
2124.74	-1.39482
2124.98	1.44246
2125.22	-0.448308
2125.47	-0.447633
2125.71	0.499479
2125.95	1.44672
2126.19	0.502699
2126.44	2.39353
2126.68	-0.441255
2126.92	3.34014
2127.16	3.34107
2127.4	0.506893
2127.65	-0.437375
2127.89	0.507795
2128.13	-1.3817
2128.37	2.39625
2128.61	-1.38239
2128.86	0.505905
2129.1	-0.438065
2129.34	0.506269
2129.58	-0.438872
2129.82	2.39115
2130.06	2.39117
2130.31	1.44912
2130.55	2.39542
2130.79	-0.432877
2131.03	-0.430689
2131.27	0.515579
2131.52	1.46204
2131.76	2.40734
2132	2.4088
2132.24	1.46658
2132.48	0.524094
2132.73	-2.30618
2132.97	0.523794
2133.21	1.46409
2133.45	1.46065
2133.69	1.45983
2133.94	-2.30855
2134.18	-0.420198
2134.42	-0.417881
2134.66	-0.414277
2134.9	0.534149
2135.14	0.535707
2135.39	2.41867
2135.63	-0.411121
2135.87	-0.406875
2136.11	-3.22866
2136.35	0.549635
2136.59	0.544912
2136.84	0.539757
2137.08	0.538939
2137.32	0.538509
2137.56	3.36457
2137.8	1.48073
2138.04	1.48144
2138.28	1.48221
2138.53	0.54266
2138.77	1.48353
2139.01	2.42304
2139.25	1.48205
2139.49	-0.398454
2139.74	3.37241
2139.98	1.49458
2140.22	-2.25944
2140.46	0.565586
2140.7	1.46896
2140.94	2.40555
2141.18	-0.407499
2141.43	-0.40013
2141.67	3.36944
2141.91	-0.386831
2142.15	0.547733
2142.39	3.37076
2142.63	-1.32716
2142.87	-0.385378
2143.12	0.555765
2143.36	-2.26364
2143.6	1.49752
2143.84	1.49839
2144.08	0.559109
2144.32	0.559114
2144.56	0.559155
2144.8	0.55937
2145.05	-2.25818
2145.29	0.560301
2145.53	2.43896
2145.77	-2.25625
2146.01	1.4995
2146.25	1.49831
2146.49	1.49655
2146.73	0.553577
2146.98	0.551945
2147.22	-1.32546
2147.46	-1.32621
2147.7	1.48643
2147.94	1.48831
2148.18	-0.382712
2148.42	-1.31516
2148.66	0.563885
2148.9	0.568985
2149.15	1.51021
2149.39	2.45354
2149.63	-1.29826
2149.87	1.51528
2150.11	3.38954
2150.35	-1.29838
2150.59	1.51469
2150.83	-0.358856
2151.07	0.57807
2151.31	1.51341
2151.56	-1.29965
2151.8	-0.367413
2152.04	-0.371053
2152.28	-1.31123
2152.52	-1.31348
2152.76	2.42345
2153	-1.31687
2153.24	1.48559
2153.48	0.551901
2153.72	-0.380582
2153.97	0.555607
2154.21	0.558059
2154.45	-0.372564
2154.69	0.566351
2154.93	0.571842
2155.17	0.577175
2155.41	1.51514
2155.65	-0.351875
2155.89	0.584634
2156.13	1.52033
2156.37	-1.2828
2156.61	-0.348338
2156.86	2.45354
2157.1	0.583676
2157.34	3.38303
2157.58	-5.02008
2157.82	-0.353309
2158.06	-0.352668
2158.3	-0.350957
2158.54	0.583208
2158.78	0.584045
2159.02	0.585907
2159.26	-0.344575
2159.5	2.45679
2159.74	1.52614
2159.98	0.594445
2160.22	-1.27069
2160.47	0.595436
2160.71	-3.13379
2160.95	-0.335391
2161.19	-1.26702
2161.43	3.39317
2161.67	0.594891
2161.91	2.45804
2162.15	5.25605
2162.39	1.53369
2162.63	-0.327208
2162.87	-0.324423
2163.11	0.610167
2163.35	-0.320785
2163.59	2.47504
2163.83	-2.18274
2164.07	-0.320171
2164.31	0.611206
2164.55	-1.25192
2164.79	-2.18439
2165.03	0.602593
2165.27	2.45741
2165.51	0.597308
2165.76	-0.330283
2166	1.5325
2166.24	0.607499
2166.48	-1.24669
2166.72	1.55072
2166.96	-1.23253
2167.2	-0.293404
2167.44	-2.14947
2167.68	-1.21428
2167.92	-1.21253
2168.16	1.58052
2168.4	0.650397
2168.64	-0.283892
2168.88	0.638089
2169.12	-1.22505
2169.36	-0.295993
2169.6	2.49166
2169.84	0.633451
2170.08	-0.293648
2170.32	1.56684
2170.56	1.56918
2170.8	-0.285348
2171.04	-0.280817
2171.28	-2.1354
2171.52	0.656042
2171.76	-1.19993
2172	-1.19744
2172.24	-2.12448
2172.48	1.59459
2172.72	-1.1918
2172.96	0.668801
2173.2	-1.18785
2173.44	1.60101
2173.68	0.671792
2173.92	-0.255663
2174.16	-0.253053
2174.4	-1.17899
2174.64	0.681845
2174.88	-2.10283
2175.12	2.54534
2175.36	-0.240315
2175.6	-0.24193
2175.84	0.685806
2176.08	-3.02586
2176.32	1.6197
2176.56	1.62257
2176.8	-1.16015
2177.04	-1.15762
2177.28	-1.15513
2177.52	-0.224438
2177.76	-2.07968
2178	0.707079
2178.24	-1.14745
2178.48	0.710856
2178.72	-2.07302
2178.96	0.712102
2179.2	2.56999
2179.44	-1.14146
2179.68	-0.212518
2179.92	-2.06671
2180.16	0.71587
2180.4	0.714885
2180.64	-0.214492
2180.88	-0.215298
2181.12	-0.215153
2181.35	0.711639
2181.59	0.713388
2181.83	1.64296
2182.07	1.64724
2182.31	-2.05579
2182.55	-0.198593
2182.79	-2.04803
2183.03	-2.04325
2183.27	1.67093
2183.51	-2.0333
2183.75	1.68382
2183.99	1.69167
2184.23	0.771101
2184.47	0.778426
2184.71	2.64222
2184.95	-1.06922
2185.19	-1.06815
2185.43	-1.06809
2185.67	4.50195
2185.91	-2.92531
2186.15	1.71401
2186.38	0.784133
2186.62	-0.146063
2186.86	0.779087
2187.1	-0.147598
2187.34	2.63504
2187.58	-0.142949
2187.82	-0.139306
2188.06	-1.9896
2188.3	0.794338
2188.54	-0.129435
2188.78	-1.05295
2189.02	-1.04912
2189.26	2.66456
2189.5	-0.114075
2189.74	-1.96547
2189.97	-1.03301
2190.21	1.75602
2190.45	1.76128
2190.69	1.76761
2190.93	0.848478
2191.17	-0.999284
2191.41	-0.991898
2191.65	-0.0570412
2191.89	-0.05511
2192.13	-0.0545816
2192.37	-0.983066
2192.61	0.875771
2192.85	-0.983457
2193.08	-0.0562181
2193.32	-0.987627
2193.56	0.866505
2193.8	0.864847
2194.04	-0.0637064
2194.28	3.64673
2194.52	-0.0637741
2194.76	-0.06145
2195	-0.98605
2195.24	-0.0545712
2195.47	2.73502
2195.71	-0.0421991
2195.95	-1.89197
2196.19	-1.88489
2196.43	-0.0204582
2196.67	0.916256
2196.91	-0.935107
2197.15	-0.925906
2197.39	-0.91564
2197.63	0.955655
2197.86	-0.898019
2198.1	0.0404911
2198.34	0.978626
2198.58	0.975066
2198.82	2.82235
2199.06	-0.927792
2199.3	-0.0199499
2199.54	-0.937575
2199.78	-0.909981
2200.01	2.82596
2200.25	2.82302
2200.49	0.0321465
2200.73	1.90443
2200.97	0.101379
2201.21	-0.849064
2201.45	-0.848427
2201.69	0.0897865
2201.92	1.01384
2202.16	1.93243
2202.4	-0.870381
2202.64	-0.876636
2202.88	0.982741
2203.12	-0.874304
2203.36	0.0612097
2203.59	0.0646915
2203.83	0.0607023
2204.07	0.993512
2204.31	0.0683784
2204.55	0.0734558
2204.79	1.00911
2205.03	-1.77635
2205.27	0.0900316
2205.5	0.0954332
2205.74	0.10049
2205.98	1.96725
2206.22	-0.822398
2206.46	1.04336
2206.7	1.04573
2206.93	0.116126
2207.17	-3.60652
2207.41	-0.808499
2207.65	-1.73584
2207.89	1.06375
2208.13	0.136677
2208.37	-0.790849
2208.6	1.07815
2208.84	-0.78103
2209.08	-0.775654
2209.32	-0.771348
2209.56	0.164913
2209.8	-0.766792
2210.03	0.166583
2210.27	2.96501
2210.51	1.09946
2210.75	-1.69853
2210.99	-0.76348
2211.23	-1.69113
2211.47	0.182201
2211.7	2.99063
2211.94	0.194432
2212.18	-2.60267
2212.42	-0.732635
2212.66	1.13735
2212.89	1.13982
2213.13	-5.39372
2213.37	0.21011
2213.61	0.211713
2213.85	0.213033
2214.09	2.08152
2214.32	0.216326
2214.56	2.08609
2214.8	0.221597
2215.04	0.223577
2215.28	0.225321
2215.51	-0.705784
2215.75	1.16517
2215.99	2.10333
2216.23	-1.62804
2216.47	0.245001
2216.71	1.18315
2216.94	0.252538
2217.18	0.256109
2217.42	-3.48069
2217.66	3.0626
2217.9	-1.60883
2218.13	0.260621
2218.37	0.258913
2218.61	2.12454
2218.85	-0.678823
2219.08	-1.61339
2219.32	1.18713
2219.56	-0.678507
2219.8	0.257835
2220.04	0.261856
2220.27	1.19981
2220.51	-1.59756
2220.75	-1.59256
2220.99	1.21665
2221.23	2.15832
2221.46	2.16514
2221.7	-0.63461
2221.94	0.305916
2222.18	1.24676
2222.42	2.18854
2222.65	-0.613488
2222.89	0.328037
2223.13	1.26967
2223.37	1.27499
2223.6	2.21636
2223.84	0.347258
2224.08	-0.585384
2224.32	1.29383
2224.55	-0.57786
2224.79	-1.51295
2225.03	-1.51158
2225.27	-1.51097
2225.5	1.30253
2225.74	0.365459
2225.98	-2.44632
2226.22	0.36702
2226.46	-1.5064
2226.69	0.372643
2226.93	0.378284
2227.17	-0.554437
2227.41	0.388079
2227.64	1.3311
2227.88	0.397363
2228.12	0.402256
2228.36	0.407432
2228.59	-1.46594
2228.83	-0.522187
2229.07	-0.517749
2229.31	1.36649
2229.54	2.31139
2229.78	0.435534
2230.02	1.38048
2230.26	-1.43704
2230.49	4.21201
2230.73	0.453024
2230.97	0.456703
2231.21	-1.42263
2231.44	5.16688
2231.68	-0.480388
2231.92	-4.24501
2232.16	0.458982
2232.39	1.39552
2232.63	2.33292
2232.87	1.39411
2233.11	-0.484625
2233.34	-0.48247
2233.58	0.460221
2233.82	-0.478362
2234.05	0.464363
2234.29	-1.41243
2234.53	3.29707
2234.77	2.36398
2235	1.43073
2235.24	1.4384
2235.48	0.501904
2235.72	0.507305
2235.95	-3.25871
2236.19	0.520205
2236.43	1.46623
2236.66	0.522728
2236.9	1.46506
2237.14	2.40482
2237.37	-0.426723
2237.61	-0.427274
2237.85	3.35173
2238.09	-2.30001
2238.32	2.41945
2238.56	-0.40893
2238.8	-3.23758
2239.04	-0.404543
2239.27	-1.34598
2239.51	-0.39944
2239.75	-1.34054
2239.98	0.549082
2240.22	-0.394489
2240.46	-2.28311
2240.69	-0.396468
2240.93	-1.34029
2241.17	-3.22705
2241.4	0.549218
2241.64	-0.391297
2241.88	1.5023
2242.11	1.51
2242.35	-0.372605
2242.59	-1.31318
2242.83	0.581166
2243.06	3.42204
2243.3	-0.356076
2243.54	-0.352574
2243.77	-2.24214
2244.01	-1.29314
2244.25	-0.343788
2244.48	0.605097
2244.72	-3.17911
2244.96	-3.17835
2245.19	1.554
2245.43	-0.338855
2245.67	0.607404
2245.91	0.607408
2246.14	0.607387
2246.38	0.607578
2246.61	-2.22804
2246.85	1.56035
2247.09	2.50753
2247.32	-0.33288
2247.56	2.50365
2247.8	2.50082
2248.03	0.605881
2248.27	-0.341881
2248.51	0.602227
2248.74	-1.28879
2248.98	-2.23303
2249.22	-2.23093
2249.45	0.608943
2249.69	0.612824
2249.93	0.618478
2250.16	-1.26593
2250.4	-0.312661
2250.64	1.58723
2250.87	-1.25102
2251.11	1.59573
2251.35	-0.296435
2251.58	-2.19006
2251.82	-1.24094
2252.06	0.654598
2252.29	-2.18857
2252.53	-0.291512
2252.77	-1.2386
2253	4.45213
2253.24	-2.18297
2253.48	-2.17995
2253.71	0.669213
2253.95	1.62126
2254.18	0.675557
2254.42	0.678659
2254.66	0.681662
2254.89	-2.16466
2255.13	-3.113
2255.37	-0.263027
2255.6	0.688153
2255.84	0.690163
2256.08	1.64284
2256.31	-0.254391
2256.55	0.697764
2256.78	-0.250763
2257.02	2.60265
2257.26	1.65447
2257.49	-1.19531
2257.73	1.65859
2257.96	0.710685
2258.2	-2.13747
2258.44	-2.13431
2258.67	-2.13324
2258.91	0.722455
2259.15	1.67575
2259.38	0.725877
2259.62	-1.17521
2259.85	1.68416
2260.09	0.735977
2260.33	0.740522
2260.56	-0.207108
2260.8	-0.201596
2261.03	-2.10251
2261.27	0.764462
2261.51	0.770286
2261.74	-1.13388
2261.98	-1.13022
2262.21	-0.172062
2262.45	-0.169127
2262.69	-1.12353
2262.92	-1.12271
2263.16	1.74206
2263.39	-1.12632
2263.63	-0.174605
2263.87	0.77646
2264.1	1.72748
2264.34	-4.95438
2264.57	0.768542
2264.81	-0.187656
2265.05	-0.190786
2265.28	-0.193168
2265.52	0.759523
2265.75	-2.10041
2265.99	1.71613
2266.22	-1.14177
2266.46	5.54096
2266.7	-2.08826
2266.93	-2.08425
2267.17	-2.07965
2267.4	1.74604
2267.64	-1.11724
2267.87	1.75161
2268.11	2.7113
2268.35	-5.89003
2268.58	0.804606
2268.82	-0.149451
2269.05	0.810026
2269.29	1.76841
2269.53	-0.144506
2269.76	0.812953
2270	2.72742
2270.23	-0.142021
2270.47	2.72952
2270.7	0.816608
2270.94	-0.13952
2271.18	2.7325
2271.41	-1.09519
2271.65	0.819923
2271.88	-2.05094
2272.12	1.77925
2272.35	-0.134576
2272.59	-0.133588
2272.82	-2.04901
2273.06	1.78312
2273.3	-3.00191
2273.53	0.833245
2273.77	0.836755
2274	0.839924
2274.24	-0.115287
2274.47	0.848594
2274.71	-0.104918
2274.94	-1.05888
2275.18	0.867538
2275.41	1.83027
2275.65	-2.97074
2275.88	-1.04977
2276.12	-0.089962
2276.36	-0.0910053
2276.59	3.74716
2276.83	0.859151
2277.06	-0.105145
2277.3	0.849918
2277.53	2.76414
2277.77	0.842803
2278	-0.118365
2278.24	-0.119967
2278.47	-0.122028
2278.71	-1.0821
2278.94	-0.122149
2279.18	-0.121241
2279.41	1.79826
2279.65	1.80148
2279.89	-1.07228
2280.12	-0.109823
2280.36	0.853997
2280.59	-2.02017
2280.83	2.78849
2281.06	1.83496
2281.3	-2.0029
2281.53	1.84727
2281.77	-1.03638
2282	-1.03333
2282.24	-0.0680351
2282.47	0.895298
2282.71	2.82045
2282.94	0.892137
2283.18	-1.03792
2283.41	0.885015
2283.65	-1.03776
2283.88	0.888364
2284.12	0.895663
2284.35	1.86468
2284.59	-1.02206
2284.82	-1.98394
2285.06	1.87327
2285.29	-1.01827
2285.53	1.8691
2285.76	1.86636
2286	1.86316
2286.23	-0.0675144
2286.47	-0.0733767
2286.7	-0.0786705
2286.94	-2.00836
2287.17	0.873827
2287.41	0.871972
2287.64	-0.0895166
2287.88	-2.01217
2288.11	-0.0874596
2288.35	0.878062
2288.58	1.84534
2288.82	-0.0756483
2289.05	-1.03574
2289.28	4.74262
2289.52	-1.03103
2289.75	-0.0647745
2289.99	-0.061615
2290.22	0.904366
2290.46	-1.02076
2290.69	1.87198
2290.93	-0.0548706
2291.16	0.9076
2291.4	-1.02185
2291.63	0.902865
2291.87	-0.0637398
2292.1	-1.99252
2292.34	1.85784
2292.57	-1.9966
2292.81	0.889884
2293.04	1.85053
2293.28	0.88392
2293.51	-1.04707
2293.74	1.83813
2293.98	-2.00922
2294.21	-0.0829506
2294.45	-0.0803022
2294.68	-0.0770674
2294.92	-0.0729904
2295.15	0.895362
2295.39	-0.0647564
2295.62	1.86466
2295.86	-1.02375
2296.09	1.87218
2296.32	-0.0529499
2296.56	0.914164
2296.79	-1.0136
2297.03	0.915348
2297.26	1.88001
2297.5	0.914847
2297.73	-0.0481253
2297.97	0.919346
2298.2	-1.00877
2298.43	-3.90275
2298.67	-1.00631
2298.9	-0.0407734
2299.14	-1.00653
2299.37	-0.0426798
2299.61	0.921356
2299.84	-0.0434093
2300.07	-0.0437613
2300.31	-0.0446224
2300.54	1.88526
2300.78	-0.0445843
2301.01	-0.0430956
2301.25	-1.97121
2301.48	-0.0380354
2301.71	2.86063
2301.95	-1.96565
2302.18	1.90081
2302.42	-1.96153
2302.65	-0.0284891
2302.89	-2.92588
2303.12	2.87398
2303.35	-1.95614
2303.59	-0.0223598
2303.82	-0.0219164
2304.05	-0.0219822
2304.29	-0.0223179
2304.52	0.942917
2304.76	-0.0252781
2304.99	-1.95878
2305.23	-0.0274258
2305.46	0.937605
2305.69	0.937801
2305.93	-1.95975
2306.16	-0.991214
2306.4	-1.95506
2306.63	1.91545
2306.86	-0.0129385
2307.1	-1.94394
2307.33	2.89451
2307.57	2.89537
2307.8	3.86259
2308.03	-0.975498
2308.27	2.88986
2308.5	2.88
2308.74	-0.0289783
2308.97	-0.0339165
2309.2	1.89329
2309.44	1.89123
2309.67	0.923659
2309.91	-0.042881
2310.14	-1.97239
2310.37	0.924628
2310.61	1.89534
2310.84	1.90251
2311.07	2.87409
2311.31	0.947439
2311.54	-0.980211
2311.78	-0.0073595
2312.01	-0.00163078
2312.24	-1.93332
2312.48	-0.00176048
2312.71	2.89603
2312.94	-0.974035
2313.18	1.92241
2313.41	-0.0181656
2313.65	0.94398
2313.88	1.90805
2314.11	-0.988272
2314.35	-1.95237
2314.58	1.91195
2314.81	-1.94648
2315.05	-0.0110121
2315.28	0.950536
2315.51	-1.9482
2315.75	-0.0179882
2315.98	-0.0194416
2316.22	-1.95147
2316.45	0.942804
2316.68	-1.9529
2316.92	-0.987941
2317.15	-0.986845
2317.38	-1.95035
2317.62	2.87541
2317.85	-0.0168829
2318.08	-0.978686
2318.32	1.92095
2318.55	-0.00578213
2318.78	0.964495
2319.02	0.00424767
2319.25	0.010232
2319.48	0.982098
2319.72	-0.948427
2319.95	0.985645
2320.19	1.9545
2320.42	2.924
2320.65	2.9265
2320.89	0.995293
2321.12	0.997264
2321.35	0.998055
2321.58	2.93267
2321.82	1.96313
2322.05	0.993034
2322.28	1.95493
2322.52	1.95258
2322.75	1.95088
2322.98	0.983761
2323.22	3.87791
2323.45	3.87557
2323.68	3.87323
2323.92	0.012414
2324.15	1.93979
2324.38	2.90204
2324.62	2.90127
2324.85	1.93626
2325.08	3.86389
2325.32	1.93912
2325.55	5.79673
2325.78	5.79933
2326.02	11.5794
2326.25	9.64936
2326.48	15.4245
2326.71	21.2029
2326.95	26.0192
2327.18	38.5495
2327.41	55.8857
2327.65	68.4029
2327.88	61.6565
2328.11	47.2114
2328.35	32.7722
2328.58	26.0393
2328.81	10.6345
2329.05	11.607
2329.28	7.7487
2329.51	7.74686
2329.75	9.67231
2329.98	6.7829
2330.21	6.78274
2330.44	3.89477
2330.68	1.00781
2330.91	1.97163
2331.14	1.97216
2331.38	1.97224
2331.61	2.93271
2331.84	-2.83774
2332.07	1.01085
2332.31	-0.909943
2332.54	0.0540113
2332.77	0.0577869
2333	0.0620489
2333.24	1.02652
2333.47	1.02813
2333.7	0.068923
2333.94	-0.889853
2334.17	-0.886954
2334.4	1.03866
2334.63	-0.88126
2334.87	-0.878884
2335.1	0.0850048
2335.33	2.01042
2335.56	-0.870211
2335.8	2.01656
2336.03	-0.862529
2336.26	0.10288
2336.5	-2.77691
2336.73	-0.850998
2336.96	1.07407
2337.19	2.03714
2337.43	1.07753
2337.66	-1.80308
2337.89	1.07957
2338.12	1.07934
2338.36	-3.72092
2338.59	1.07675
2338.82	0.117327
2339.05	-0.839998
2339.29	2.9978
2339.52	0.123345
2339.75	0.126271
2339.98	1.08866
2340.22	-0.824111
2340.45	1.09804
2340.68	-0.815043
2340.91	-1.76926
2341.15	0.152981
2341.38	-0.799638
2341.61	-0.79409
2341.84	0.16925
2342.08	-1.7437
2342.31	-0.781417
2342.54	-1.73674
2342.77	1.13939
2343.01	-1.73181
2343.24	0.186602
2343.47	-0.76659
2343.7	1.15343
2343.93	2.11582
2344.17	-0.752407
2344.4	1.16709
2344.63	1.17261
2344.86	0.221429
2345.1	0.228338
2345.33	1.19379
2345.56	1.20111
2345.79	1.20719
2346.03	-4.53369
2346.26	-1.65684
2346.49	1.21499
2346.72	0.257979
2346.95	0.256888
2347.19	1.21008
2347.42	0.250203
2347.65	2.14454
2347.88	-0.73926
2348.12	-0.709539
2348.35	-1.61107
2348.58	2.23854
2348.81	-2.5668
2349.04	1.24451
2349.28	0.298913
2349.51	0.308002
2349.74	0.305974
2349.97	-1.60653
2350.2	0.296635
2350.44	-0.644486
2350.67	1.26704
2350.9	1.27166
2351.13	-0.625263
2351.36	0.334435
2351.6	-2.51187
2351.83	-0.595362
2352.06	-0.587738
2352.29	1.32508
2352.52	-0.573593
2352.76	-0.566621
2352.99	-4.37012
2353.22	-1.50633
2353.45	0.402092
2353.68	2.30685
2353.92	-0.544525
2354.15	0.412443
2354.38	0.418725
2354.61	-3.37784
2354.84	2.33323
2355.07	-2.41245
2355.31	3.29777
2355.54	-0.495684
2355.77	-0.489345
2356	0.468697
2356.23	1.42716
2356.46	-0.464038
2356.7	1.44354
2356.93	-1.39834
2357.16	0.507572
2357.39	0.514052
2357.62	1.46964
2357.86	2.42489
2358.09	-1.36306
2358.32	1.48904
2358.55	1.49548
2358.78	0.55416
2359.01	-0.386783
2359.25	-2.27465
2359.48	0.574205
2359.71	-0.365186
2359.94	0.58968
2360.17	-0.348492
2360.4	1.55328
2360.63	0.616335
2360.87	-1.26626
2361.1	0.635657
2361.33	-0.300826
2361.56	-1.23713
2361.79	2.55527
2362.02	-1.21686
2362.26	1.62874
2362.49	0.69231
2362.72	0.697507
2362.95	1.64488
2363.18	0.706153
2363.41	3.54741
2363.64	0.728519
2363.88	-1.14505
2364.11	-0.182611
2364.34	0.783071
2364.57	1.7477
2364.8	0.814316
