#Acq. time (s)=	30
#Accumulations=	2
#Range (cm-¹)=	1200...2365
#Windows=	3
#Auto scanning=	Off
#Autofocus=	Off
#Macrospot=	Off
#AutoExposure=	Off
#Spike filter=	Multiple accum.
#Delay time (s)=	2
#Binning=	1
#Readout mode=	Signal
#DeNoise=	Off
#ICS correction=	On
#Dark correction=	Off
#Inst. Process=	Off
#Detector Gain=	Best Dynamic
#Detector ADC=	50 kHz HS
#Detector temperature (°C)=	-60.09
#Instrument=	LabRAM HR Evol
#Detector=	SIN-EM FIVIS
#Objective=	x100_VIS_LWD
#Grating=	1800 (450-850nm)
#ND Filter=	100%
#Laser=	532nm_Edge
#Hole=	49.98
#Temperature=	0
#Range=	Visible
#StageXY=	75x50mm Scan+
#StageZ=	Z motor
#X (µm)=	0
#Y (µm)=	0
#Z (µm)=	37.7
#Full time(mm:ss)=	3:18
#Project=	21_11_22
#Sample=	BU19w
#Site=	
#Title=	BU19w-D-FFore2-FI11-V_1800 (450-850nm)_532nm_Edge_100%_x100_VIS_LWD_H50um_30sX2
#Remark=	
#Date=	22.11.2021 14:18
#Acquired=	22.11.2021 14:18:37
#Base:Fit=	16.12.2021 17:39:50
#Base:Fit=	16.12.2021 17:40:08
#Base:Sub=	16.12.2021 17:40:09
1202.84	4.68301
1203.12	2.47038
1203.4	-1.88498
1203.67	3.4135
1203.95	1.20618
1204.23	0.0740566
1204.51	0.0172272
1204.78	2.10306
1205.06	-0.0917168
1205.34	1.99494
1205.62	-1.2708
1205.9	-1.32533
1206.17	-0.309505
1206.45	2.8475
1206.73	0.661346
1207.01	1.68223
1207.29	1.63118
1207.56	3.71236
1207.84	-1.68446
1208.12	0.398407
1208.39	-1.78972
1208.67	-1.84081
1208.95	0.239813
1209.23	2.31908
1209.51	1.20235
1209.78	2.21802
1210.06	4.29831
1210.34	-3.20408
1210.62	-1.11843
1210.89	-3.29324
1211.17	-5.46217
1211.45	-0.177849
1211.72	0.84794
1212	0.808619
1212.28	-0.29554
1212.56	-0.335003
1212.84	0.690102
1213.11	-0.4181
1213.39	-2.59185
1213.67	-1.57552
1213.94	0.503788
1214.22	1.52202
1214.5	2.54078
1214.78	-2.81341
1215.05	-1.79215
1215.33	-2.89406
1215.61	0.250347
1215.89	1.27418
1216.16	1.23885
1216.44	-0.919029
1216.72	1.16721
1216.99	1.1291
1217.27	1.09568
1217.55	1.06434
1217.83	1.03128
1218.1	-0.0625992
1218.38	2.02218
1218.66	0.926785
1218.93	-4.41031
1219.21	-0.210951
1219.49	-0.252569
1219.77	1.82174
1220.04	0.720757
1220.32	0.67952
1220.6	1.69595
1220.88	0.60161
1221.15	-1.54869
1221.43	0.529255
1221.71	-0.55876
1221.98	0.466106
1222.26	-0.616932
1222.54	-0.640459
1222.81	-0.662815
1223.09	4.59472
1223.37	1.40108
1223.64	1.37411
1223.92	3.45593
1224.2	3.42621
1224.48	5.49784
1224.75	3.33634
1225.03	1.18576
1225.31	5.35691
1225.58	3.20086
1225.86	2.10289
1226.14	-0.0260429
1226.41	3.17018
1226.69	2.16243
1226.97	2.12363
1227.24	4.18093
1227.52	5.19936
1227.8	2.02206
1228.07	-0.11652
1228.35	6.11077
1228.63	7.14445
1228.9	5.02298
1229.18	3.95228
1229.46	6.03045
1229.73	4.96041
1230.01	3.88995
1230.29	8.0703
1230.56	5.95014
1230.84	1.7322
1231.12	5.91987
1231.39	2.7539
1231.67	6.94464
1231.95	0.628273
1232.22	4.81863
1232.5	2.70298
1232.78	2.691
1233.05	8.98683
1233.33	5.8172
1233.61	4.74668
1233.88	1.57322
1234.16	3.6545
1234.43	2.57882
1234.71	4.65392
1234.99	5.67815
1235.26	4.60275
1235.54	2.47901
1235.82	4.55401
1236.09	2.43791
1236.37	2.42075
1236.65	3.45309
1236.92	3.43845
1237.2	3.42515
1237.47	3.41293
1237.75	3.40199
1238.03	1.29557
1238.3	0.237402
1238.58	1.27279
1238.85	3.35251
1239.13	1.24196
1239.41	0.183537
1239.68	0.175371
1239.96	2.26484
1240.24	1.21173
1240.51	-2.99092
1240.79	2.24089
1241.06	-0.911268
1241.34	-3.01671
1241.62	3.26244
1241.89	2.20282
1242.17	1.14044
1242.45	0.0769138
1242.72	2.15428
1243	0.0418625
1243.27	-1.01749
1243.55	-2.07374
1243.83	0.0121593
1244.1	-3.13519
1244.38	-2.09737
1244.65	-0.0117397
1244.93	3.11891
1245.2	-2.12871
1245.48	-0.0493793
1245.76	0.988861
1246.03	-3.19909
1246.31	-0.0647259
1246.59	3.06643
1246.86	-1.12366
1247.14	3.05509
1247.41	-1.13806
1247.69	1.9864
1247.96	0.929665
1248.24	-0.125523
1248.51	0.910038
1248.79	-3.27757
1249.07	-1.19713
1249.34	0.882607
1249.62	0.873596
1249.89	0.864168
1250.17	-4.36289
1250.45	-0.194534
1250.72	1.88939
1251	-2.28357
1251.27	0.850401
1251.55	1.89847
1251.82	0.855314
1252.1	0.853601
1252.38	-2.27892
1252.65	0.852442
1252.93	-0.194761
1253.2	-4.37217
1253.48	3.98298
1253.75	-2.28015
1254.03	-0.190338
1254.3	2.94131
1254.58	0.847277
1254.86	0.844019
1255.13	0.841421
1255.41	0.838707
1255.68	-0.208044
1255.96	1.87193
1256.23	-1.26044
1256.51	0.831076
1256.78	-0.210127
1257.06	0.849989
1257.33	8.1519
1257.61	6.0569
1257.88	5.0012
1258.16	4.9937
1258.44	6.03229
1258.71	3.94823
1258.99	-0.198378
1259.26	5.06485
1259.54	4.05752
1259.81	1.91339
1260.09	5.00882
1260.36	4.98532
1260.64	5.02196
1260.91	9.22854
1261.19	9.26395
1261.46	9.29617
1261.74	11.3639
1262.01	2.99393
1262.29	11.3576
1262.56	15.5394
1262.84	14.4884
1263.11	23.8948
1263.39	25.9915
1263.66	20.7767
1263.94	29.1514
1264.21	16.6226
1264.49	14.5471
1264.76	12.4715
1265.04	9.3498
1265.31	10.4172
1265.59	5.20089
1265.86	7.30726
1266.14	6.27021
1266.41	2.08837
1266.69	5.23573
1266.96	3.13832
1267.24	6.27568
1267.51	3.13175
1267.79	5.22302
1268.06	3.12896
1268.34	2.08537
1268.61	3.13351
1268.89	9.41877
1269.16	6.29287
1269.44	5.26159
1269.71	6.32727
1269.99	1.1052
1270.26	9.50197
1270.54	5.32577
1270.81	1.14741
1271.09	6.40521
1271.36	8.51567
1271.64	5.37773
1271.91	4.33447
1272.18	8.53676
1272.46	7.49822
1272.74	6.46168
1273.01	10.6722
1273.28	5.44046
1273.56	8.60356
1273.83	4.41792
1274.11	3.37986
1274.38	6.54601
1274.66	5.51151
1274.93	5.52738
1275.21	5.54194
1275.48	8.70983
1275.76	10.8319
1276.03	6.63902
1276.3	5.60172
1276.58	3.50417
1276.85	8.76937
1277.13	5.61761
1277.4	5.624
1277.68	5.63513
1277.95	8.80163
1278.23	5.66276
1278.5	10.945
1278.77	10.9601
1279.05	13.0727
1279.32	10.9794
1279.6	17.3113
1279.87	19.4193
1280.15	18.3563
1280.42	22.5271
1280.69	30.9201
1280.97	29.8806
1281.24	40.4078
1281.52	52.1707
1281.79	64.8389
1282.07	94.3603
1282.34	133.281
1282.61	159.549
1282.89	231.147
1283.16	330.205
1283.44	379.728
1283.71	395.442
1283.99	364.914
1284.26	255.41
1284.53	160.64
1284.81	94.3093
1285.08	64.8382
1285.36	40.6427
1285.63	30.1311
1285.9	24.8827
1286.18	16.4799
1286.45	13.34
1286.73	14.411
1287	12.3239
1287.28	12.3421
1287.55	7.08665
1287.82	10.2533
1288.1	6.04859
1288.37	7.11204
1288.64	8.17573
1288.92	7.1323
1289.19	6.08984
1289.47	8.20957
1289.74	1.90012
1290.01	2.96157
1290.29	0.867416
1290.56	7.20762
1290.84	7.23364
1291.11	6.20536
1291.38	0.950066
1291.66	4.12471
1291.93	4.13452
1292.21	5.20463
1292.48	1.00933
1292.75	-1.07483
1293.03	5.2932
1293.3	1.09337
1293.57	0.0518208
1293.85	-0.992657
1294.12	0.0736065
1294.4	1.13739
1294.67	5.36954
1294.94	6.43022
1295.22	-2.01501
1295.49	7.50324
1295.76	2.23376
1296.04	3.2967
1296.31	1.19288
1296.58	4.36714
1296.86	3.32267
1297.13	2.28385
1297.4	0.18788
1297.68	3.36868
1297.95	2.32385
1298.22	2.33496
1298.5	0.23666
1298.77	1.30938
1299.04	0.270134
1299.32	0.285206
1299.59	3.46755
1299.87	2.42346
1300.14	2.43413
1300.41	1.3873
1300.69	1.39491
1300.96	2.46181
1301.23	1.41898
1301.51	0.37575
1301.78	-1.72382
1302.05	3.5652
1302.33	5.6839
1302.6	-2.75408
1302.87	1.47386
1303.15	-2.74019
1303.42	-0.623131
1303.69	-1.66766
1303.97	-0.600609
1304.24	-2.69472
1304.51	1.53805
1304.79	1.55053
1305.06	1.56287
1305.33	-2.64123
1305.6	0.534029
1305.88	-1.56143
1306.15	-4.70905
1306.42	-1.52768
1306.7	1.65498
1306.97	2.72649
1307.24	-4.6484
1307.52	1.6947
1307.79	-3.56869
1308.06	-0.388712
1308.34	0.681324
1308.61	-2.47054
1308.88	4.93284
1309.15	0.72879
1309.43	0.746323
1309.7	0.761732
1309.97	0.774454
1310.25	2.89456
1310.52	-2.3721
1310.79	-2.36081
1311.06	-0.23844
1311.34	-2.3364
1311.61	-0.210678
1311.88	2.97221
1312.16	-1.23395
1312.43	-0.16161
1312.7	1.96736
1312.98	-1.18404
1313.25	0.941153
1313.52	-0.103384
1313.79	0.964949
1314.07	0.977512
1314.34	3.1029
1314.61	1.0078
1314.89	2.08042
1315.16	-1.07338
1315.43	-2.11518
1315.7	0.0117855
1315.98	3.19479
1316.25	-3.13119
1316.52	1.10704
1316.79	-3.10604
1317.07	1.13452
1317.34	-2.02073
1317.61	3.27364
1317.88	2.22682
1318.16	0.122015
1318.43	-3.03914
1318.7	1.18834
1318.97	2.25219
1319.25	-0.907515
1319.52	0.157204
1319.79	-1.94231
1320.06	1.23134
1320.34	0.184166
1320.61	2.30978
1320.88	1.2702
1321.16	-3.98785
1321.43	3.40579
1321.7	-0.797735
1321.97	0.268929
1322.25	-0.76927
1322.52	4.50964
1322.79	0.294252
1323.06	-0.759977
1323.33	0.286467
1323.61	-1.81259
1323.88	0.30209
1324.15	-1.7817
1324.42	2.46143
1324.7	2.48513
1324.97	1.4549
1325.24	0.424929
1325.51	2.55828
1325.79	-1.6384
1326.06	-3.73142
1326.33	3.66272
1326.6	-2.65032
1326.87	4.7475
1327.15	1.5938
1327.42	-0.505787
1327.69	-0.496876
1327.96	-1.54373
1328.23	-1.53742
1328.51	-2.58681
1328.78	0.575844
1329.05	-0.473133
1329.32	0.585777
1329.6	-1.51323
1329.87	0.595652
1330.14	0.599529
1330.41	1.65539
1330.68	-0.441441
1330.96	-1.48587
1331.23	-2.52961
1331.5	-1.4724
1331.77	-0.415321
1332.04	-0.4074
1332.32	1.69974
1332.59	1.70786
1332.86	-1.43048
1333.13	2.77385
1333.4	1.73423
1333.67	-2.45007
1333.95	2.80229
1334.22	-0.33189
1334.49	0.727411
1334.76	0.737923
1335.03	-4.49387
1335.3	1.79947
1335.58	1.80863
1335.85	0.770277
1336.12	0.780308
1336.39	-1.30153
1336.66	-2.33469
1336.94	0.821421
1337.21	0.835318
1337.48	-0.197853
1337.75	0.863655
1338.02	-3.3126
1338.29	0.888481
1338.57	-4.33593
1338.84	-1.18394
1339.11	1.96605
1339.38	-1.16659
1339.65	0.932966
1339.93	-2.19928
1340.2	0.948065
1340.47	0.959045
1340.74	0.971092
1341.01	-0.0619755
1341.28	3.08902
1341.55	-2.12714
1341.82	1.0213
1342.1	1.03012
1342.37	2.08277
1342.64	-1.04791
1342.91	5.22743
1343.18	0.00805664
1343.45	-1.03523
1343.73	2.10008
1344	1.06147
1344.27	0.0231609
1344.54	4.1996
1344.81	0.0367699
1345.08	-0.996124
1345.35	-2.02778
1345.63	-3.05882
1345.9	0.0767555
1346.17	0.0848751
1346.44	3.2176
1346.71	5.30796
1346.98	1.15012
1347.25	3.2403
1347.52	2.2069
1347.8	1.17239
1348.07	1.17839
1348.34	-0.893929
1348.61	0.152569
1348.88	-0.87706
1349.15	4.33404
1349.42	2.26979
1349.69	-1.87263
1349.96	4.39003
1350.24	3.36546
1350.51	4.44227
1350.78	3.44429
1351.05	0.307646
1351.32	1.32136
1351.59	-0.774277
1351.86	-0.759235
1352.13	3.41289
1352.41	-1.77824
1352.68	-1.77157
1352.95	-0.713339
1353.22	4.49815
1353.49	0.34828
1353.76	0.358034
1354.03	1.4067
1354.3	4.53196
1354.57	4.54045
1354.84	3.50991
1355.11	4.5553
1355.39	7.67575
1355.66	3.53158
1355.93	3.53815
1356.2	2.50732
1356.47	1.47826
1356.74	3.56096
1357.01	5.63978
1357.28	1.49684
1357.55	5.64617
1357.82	-0.563681
1358.09	1.51781
1358.36	3.60089
1358.63	4.64773
1358.9	0.514957
1359.18	4.66664
1359.45	2.60414
1359.72	2.61336
1359.99	6.76553
1360.26	2.63728
1360.53	5.76028
1360.8	2.66895
1361.07	1.64813
1361.34	4.76771
1361.61	4.77747
1361.88	6.8576
1362.15	5.82836
1362.42	5.83335
1362.69	8.94298
1362.97	5.84245
1363.24	4.81262
1363.51	6.88599
1363.78	5.85456
1364.05	4.82202
1364.32	7.92889
1364.59	10.004
1364.86	8.98557
1365.13	6.93267
1365.4	6.946
1365.67	10.0606
1365.94	4.9049
1366.21	6.98646
1366.48	11.136
1366.75	5.97418
1367.02	5.9819
1367.29	1.85508
1367.56	8.06032
1367.83	6.00032
1368.1	9.10538
1368.37	9.10754
1368.64	16.3349
1368.91	18.3944
1369.18	27.6742
1369.45	13.2287
1369.72	7.04332
1369.99	3.95618
1370.26	9.1169
1370.54	3.97076
1370.81	5.00922
1371.08	10.1696
1371.34	10.178
1371.62	9.15635
1371.89	12.2552
1372.16	11.2313
1372.43	11.2431
1372.7	9.19806
1372.97	10.2382
1373.24	12.3121
1373.51	13.3438
1373.78	13.3456
1374.05	12.3149
1374.32	11.2797
1374.59	12.3234
1374.86	19.5482
1375.13	13.3971
1375.4	16.5164
1375.67	18.6126
1375.94	9.35187
1376.21	15.5475
1376.48	14.5219
1376.75	18.6499
1377.02	19.6826
1377.29	16.586
1377.56	24.7964
1377.83	24.7847
1378.09	25.8016
1378.36	22.7366
1378.64	24.7926
1378.91	22.7248
1379.18	29.903
1379.44	23.7289
1379.71	32.961
1379.98	29.8702
1380.25	23.7105
1380.52	36.0126
1380.79	37.0377
1381.06	34.9875
1381.33	28.848
1381.6	37.0646
1381.87	28.8815
1382.14	38.1366
1382.41	42.2766
1382.68	37.1716
1382.95	40.2762
1383.22	40.2936
1383.49	46.4795
1383.76	42.3879
1384.03	50.615
1384.3	55.7106
1384.57	54.5418
1384.84	61.576
1385.11	70.7168
1385.38	91.2906
1385.65	133.496
1385.92	170.632
1386.19	266.269
1386.45	410.037
1386.72	637.067
1386.99	896.614
1387.26	878.504
1387.53	596.1
1387.8	340.818
1388.07	178.721
1388.34	106.969
1388.61	75.2007
1388.88	53.6724
1389.15	41.3701
1389.42	36.2444
1389.69	40.339
1389.96	34.1969
1390.23	24.9868
1390.49	21.9205
1390.76	21.9255
1391.03	20.9076
1391.3	20.9136
1391.57	17.8503
1391.84	13.7649
1392.11	13.7773
1392.38	14.8161
1392.65	15.8535
1392.92	12.7938
1393.19	13.8255
1393.46	7.69019
1393.73	14.8595
1393.99	9.74704
1394.26	11.7962
1394.53	13.8443
1394.8	11.8037
1395.07	12.8347
1395.34	11.8229
1395.61	9.78961
1395.88	5.70861
1396.15	6.74204
1396.42	9.82532
1396.68	9.83789
1396.95	4.73218
1397.22	7.81132
1397.49	10.8948
1397.76	7.84003
1398.03	9.90065
1398.3	12.9805
1398.57	5.82399
1398.84	14.0256
1399.11	7.89892
1399.38	5.87438
1399.64	7.95171
1399.91	10.0266
1400.18	3.88729
1400.45	12.1131
1400.72	5.96244
1400.99	12.1242
1401.26	9.03467
1401.53	9.04709
1401.79	4.94902
1402.06	10.0832
1402.33	9.05996
1402.6	3.93479
1402.87	8.0393
1403.14	7.01714
1403.41	5.99703
1403.68	7.02742
1403.94	8.06174
1404.21	6.02188
1404.48	8.0827
1404.75	12.1934
1405.02	11.1783
1405.29	11.1881
1405.56	14.2742
1405.82	12.2339
1406.09	13.2706
1406.36	12.2558
1406.63	14.318
1406.9	18.4312
1407.17	20.4915
1407.44	26.6449
1407.7	27.6648
1407.97	37.9072
1408.24	45.0743
1408.51	45.0703
1408.78	41.9952
1409.05	35.8529
1409.31	31.77
1409.58	20.5187
1409.85	20.5509
1410.12	8.2906
1410.39	13.4579
1410.66	11.3878
1410.92	6.21894
1411.19	13.4099
1411.46	9.33664
1411.73	11.4146
1412	7.31279
1412.27	7.32138
1412.53	3.22213
1412.8	7.33692
1413.07	4.26627
1413.34	6.32981
1413.61	1.20491
1413.88	5.32305
1414.14	1.22463
1414.41	5.34413
1414.68	3.29941
1414.95	6.39081
1415.22	4.34336
1415.48	4.35146
1415.75	3.33237
1416.02	-0.771164
1416.29	4.37511
1416.56	2.3242
1416.82	1.29915
1417.09	1.30123
1417.36	6.43904
1417.63	3.35951
1417.9	2.33411
1418.17	4.38918
1418.43	-1.76489
1418.7	10.5599
1418.97	1.3348
1419.24	8.53927
1419.5	3.41911
1419.77	3.43965
1420.04	1.41009
1420.31	2.46875
1420.58	3.45554
1420.84	5.44427
1421.11	3.41237
1421.38	5.44329
1421.65	3.39703
1421.92	2.38879
1422.18	6.51046
1422.45	4.47562
1422.72	5.49953
1422.99	2.43993
1423.26	3.4704
1423.52	2.44694
1423.79	3.47228
1424.06	3.47164
1424.33	1.42072
1424.59	7.56442
1424.86	0.391556
1425.13	4.48978
1425.4	3.47026
1425.66	3.47682
1425.93	2.46056
1426.2	3.49286
1426.47	4.52618
1426.73	3.51214
1427	4.54835
1427.27	7.63601
1427.54	1.49858
1427.81	6.6383
1428.07	2.55376
1428.34	3.59502
1428.61	2.57944
1428.88	3.61227
1429.14	5.66631
1429.41	1.56175
1429.68	5.66716
1429.94	-0.488043
1430.21	3.61026
1430.48	4.63003
1430.75	-0.496525
1431.02	2.57593
1431.28	3.603
1431.55	3.61946
1431.82	0.557922
1432.08	2.61409
1432.35	2.62011
1432.62	3.65003
1432.89	-2.49348
1433.15	2.6341
1433.42	1.6135
1433.69	1.61698
1433.96	0.595932
1434.22	2.64813
1434.49	1.62864
1434.76	2.65595
1435.02	0.611837
1435.29	5.73918
1435.56	-1.42138
1435.83	4.73268
1436.09	0.641251
1436.36	-2.42566
1436.63	3.73081
1436.89	-0.357697
1437.16	4.77985
1437.43	5.81427
1437.7	3.77064
1437.96	6.85288
1438.23	0.706726
1438.5	1.73595
1438.77	2.76269
1439.03	2.76553
1439.3	5.85184
1439.57	-2.34554
1439.83	3.81759
1440.1	3.81985
1440.37	2.79525
1440.63	-0.278908
1440.9	0.749071
1441.17	2.80337
1441.43	0.759356
1441.7	-0.254393
1441.97	4.88428
1442.24	1.82064
1442.5	2.84968
1442.77	2.85232
1443.03	-3.29963
1443.3	2.85808
1443.57	-1.24146
1443.84	-0.212585
1444.1	2.86717
1444.37	3.89503
1444.64	4.9219
1444.9	-0.202015
1445.17	2.87794
1445.44	-3.26513
1445.7	1.87208
1445.97	0.852791
1446.24	-5.2966
1446.5	0.860264
1446.77	-0.163374
1447.04	0.863079
1447.3	-0.161238
1447.57	5.99187
1447.84	2.91943
1448.1	1.8972
1448.37	0.875015
1448.64	2.92677
1448.9	3.95354
1449.17	1.90699
1449.44	0.885942
1449.7	2.93983
1449.97	-0.128302
1450.24	3.97749
1450.5	2.9598
1450.77	5.01435
1451.04	0.917883
1451.3	1.94568
1451.57	-0.0993595
1451.83	0.929838
1452.1	-2.14043
1452.37	-1.11279
1452.63	0.940992
1452.9	-2.12514
1453.17	1.98096
1453.43	1.98538
1453.7	-1.08681
1453.97	0.963379
1454.23	-0.0607281
1454.5	3.01526
1454.77	-0.0553474
1455.03	3.02099
1455.3	3.02533
1455.56	-0.0431747
1455.83	3.03563
1456.1	2.01652
1456.36	0.996883
1456.63	3.05079
1456.9	5.10313
1457.16	2.03199
1457.43	1.00993
1457.69	-1.03661
1457.96	2.03799
1458.23	1.01478
1458.49	1.01584
1458.76	2.04043
1459.02	1.01672
1459.29	2.04005
1459.56	3.06252
1459.82	-1.0313
1460.09	-2.05504
1460.36	-3.07853
1460.62	-0.0114555
1460.89	-0.00878906
1461.15	1.02399
1461.42	1.03861
1461.69	0.0271721
1461.95	0.0407906
1462.22	2.07881
1462.48	3.05866
1462.75	1.00015
1463.02	-0.020174
1463.28	2.03217
1463.55	1.01376
1463.81	-1.03308
1464.08	1.00725
1464.35	-0.00676537
1464.61	-0.00447083
1464.88	1.01771
1465.14	-2.03994
1465.41	2.04352
1465.67	4.08668
1465.94	2.04889
1466.21	0.0103645
1466.47	1.03106
1466.74	3.06956
1467	1.02853
1467.27	-1.01068
1467.54	3.06602
1467.8	-1.00902
1468.07	3.06816
1468.33	-1.00635
1468.6	3.06703
1468.86	2.04858
1469.13	0.0136261
1469.39	1.03443
1469.66	0.0189533
1469.93	2.0581
1470.19	0.0235004
1470.46	-2.01222
1470.72	-0.99402
1470.99	-0.993219
1471.25	3.07913
1471.52	1.04697
1471.79	1.05216
1472.05	-5.04981
1472.32	-1.99284
1472.58	5.13447
1472.85	0.0467873
1473.11	0.0471401
1473.38	4.11809
1473.64	-4.02015
1473.91	3.10106
1474.17	-1.9853
1474.44	-4.0179
1474.71	-0.964521
1474.97	-0.961924
1475.24	2.08946
1475.5	2.08803
1475.77	-0.961906
1476.03	1.07083
1476.3	0.053896
1476.56	0.0528984
1476.83	-0.964476
1477.09	3.09649
1477.36	-1.98521
1477.62	2.07178
1477.89	0.0405483
1478.15	-1.98783
1478.42	0.0408268
1478.68	-1.98364
1478.95	4.11062
1479.22	1.07355
1479.48	0.0660152
1479.75	1.08765
1480.01	0.0754204
1480.28	-1.94995
1480.54	0.0852261
1480.81	-2.95817
1481.07	3.13679
1481.34	2.11508
1481.6	-1.95291
1481.87	1.06981
1482.13	2.05388
1482.4	1.03355
1482.66	-2.01554
1482.93	-2.98024
1483.19	-0.94504
1483.46	1.09474
1483.72	-3.99152
1483.99	2.09972
1484.25	2.10668
1484.52	2.10236
1484.78	2.09951
1485.05	2.09896
1485.31	1.08532
1485.58	4.12019
1485.84	-1.95612
1486.11	-0.945246
1486.37	3.10241
1486.64	2.0912
1486.9	0.0688019
1487.17	5.12959
1487.43	0.0737076
1487.7	-1.9493
1487.96	-1.95059
1488.22	-0.940796
1488.49	3.10397
1488.75	-0.938606
1489.02	2.09679
1489.28	3.11154
1489.55	2.10229
1489.81	-0.929323
1490.08	-0.92754
1490.34	-0.924978
1490.61	3.11951
1490.87	1.09938
1491.14	2.11294
1491.4	-0.915806
1491.67	-4.95544
1491.93	-0.909689
1492.19	-3.94282
1492.46	2.11771
1492.72	3.12177
1492.99	0.0874004
1493.25	3.1149
1493.52	1.09481
1493.78	-0.924366
1494.05	0.0843639
1494.31	1.09582
1494.58	-0.920475
1494.84	1.09912
1495.1	0.0917168
1495.37	-5.96097
1495.63	2.1155
1495.9	1.10937
1496.16	3.13127
1496.43	-0.902321
1496.69	-0.898212
1496.96	0.115452
1497.22	-3.91978
1497.48	0.120752
1497.75	0.122288
1498.01	0.12394
1498.28	0.124073
1498.54	0.122011
1498.81	0.122883
1499.07	0.124495
1499.34	2.14411
1499.6	-1.89178
1499.86	0.123949
1500.13	1.13034
1500.39	0.121601
1500.66	-2.90516
1500.92	3.14656
1501.18	1.13438
1501.45	-2.89614
1501.71	1.14003
1501.98	1.14124
1502.24	1.14112
1502.5	2.14807
1502.77	2.14388
1503.03	3.14483
1503.3	-0.884605
1503.56	1.13176
1503.83	-0.880327
1504.09	-3.89792
1504.35	-1.87984
1504.62	2.15396
1504.88	1.14824
1505.15	-2.8817
1505.41	-3.88827
1505.67	1.15206
1505.94	-1.86791
1506.2	0.149776
1506.47	0.151552
1506.73	-2.86947
1506.99	3.1809
1507.26	2.17716
1507.52	-0.8482
1507.78	0.157372
1508.05	1.16163
1508.31	0.150528
1508.58	-0.862432
1508.84	1.14089
1509.1	-2.89091
1509.37	2.12712
1509.63	-0.894714
1509.9	-0.898096
1510.16	-0.900812
1510.42	0.101103
1510.69	-0.902683
1510.95	-0.896353
1511.21	-1.89072
1511.48	3.13611
1511.74	-0.882391
1512.01	0.119255
1512.27	3.12724
1512.53	4.12676
1512.8	-3.9062
1513.06	3.11224
1513.32	0.100182
1513.59	3.10834
1513.85	4.11101
1514.11	0.100616
1514.38	2.10714
1514.64	-0.898506
1514.9	2.11291
1515.17	4.12475
1515.43	-1.88954
1515.7	-0.883291
1515.96	1.12596
1516.22	0.126614
1516.49	1.1334
1516.75	0.133089
1517.01	0.134521
1517.28	4.14727
1517.54	1.13793
1517.8	0.137762
1518.07	1.14497
1518.33	1.14884
1518.59	2.1549
1518.86	1.15248
1519.12	1.15234
1519.38	4.16124
1519.65	0.147764
1519.91	-0.855633
1520.17	0.145653
1520.44	3.14866
1520.7	0.134571
1520.96	3.13614
1521.23	2.13108
1521.49	1.12731
1521.75	1.12553
1522.02	1.12967
1522.28	2.134
1522.54	1.13512
1522.81	0.138395
1523.07	0.144125
1523.33	1.15366
1523.59	0.15774
1523.86	0.161318
1524.12	0.162663
1524.38	0.161348
1524.65	0.161713
1524.91	2.16583
1525.17	1.16367
1525.44	0.160833
1525.7	-1.84333
1525.96	-0.841688
1526.23	1.16229
1526.49	2.16529
1526.75	0.162384
1527.02	1.16201
1527.28	1.1626
1527.54	4.17067
1527.8	4.17749
1528.07	-0.824892
1528.33	3.18812
1528.59	1.18634
1528.86	1.18649
1529.12	4.19497
1529.38	1.18744
1529.64	2.19364
1529.91	0.196949
1530.17	2.21153
1530.43	3.22358
1530.69	1.22257
1530.96	0.222986
1531.22	0.224504
1531.48	2.2312
1531.75	0.225018
1532.01	-0.77853
1532.27	1.22704
1532.53	-0.7806
1532.8	1.21509
1533.06	1.20988
1533.32	0.204966
1533.59	0.19928
1533.85	1.19391
1534.11	0.187439
1534.37	2.18717
1534.64	-1.81776
1534.9	1.18499
1535.16	1.18219
1535.42	1.17665
1535.69	-2.82251
1535.95	-0.823795
1536.21	0.18292
1536.48	2.19739
1536.74	2.21609
1537	0.226444
1537.26	0.236986
1537.53	1.25057
1537.79	-0.74716
1538.05	2.26577
1538.31	-1.75237
1538.58	1.25565
1538.84	2.25331
1539.1	0.245344
1539.36	1.24319
1539.62	1.23924
1539.89	3.23795
1540.15	2.23318
1540.41	1.22837
1540.67	3.2236
1540.94	1.21654
1541.2	-1.78111
1541.46	0.221851
1541.72	-1.77288
1541.98	0.235909
1542.25	1.24292
1542.51	1.25349
1542.77	4.26447
1543.03	7.27415
1543.3	-0.734735
1543.56	6.27725
1543.82	3.27493
1544.08	-0.728003
1544.35	4.2857
1544.61	1.28403
1544.87	5.28851
1545.13	5.27593
1545.39	1.27222
1545.66	2.27582
1545.92	2.28532
1546.18	2.26561
1546.44	2.24262
1546.71	4.23748
1546.97	3.25285
1547.23	1.27707
1547.49	3.31801
1547.75	4.34958
1548.02	0.35881
1548.28	0.345325
1548.54	2.35738
1548.8	0.346689
1549.06	1.34459
1549.33	2.36007
1549.59	1.36725
1549.85	4.37884
1550.11	2.3656
1550.37	3.35298
1550.64	3.35058
1550.9	2.34711
1551.16	-1.66751
1551.42	2.33893
1551.68	4.33729
1551.94	2.32586
1552.21	5.32978
1552.47	6.33129
1552.73	5.33094
1552.99	3.33058
1553.25	1.32901
1553.52	2.32869
1553.78	2.33049
1554.04	1.33186
1554.3	2.33653
1554.56	1.33675
1554.82	3.34061
1555.09	5.34097
1555.35	1.32914
1555.61	-1.6778
1555.87	7.32326
1556.13	5.31536
1556.39	6.31004
1556.65	1.30617
1556.92	5.30263
1557.18	4.30088
1557.44	1.30136
1557.7	1.30113
1557.96	2.30066
1558.22	5.29993
1558.49	6.30266
1558.75	2.3109
1559.01	3.31857
1559.27	1.32733
1559.53	1.32914
1559.79	1.32964
1560.05	3.32936
1560.32	6.33243
1560.58	4.33139
1560.84	2.33138
1561.1	2.34105
1561.36	0.350563
1561.62	2.35641
1561.88	3.35728
1562.15	4.34628
1562.41	2.30671
1562.67	2.2517
1562.93	1.22621
1563.19	-2.67481
1563.45	0.349836
1563.71	2.33973
1563.98	2.32515
1564.24	0.346127
1564.5	7.37121
1564.76	1.36457
1565.02	3.34936
1565.28	0.354603
1565.54	6.35856
1565.8	5.36218
1566.07	4.36157
1566.33	5.35328
1566.59	2.35122
1566.85	0.354347
1567.11	2.35642
1567.37	2.35854
1567.63	1.36106
1567.89	3.36103
1568.15	1.36284
1568.42	2.36172
1568.68	3.35878
1568.94	2.35704
1569.2	5.35464
1569.46	0.359081
1569.72	3.35228
1569.98	2.35187
1570.24	1.35188
1570.5	7.33863
1570.77	1.3482
1571.03	3.34624
1571.29	0.357609
1571.55	2.36095
1571.81	7.36148
1572.07	0.377853
1572.33	1.38372
1572.59	4.38746
1572.85	0.392824
1573.11	3.39081
1573.37	4.3913
1573.64	1.39257
1573.9	3.38496
1574.16	1.38031
1574.42	3.37016
1574.68	3.36336
1574.94	8.34464
1575.2	1.35725
1575.46	4.3457
1575.72	3.34887
1575.98	3.35026
1576.24	3.35168
1576.5	5.34738
1576.76	4.35351
1577.03	3.3617
1577.29	2.36792
1577.55	1.3728
1577.81	0.376366
1578.07	3.36679
1578.33	2.36768
1578.59	3.36309
1578.85	4.35643
1579.11	2.3599
1579.37	2.35984
1579.63	2.35986
1579.89	3.35585
1580.15	4.35218
1580.41	3.35701
1580.67	4.35412
1580.93	6.34509
1581.19	7.34258
1581.46	-0.621424
1581.72	2.36986
1581.98	6.35699
1582.24	1.37784
1582.5	4.36644
1582.76	0.383352
1583.02	2.37492
1583.28	4.36263
1583.54	3.36262
1583.8	5.35053
1584.06	3.35841
1584.32	2.36245
1584.58	5.34704
1584.84	1.36776
1585.1	1.36961
1585.36	3.36309
1585.62	4.36264
1585.88	3.37279
1586.14	2.38209
1586.4	2.38676
1586.66	7.36864
1586.92	7.37136
1587.18	5.38171
1587.44	4.3898
1587.7	4.39445
1587.96	3.40266
1588.22	2.40778
1588.48	1.41349
1588.74	2.40954
1589	6.39177
1589.26	4.3965
1589.52	4.39025
1589.78	4.38604
1590.04	2.3944
1590.3	3.38212
1590.56	0.392149
1590.82	2.37234
1591.08	5.34824
1591.34	4.35317
1591.6	0.381916
1591.86	8.333
1592.12	1.38576
1592.38	3.37787
1592.64	5.36728
1592.9	5.35699
1593.16	3.37175
1593.42	3.37349
1593.68	4.36869
1593.94	11.3242
1594.2	1.39493
1594.46	6.36573
1594.72	6.3699
1594.98	7.36452
1595.24	3.39009
1595.5	1.40117
1595.76	3.38286
1596.02	6.35686
1596.28	9.33114
1596.54	6.35081
1596.8	8.33239
1597.06	5.35322
1597.32	7.33447
1597.58	4.35588
1597.84	5.34296
1598.1	3.35448
1598.36	1.36676
1598.62	7.30421
1598.88	7.29847
1599.14	6.30447
1599.4	5.31124
1599.66	11.245
1599.92	7.2817
1600.18	1.34253
1600.44	8.26293
1600.7	10.2387
1600.96	1.33932
1601.22	4.3068
1601.48	7.27527
1601.73	7.27795
1601.99	7.28011
1602.25	5.305
1602.51	8.2743
1602.77	3.33399
1603.03	6.30572
1603.29	3.34368
1603.55	4.33797
1603.81	0.384968
1604.07	7.31491
1604.33	5.33861
1604.59	8.3086
1604.85	3.36222
1605.11	7.32146
1605.37	9.30179
1605.63	6.33495
1605.89	8.3134
1606.14	9.29703
1606.4	2.36839
1606.66	9.28416
1606.92	9.27746
1607.18	4.34615
1607.44	10.2348
1607.7	7.26348
1607.96	7.27973
1608.22	5.44299
1608.48	8.87733
1608.74	8.15992
1609	6.23483
1609.26	8.00584
1609.51	5.57379
1609.77	7.31073
1610.03	4.49505
1610.29	6.92823
1610.55	6.3731
1610.81	6.10176
1611.07	7.63277
1611.33	6.91087
1611.59	8.95634
1611.85	4.18231
1612.11	7.30503
1612.36	6.07314
1612.62	6.3513
1612.88	5.33216
1613.14	8.80424
1613.4	8.85588
1613.66	4.79613
1613.92	8.22467
1614.18	9.27575
1614.44	8.34502
1614.7	5.10654
1614.95	3.0081
1615.21	8.50408
1615.47	5.64409
1615.73	7.66132
1615.99	9.39979
1616.25	7.91744
1616.51	6.40877
1616.77	9.11061
1617.03	5.80107
1617.28	9.20159
1617.54	5.91219
1617.8	6.8621
1618.06	6.99193
1618.32	8.64594
1618.58	6.50095
1618.84	6.70851
1619.1	6.57133
1619.35	7.24335
1619.61	9.01262
1619.87	10.153
1620.13	5.54072
1620.39	4.89709
1620.65	6.81545
1620.91	8.05776
1621.17	8.41395
1621.42	8.24624
1621.68	10.7375
1621.94	7.80758
1622.2	8.13738
1622.46	8.51428
1622.72	4.53077
1622.98	6.34506
1623.23	7.74951
1623.49	6.60367
1623.75	7.14105
1624.01	7.91566
1624.27	8.55678
1624.53	8.09053
1624.79	10.0334
1625.04	7.53676
1625.3	9.61506
1625.56	7.71288
1625.82	8.71532
1626.08	6.83123
1626.34	3.61646
1626.59	8.27578
1626.85	5.31782
1627.11	7.0614
1627.37	7.21213
1627.63	5.59106
1627.89	10.475
1628.14	11.6452
1628.4	8.27834
1628.66	2.57518
1628.92	6.49923
1629.18	8.19812
1629.44	9.25604
1629.69	7.75101
1629.95	5.15636
1630.21	7.03127
1630.47	5.79581
1630.73	7.93637
1630.99	9.23932
1631.24	11.8381
1631.29	12.3882
1631.55	5.49229
1631.81	9.43786
1632.07	12.3967
1632.33	6.48382
1632.59	12.3979
1632.86	5.49907
1633.12	4.51332
1633.38	8.45377
1633.64	9.43769
1633.9	5.4959
1634.16	5.494
1634.42	10.4157
1634.68	8.44666
1634.95	5.49395
1635.21	11.4008
1635.47	10.4157
1635.73	7.4636
1635.99	8.45067
1636.25	9.43742
1636.51	6.48655
1636.77	12.3949
1637.03	10.4279
1637.3	10.4294
1637.56	9.45006
1637.82	6.50411
1638.08	7.49433
1638.34	8.48175
1638.6	6.51248
1638.86	8.48142
1639.12	6.51306
1639.39	8.48309
1639.65	4.54676
1639.91	7.50125
1640.17	5.53414
1640.43	8.48915
1640.69	8.49039
1640.95	6.52199
1641.21	4.55331
1641.47	8.48702
1641.73	7.50311
1641.99	11.4399
1642.25	7.51093
1642.52	9.48415
1642.78	10.4734
1643.04	6.53865
1643.3	6.53824
1643.56	10.473
1643.82	7.52123
1644.08	7.52233
1644.34	8.50484
1644.6	7.5213
1644.86	7.52113
1645.12	6.54061
1645.38	7.52763
1645.65	8.51962
1645.91	8.52785
1646.17	9.53277
1646.43	7.5657
1646.69	8.55053
1646.95	7.56497
1647.21	7.56893
1647.47	8.56672
1647.73	9.55894
1647.99	8.58258
1648.25	9.57567
1648.51	8.59612
1648.77	7.61433
1649.03	6.63137
1649.29	9.59047
1649.55	7.62358
1649.82	8.60734
1650.08	6.63632
1650.34	8.6084
1650.6	7.62621
1650.86	8.61572
1651.12	7.63611
1651.38	10.5966
1651.64	9.61488
1651.9	11.5911
1652.16	11.5983
1652.42	9.63594
1652.68	9.64782
1652.94	8.67427
1653.2	9.66978
1653.46	7.7025
1653.72	11.6556
1653.98	5.73647
1654.24	5.73795
1654.5	8.69915
1654.76	6.72506
1655.02	6.72598
1655.28	6.72645
1655.54	5.73935
1655.81	8.69785
1656.07	12.6418
1656.33	5.73608
1656.58	11.6514
1656.84	7.70516
1657.11	7.70394
1657.37	7.70919
1657.63	5.74357
1657.89	6.73653
1658.15	4.77132
1658.41	8.72502
1658.67	8.73255
1658.93	8.73873
1659.19	8.73306
1659.45	9.71946
1659.71	8.78453
1659.97	9.79225
1660.23	7.80524
1660.49	9.78409
1660.75	9.757
1661.01	7.75617
1661.27	7.78153
1661.53	8.77601
1661.79	6.81005
1662.05	5.83791
1662.31	6.82605
1662.57	7.77551
1662.83	7.79158
1663.09	8.83408
1663.35	8.83732
1663.61	4.88832
1663.87	4.81392
1664.13	4.80652
1664.39	6.8274
1664.65	7.81123
1664.91	5.83698
1665.17	5.83607
1665.43	7.80829
1665.69	6.82744
1665.95	4.8715
1666.21	5.8718
1666.47	6.86407
1666.72	8.84307
1666.99	6.87136
1667.25	6.86909
1667.51	6.87647
1667.76	7.88345
1668.02	3.93585
1668.28	7.88976
1668.54	5.91416
1668.8	7.89239
1669.06	2.95557
1669.32	7.90219
1669.58	6.91728
1669.84	5.93102
1670.1	10.8766
1670.36	8.90329
1670.62	5.94157
1670.88	6.93506
1671.14	1.99688
1671.4	5.95854
1671.66	4.97517
1671.92	4.98137
1672.18	6.96815
1672.44	8.95347
1672.7	6.9792
1672.96	5.00251
1673.22	6.98417
1673.48	7.97808
1673.74	7.98228
1674	6.00614
1674.25	6.00825
1674.51	3.04037
1674.77	6.00964
1675.03	7.98727
1675.29	5.01675
1675.55	7.98117
1675.81	4.02402
1676.07	6.98989
1676.33	2.04664
1676.59	4.0248
1676.85	6.9903
1677.11	4.02558
1677.37	8.96783
1677.63	4.02691
1677.89	7.97956
1678.15	5.01627
1678.4	6.99398
1678.66	7.98435
1678.92	5.02326
1679.18	3.05029
1679.44	6.01716
1679.7	6.02022
1679.96	7.99779
1680.22	1.08481
1680.48	4.05105
1680.74	8.00517
1681	5.04349
1681.25	4.05644
1681.51	8.00654
1681.77	3.06959
1682.03	3.07137
1682.29	2.08606
1682.55	3.07602
1682.81	3.07882
1683.07	3.08189
1683.33	5.06054
1683.59	7.04159
1683.84	5.07354
1684.1	6.06634
1684.36	6.06907
1684.62	7.05748
1684.88	4.09416
1685.14	6.06965
1685.4	2.12005
1685.66	0.145674
1685.92	2.11959
1686.18	6.06624
1686.43	4.09106
1686.69	5.07639
1686.95	3.10121
1687.21	6.05799
1687.47	6.06267
1687.73	3.11076
1687.99	2.12965
1688.25	4.10766
1688.51	4.11153
1688.76	7.07836
1689.02	5.10884
1689.28	4.1244
1689.54	4.12564
1689.8	3.13766
1690.06	5.10926
1690.32	4.11996
1690.58	4.11627
1690.84	4.11197
1691.09	5.09665
1691.35	5.09429
1691.61	0.166519
1691.87	-0.818058
1692.13	2.14038
1692.39	3.12984
1692.64	4.119
1692.9	4.12332
1693.16	5.11319
1693.42	5.11998
1693.68	0.196922
1693.94	2.1701
1694.2	1.18512
1694.46	3.15404
1694.71	3.15087
1694.97	1.17867
1695.23	3.14646
1695.49	4.12989
1695.75	3.14488
1696.01	4.12902
1696.26	7.08244
1696.52	4.13326
1696.78	6.10553
1697.04	3.15648
1697.3	5.12697
1697.56	3.15785
1697.81	4.14389
1698.07	3.16189
1698.33	-0.771408
1698.59	2.18027
1698.85	-1.75423
1699.11	3.16134
1699.37	2.1771
1699.62	0.210129
1699.88	-0.772612
1700.14	3.15998
1700.4	4.14465
1700.66	5.12838
1700.91	3.16423
1701.17	5.13159
1701.43	2.18939
1701.69	3.17718
1701.95	1.21497
1702.21	0.234156
1702.46	2.20131
1702.72	0.239153
1702.98	3.18878
1703.24	3.18783
1703.5	5.15013
1703.75	7.11102
1704.01	2.19897
1704.27	1.21542
1704.53	3.17606
1704.79	1.2108
1705.04	1.20725
1705.3	4.14467
1705.56	4.13976
1705.82	2.17509
1706.08	1.19233
1706.33	4.12838
1706.59	3.14933
1706.85	3.151
1707.11	2.17486
1707.37	5.11511
1707.62	1.20288
1707.88	4.14547
1708.14	3.17215
1708.4	3.17713
1708.66	0.243681
1708.91	1.22732
1709.17	2.20941
1709.43	2.20909
1709.69	2.2049
1709.95	0.241856
1710.2	3.17071
1710.46	4.14352
1710.72	3.15945
1710.98	3.15555
1711.23	1.20093
1711.49	1.20139
1711.75	2.17941
1712.01	2.18118
1712.27	-1.72273
1712.52	0.238657
1712.78	3.17536
1713.04	1.2234
1713.3	2.20129
1713.55	1.22391
1713.81	2.19871
1714.07	-1.70995
1714.33	2.19027
1714.58	0.232771
1714.84	3.15075
1715.1	0.221153
1715.36	2.16484
1715.61	3.13549
1715.87	1.18652
1716.13	4.10837
1716.39	1.19049
1716.64	1.19283
1716.9	1.19437
1717.16	1.20004
1717.42	-0.744734
1717.68	1.20299
1717.93	1.20184
1718.19	2.17172
1718.45	1.19809
1718.71	1.1966
1718.96	-0.750118
1719.22	2.16479
1719.48	-2.69761
1719.74	-0.755409
1719.99	1.18625
1720.25	3.12753
1720.51	-0.757624
1720.76	3.12762
1721.02	-1.72446
1721.28	1.18928
1721.54	0.220423
1721.79	4.10224
1722.05	0.216728
1722.31	1.18165
1722.56	0.20796
1722.82	3.11171
1723.08	2.14096
1723.34	2.1422
1723.59	-1.72977
1723.85	1.17819
1724.11	3.11494
1724.37	3.11068
1724.62	-1.72793
1724.88	3.12226
1725.14	0.216621
1725.39	1.18379
1725.65	0.206581
1725.91	5.01329
1726.17	1.12414
1726.42	1.12204
1726.68	-0.7941
1726.94	0.183472
1727.19	-0.777348
1727.45	0.181416
1727.71	-3.68142
1727.96	0.187599
1728.22	1.17265
1728.48	-1.72276
1728.74	1.17961
1728.99	4.08113
1729.25	0.216848
1729.51	1.1841
1729.76	2.1507
1730.02	-0.747917
1730.28	3.11367
1730.53	-0.752502
1730.79	2.13788
1731.05	3.09752
1731.3	0.200527
1731.56	1.16142
1731.82	2.12154
1732.08	3.08104
1732.33	1.15068
1732.59	1.14839
1732.85	-2.70352
1733.1	0.184929
1733.36	1.14853
1733.62	-0.775715
1733.87	-0.775265
1734.13	0.187157
1734.39	-0.774799
1734.64	0.187628
1734.9	0.187819
1735.16	0.187012
1735.41	0.185772
1735.67	-1.7376
1735.93	-1.73846
1736.18	3.06349
1736.44	-1.74231
1736.7	3.05349
1736.95	0.167765
1737.21	0.1628
1737.47	0.158657
1737.72	1.11448
1737.98	3.0293
1738.24	1.11095
1738.49	1.10946
1738.75	2.06595
1739.01	3.02321
1739.26	0.151676
1739.52	1.11096
1739.78	2.06906
1740.03	3.98423
1740.29	2.07159
1740.54	2.0739
1740.8	-1.7543
1741.06	1.11505
1741.31	3.02835
1741.57	-0.798443
1741.83	1.11681
1742.08	3.9891
1742.34	1.12281
1742.6	2.08187
1742.85	3.03964
1743.11	0.170256
1743.36	0.168859
1743.62	-1.74524
1743.88	0.163328
1744.13	2.07304
1744.39	-1.7511
1744.65	-1.75154
1744.9	1.11073
1745.16	1.11233
1745.42	0.160297
1745.67	1.118
1745.93	2.07633
1746.18	3.03532
1746.44	2.08609
1746.7	-1.72757
1746.95	1.14426
1747.21	-0.759266
1747.46	-1.70801
1747.72	2.12138
1747.98	1.16936
1748.23	-0.737587
1748.49	3.08892
1748.74	-1.69138
1749	-0.738401
1749.26	-0.740932
1749.51	-0.742085
1749.77	0.211596
1750.02	3.0739
1750.28	-0.745817
1750.54	1.16212
1750.79	1.1615
1751.05	2.11469
1751.31	0.205252
1751.56	-0.749475
1751.82	0.20396
1752.07	-1.70238
1752.33	2.11088
1752.59	-0.748327
1752.84	1.15677
1753.1	2.10766
1753.35	3.05747
1753.61	1.14977
1753.86	2.09784
1754.12	0.191023
1754.38	0.189133
1754.63	3.04295
1754.89	2.09294
1755.14	-0.755308
1755.4	-1.69991
1755.66	1.15855
1755.91	1.16157
1756.17	1.16443
1756.42	-0.73558
1756.68	2.12248
1756.93	2.12439
1757.19	0.222351
1757.44	0.223303
1757.7	0.224035
1757.96	3.07792
1758.21	1.17461
1758.47	0.222467
1758.72	0.222015
1758.98	-1.67864
1759.23	1.17426
1759.49	1.17755
1759.75	1.18323
1760	1.18751
1760.26	-0.711706
1760.51	-1.66027
1760.77	1.19558
1761.02	-0.702101
1761.28	-0.697472
1761.53	0.26166
1761.79	1.22136
1762.05	-2.58011
1762.3	0.280006
1762.56	0.284184
1762.81	1.23991
1763.07	-0.66116
1763.32	-1.61079
1763.58	0.295002
1763.83	1.24776
1764.09	1.24957
1764.34	-0.652382
1764.6	-0.651552
1764.85	3.15464
1765.11	0.299973
1765.37	-1.60295
1765.62	-3.50353
1765.88	0.301195
1766.13	-1.60721
1766.39	0.2871
1766.64	-2.56974
1766.9	-0.671053
1767.15	-2.5668
1767.41	-3.5089
1767.66	1.24574
1767.92	1.24872
1768.17	2.20331
1768.43	0.312149
1768.68	-0.630329
1768.94	1.2747
1769.19	-1.574
1769.45	1.28518
1769.7	1.29168
1769.96	-1.55765
1770.21	-1.55323
1770.47	1.30634
1770.72	2.2626
1770.98	0.363098
1771.23	-1.53707
1771.49	-0.581705
1771.74	2.27809
1772	2.28362
1772.26	-0.569296
1772.51	-1.51517
1772.76	-0.551931
1773.02	1.3605
1773.27	-0.541742
1773.53	-3.39915
1773.78	0.415262
1774.04	3.27436
1774.29	1.36723
1774.55	1.36732
1774.8	2.31871
1775.06	1.36483
1775.31	1.36354
1775.57	0.410019
1775.82	-0.543861
1776.08	1.35707
1776.33	-0.548481
1776.59	5.15983
1776.84	1.3581
1777.1	-0.538166
1777.35	0.417063
1777.61	0.420837
1777.86	-0.527016
1778.12	0.428694
1778.37	1.38351
1778.63	0.43487
1778.88	1.3913
1779.13	-1.46049
1779.39	1.40245
1779.65	2.36161
1779.9	-0.491697
1780.15	-3.34625
1780.41	1.42315
1780.66	-0.47839
1780.92	-0.473709
1781.17	0.484797
1781.43	-3.32386
1781.68	1.45138
1781.94	0.502254
1782.19	0.505613
1782.45	-1.40067
1782.7	-2.35365
1782.95	0.508633
1783.21	-1.39819
1783.46	-2.34929
1783.72	3.37887
1783.97	1.47652
1784.23	-0.425541
1784.48	-1.37276
1784.74	1.50261
1784.99	0.561161
1785.24	-0.380714
1785.5	-3.23895
1785.75	3.46926
1786.01	-1.31201
1786.26	3.48406
1786.52	-2.25493
1786.77	1.58379
1787.03	-3.20376
1787.28	-0.32373
1787.54	-0.319887
1787.79	-0.31806
1788.04	-1.27517
1788.3	-1.28094
1788.55	-2.24326
1788.81	3.50345
1789.06	0.631285
1789.31	-1.28143
1789.57	2.55208
1789.82	1.59836
1790.08	-0.313223
1790.33	2.56441
1790.59	-2.224
1790.84	0.653845
1791.09	1.6156
1791.35	-1.25587
1791.6	-0.29747
1791.86	-1.2554
1792.11	2.59051
1792.36	-0.270548
1792.62	-2.18022
1792.87	-0.255039
1793.13	0.710133
1793.38	2.63619
1793.64	1.68176
1793.89	3.60913
1794.14	-2.14961
1794.4	2.66049
1794.65	-1.17908
1794.9	2.67031
1795.16	2.67459
1795.41	-0.206196
1795.67	-0.20335
1795.92	-0.201595
1796.17	-3.08546
1796.43	-0.201216
1796.68	-5.00846
1796.94	1.71792
1797.19	-0.205162
1797.44	1.71575
1797.7	1.71549
1797.95	-4.04757
1798.21	-0.204342
1798.46	2.6786
1798.71	-1.1613
1798.97	1.72305
1799.22	-2.11608
1799.47	0.769724
1799.73	2.69611
1799.98	0.779573
1800.24	1.74665
1800.49	-4.97754
1800.74	-2.08877
1801	-2.08589
1801.25	1.76386
1801.5	3.69288
1801.76	-0.149521
1802.01	0.817873
1802.27	0.824324
1802.52	-0.131874
1802.77	-1.08875
1803.03	-1.08348
1803.28	-0.115431
1803.53	-5.89223
1803.79	2.78433
1804.04	1.82381
1804.29	0.862171
1804.55	0.86405
1804.8	0.865862
1805.05	0.86791
1805.31	3.76158
1805.56	0.872272
1805.81	-1.0532
1806.07	2.805
1806.32	1.84356
1806.58	1.84595
1806.83	2.81267
1807.08	-1.0413
1807.34	-1.03911
1807.59	-0.0733032
1807.84	-0.0727272
1808.1	-1.99997
1808.35	-0.0703373
1808.6	-1.03314
1808.86	0.896492
1809.11	-1.99368
1809.36	-1.02681
1809.62	-3.91596
1809.87	-2.94773
1810.12	0.914968
1810.38	1.88323
1810.63	0.921757
1810.88	1.89149
1811.14	-0.0323696
1811.39	2.87024
1811.64	-1.95021
1811.9	-3.87633
1812.15	1.92531
1812.4	-2.90237
1812.65	-0.000383377
1812.91	0.968502
1813.16	0.00455093
1813.41	1.94002
1813.67	0.0102882
1813.92	1.94516
1814.17	1.94613
1814.43	1.94196
1814.68	1.93368
1814.93	1.93161
1815.19	2.90082
1815.44	1.94067
1815.69	0.981749
1815.95	0.983633
1816.2	0.0187397
1816.45	0.988289
1816.7	-0.940998
1816.96	0.995577
1817.21	0.998901
1817.46	-0.93111
1817.72	1.97386
1817.97	1.97713
1818.22	0.0461082
1818.47	0.0502243
1818.73	0.054491
1818.98	1.99383
1819.23	0.061697
1819.49	2.96843
1819.74	2.00306
1819.99	0.0694942
1820.24	2.00782
1820.5	1.04
1820.75	-0.896255
1821	1.03894
1821.26	1.04079
1821.51	2.01183
1821.76	0.0787277
1822.01	1.04981
1822.27	0.0848484
1822.52	-1.84866
1822.77	1.05877
1823.03	-1.84516
1823.28	0.0928688
1823.53	2.03174
1823.78	0.0963879
1824.04	-1.83891
1824.29	1.0695
1824.54	3.01006
1824.79	1.0761
1825.05	2.04794
1825.3	0.110645
1825.55	-1.82652
1825.8	-1.82745
1826.06	-3.76577
1826.31	1.07711
1826.56	2.04633
1826.81	3.01503
1827.07	2.04648
1827.32	-1.82839
1827.57	3.01218
1827.82	-2.79753
1828.08	1.07709
1828.33	0.112499
1828.58	0.116035
1828.83	2.0568
1829.09	2.06033
1829.34	1.09529
1829.59	-0.838778
1829.84	-1.803
1830.1	-1.80024
1830.35	4.01622
1830.6	4.01819
1830.85	-1.79484
1831.11	2.0844
1831.36	1.11726
1831.61	-0.827522
1831.86	2.06949
1832.12	1.09302
1832.37	0.117905
1832.62	-2.78792
1832.87	2.04527
1833.13	0.112545
1833.38	1.08363
1833.63	0.202412
1833.88	-1.76753
1834.13	1.12292
1834.39	2.08661
1834.64	0.135191
1834.89	2.05972
1835.14	1.07337
1835.39	1.06597
1835.65	0.105278
1835.9	1.10713
1836.15	1.11634
1836.4	0.15435
1836.65	2.09521
1836.91	0.161037
1837.16	1.13161
1837.41	0.14468
1837.66	0.134237
1837.92	0.124815
1838.17	0.116892
1838.42	-0.856798
1838.67	0.102346
1838.92	-0.869164
1839.18	-0.874447
1839.43	3.94395
1839.68	2.01141
1839.93	0.0857887
1840.18	0.0854073
1840.43	2.01716
1840.69	1.0529
1840.94	1.05313
1841.19	1.05232
1841.44	-2.8045
1841.7	-0.872959
1841.95	2.02101
1842.2	0.0905113
1842.45	-0.872728
1842.7	0.0949039
1842.95	-2.79201
1843.2	1.07715
1843.46	3.01925
1843.71	-0.838995
1843.96	1.0784
1844.21	1.05008
1844.46	1.02722
1844.72	-0.901489
1844.97	0.0650063
1845.22	2.00128
1845.47	2.00453
1845.72	1.03351
1845.97	1.03107
1846.23	1.99361
1846.48	1.02716
1846.73	-0.902435
1846.98	0.0550003
1847.23	1.01116
1847.48	0.0440006
1847.74	2.92259
1847.99	0.996462
1848.24	0.032402
1848.49	-0.930653
1848.74	0.0279121
1848.99	0.0269451
1849.25	2.90759
1849.5	2.90804
1849.75	-2.85283
1850	-1.89222
1850.25	0.0279541
1850.5	-2.85322
1850.75	4.82521
1851.01	1.94114
1851.26	0.0167446
1851.51	2.88866
1851.76	1.92521
1852.01	1.92326
1852.26	0.961227
1852.51	-0.00313377
1852.76	-0.00793839
1853.02	1.90594
1853.27	-0.968878
1853.52	0.946604
1853.77	0.947206
1854.02	0.947136
1854.27	1.90428
1854.52	0.944811
1854.78	-0.0145512
1855.03	1.89835
1855.28	1.89526
1855.53	-0.0227318
1855.78	-0.0265923
1856.03	0.926218
1856.28	-0.990953
1856.53	1.87338
1856.79	2.82722
1857.04	-2.90822
1857.29	-0.0401592
1857.54	2.83055
1857.79	1.87902
1858.04	-0.987379
1858.29	-0.0278378
1858.54	-0.980797
1858.79	-0.0214062
1859.04	2.85005
1859.3	-0.979088
1859.55	-0.981966
1859.8	4.75351
1860.05	1.87938
1860.3	-0.0371895
1860.55	0.914757
1860.8	-1.00029
1861.05	1.86313
1861.3	-0.0509109
1861.56	2.81158
1861.81	-0.0569477
1862.06	-2.92498
1862.31	-1.01997
1862.56	-0.0708809
1862.81	1.83081
1863.06	1.82298
1863.31	-0.0913982
1863.56	2.75902
1863.81	0.846083
1864.06	-1.0655
1864.32	4.63674
1864.57	0.823982
1864.82	1.77007
1865.07	0.816772
1865.32	0.814867
1865.57	3.66582
1865.82	-2.98784
1866.07	1.76659
1866.32	-0.135529
1866.57	-2.03787
1866.82	1.76343
1867.07	-1.08926
1867.32	2.71181
1867.57	0.809891
1867.83	-0.141228
1868.08	-1.09202
1868.33	-2.99316
1868.58	0.806507
1868.83	1.75427
1869.08	-0.149372
1869.33	-0.151188
1869.58	0.796577
1869.83	-1.10666
1870.08	2.6877
1870.33	0.78673
1870.58	1.73529
1870.83	-2.06363
1871.08	-3.01535
1871.33	-3.01849
1871.58	-1.12479
1871.84	-0.180847
1872.08	0.76255
1872.33	-0.19067
1872.59	2.64672
1872.84	0.743725
1873.09	0.733305
1873.34	0.727184
1873.59	-0.224516
1873.84	-0.228502
1874.09	-3.06953
1874.34	0.702454
1874.59	2.57768
1874.84	0.673975
1875.09	-2.13084
1875.34	0.756714
1875.59	0.722811
1875.84	1.66562
1876.09	-1.17076
1876.34	2.63332
1876.59	-1.15224
1876.84	-3.05286
1877.09	4.51796
1877.34	-2.11062
1877.59	0.729523
1877.84	-0.215364
1878.09	-3.05962
1878.34	1.67103
1878.59	-2.12302
1878.84	0.705809
1879.09	-0.249233
1879.34	3.5194
1879.59	2.56176
1879.84	-0.281126
1880.1	-2.17494
1880.34	-0.263323
1880.59	2.64195
1880.84	-0.275187
1881.1	0.636669
1881.34	0.64187
1881.59	-2.18265
1881.84	1.58326
1882.1	-0.294798
1882.34	1.59852
1882.59	-0.286427
1882.85	0.661282
1883.1	0.668293
1883.34	-2.16146
1883.59	0.672497
1883.85	2.55654
1884.09	-2.17073
1884.34	0.6563
1884.59	2.53834
1884.84	0.646189
1885.09	1.58377
1885.34	2.51961
1885.59	0.626654
1885.84	-3.1482
1886.09	-1.27015
1886.34	1.54923
1886.59	-0.336092
1886.84	1.54495
1887.09	0.603014
1887.34	-0.336355
1887.59	-0.332582
1887.84	1.55351
1888.09	0.61166
1888.34	-1.27407
1888.59	-1.27554
1888.84	-1.27685
1889.09	-0.336979
1889.34	-0.33814
1889.59	-0.34025
1889.84	-1.28518
1890.09	-0.348598
1890.34	-1.29806
1890.59	2.4531
1890.84	-0.375816
1891.09	-0.374041
1891.34	-1.31689
1891.59	-1.32235
1891.84	2.43232
1892.09	-4.14522
1892.34	0.552137
1892.59	1.49256
1892.83	-2.26482
1893.08	2.43529
1893.33	-1.3224
1893.58	3.38038
1893.83	3.38368
1894.08	-3.19691
1894.33	2.44743
1894.58	0.566942
1894.83	0.566692
1895.08	-0.375227
1895.33	-0.377443
1895.58	-0.380693
1895.83	1.49566
1896.08	0.549957
1896.33	0.544565
1896.58	0.541006
1896.83	-0.401361
1897.08	2.41342
1897.32	-0.407307
1897.57	-1.34782
1897.82	1.47052
1898.07	-0.407146
1898.32	-0.404535
1898.57	2.41765
1898.82	2.42091
1899.07	0.543388
1899.32	0.547585
1899.57	-4.15424
1899.82	1.48807
1900.07	1.4855
1900.31	-1.33919
1900.57	-0.401606
1900.81	-1.34424
1901.06	-1.34621
1901.31	-0.40765
1901.56	0.531046
1901.81	0.52927
1902.06	-3.23319
1902.31	2.40588
1902.56	-0.415657
1902.81	-0.418167
1903.06	4.2714
1903.31	0.50787
1903.55	-3.25254
1903.8	-0.437868
1904.05	0.498568
1904.3	1.43536
1904.55	-2.32081
1904.8	-1.3822
1905.05	1.43812
1905.3	-3.25745
1905.55	-0.439205
1905.79	-4.19742
1906.04	-1.37769
1906.29	0.503788
1906.54	3.32693
1906.79	0.510592
1907.04	0.515238
1907.29	0.520351
1907.54	-2.29813
1907.79	1.47133
1908.04	0.532331
1908.28	-1.35012
1908.53	-0.407967
1908.78	-1.35082
1909.03	1.47362
1909.28	0.528625
1909.53	0.52667
1909.78	-1.35849
1910.03	0.52408
1910.27	2.40659
1910.52	-0.419149
1910.77	-1.35884
1911.02	2.41507
1911.27	-0.408146
1911.52	-1.34891
1911.77	0.539791
1912.02	0.542458
1912.26	2.43171
1912.51	0.545595
1912.76	1.48851
1913.01	0.542641
1913.26	-1.34748
1913.51	1.48129
1913.76	0.53252
1914	-1.35873
1914.25	0.52319
1914.5	0.519329
1914.75	-2.31182
1915	1.45693
1915.25	-0.428591
1915.49	-0.426807
1915.74	0.519316
1915.99	-2.30719
1916.24	-2.30368
1916.49	4.30856
1916.74	-1.34948
1916.99	1.48835
1917.23	0.544748
1917.48	-1.34656
1917.73	2.42819
1917.98	-1.34889
1918.23	1.49009
1918.48	-1.34278
1918.72	1.4942
1918.97	-2.287
1919.22	0.549707
1919.47	1.49358
1919.72	-1.34695
1919.97	1.48522
1920.21	-0.409452
1920.46	0.53298
1920.71	-0.415209
1920.96	0.526691
1921.21	1.46723
1921.46	-0.427502
1921.7	-0.430523
1921.95	0.512526
1922.2	4.29156
1922.45	1.45884
1922.7	2.40717
1922.94	-1.36969
1923.19	-1.36685
1923.44	2.42005
1923.69	0.53182
1923.94	1.48245
1924.19	2.43108
1924.43	-1.35504
1924.68	1.48676
1924.93	2.43474
1925.18	0.541006
1925.43	1.48867
1925.67	0.541182
1925.92	0.54228
1926.17	3.38629
1926.42	0.54495
1926.66	-1.34824
1926.91	-0.396162
1927.16	1.50404
1927.41	0.559393
1927.66	-0.387005
1927.91	-1.33393
1928.15	-1.33498
1928.4	-0.387077
1928.65	5.30557
1928.9	-0.394585
1929.15	2.44871
1929.39	2.44419
1929.64	-0.406883
1929.89	-1.35957
1930.14	1.48399
1930.38	0.531742
1930.63	0.532808
1930.88	2.43605
1931.13	1.49611
1931.37	0.558294
1931.62	1.52463
1931.87	-0.364943
1932.12	-0.354286
1932.37	0.607313
1932.61	-3.20064
1932.86	-1.29402
1933.11	2.50588
1933.36	-1.30824
1933.61	0.59449
1933.85	-5.12705
1934.1	1.53665
1934.35	-2.27933
1934.6	0.572313
1934.84	4.37484
1935.09	-1.34208
1935.34	0.55698
1935.59	1.50905
1935.83	0.561405
1936.08	-1.34289
1936.33	1.51521
1936.58	5.32664
1936.82	-0.38789
1937.07	-2.29289
1937.32	-1.34044
1937.57	3.42784
1937.81	2.48041
1938.06	0.583078
1938.31	1.5402
1938.56	-0.371389
1938.8	2.4854
1939.05	-2.29372
1939.3	1.51252
1939.55	-1.33876
1939.79	1.53753
1940.04	1.53802
1940.29	1.53422
1940.54	0.569235
1940.78	-0.39436
1941.03	1.51085
1941.28	2.47469
1941.52	1.52194
1941.77	1.52438
1942.02	-0.38299
1942.27	1.53018
1942.51	-0.377962
1942.76	1.53595
1943.01	-0.373777
1943.26	2.49594
1943.5	1.5406
1943.75	1.54056
1944	-0.373571
1944.24	0.580109
1944.49	0.576456
1944.74	0.573084
1944.99	0.570883
1945.23	0.568825
1945.48	0.566313
1945.73	-1.34869
1945.97	-0.39274
1946.22	-0.391258
1946.47	1.52378
1946.71	3.44002
1946.96	0.572308
1947.21	0.576317
1947.46	0.582575
1947.7	-1.32794
1947.95	-0.365145
1948.2	1.55799
1948.44	-1.31422
1948.69	0.609272
1948.94	2.53232
1949.19	-3.227
1949.43	-2.26634
1949.68	-0.346006
1949.93	0.613104
1950.17	-4.18826
1950.42	-0.346348
1950.67	3.48767
1950.91	0.595516
1951.16	-0.377489
1951.41	-2.30702
1951.65	1.51662
1951.9	-0.408323
1952.15	1.50379
1952.39	-5.20375
1952.64	-0.412678
1952.89	3.4251
1953.14	1.51664
1953.38	-0.393536
1953.63	-0.390303
1953.88	-0.387526
1954.12	1.5345
1954.37	0.576443
1954.62	-1.34318
1954.86	0.579447
1955.11	2.50185
1955.36	3.46281
1955.6	-0.382481
1955.85	-1.34566
1956.1	3.4555
1956.34	1.52816
1956.59	-2.31874
1956.84	-0.400585
1957.08	-4.24789
1957.33	2.47115
1957.58	0.545141
1957.82	1.49992
1958.07	0.534212
1958.31	0.52898
1958.56	-0.435368
1958.81	0.521309
1959.05	-1.39938
1959.3	3.39813
1959.55	0.51755
1959.79	0.516273
1960.04	3.39462
1960.29	2.43343
1960.53	-0.447809
1960.78	1.47081
1961.03	-2.37009
1961.27	-1.41008
1961.52	-2.37143
1961.77	-1.41402
1962.01	0.503614
1962.26	1.46163
1962.5	2.41939
1962.75	-3.34314
1963	-0.462107
1963.24	0.499998
1963.49	1.46293
1963.74	-1.4183
1963.98	4.34896
1964.23	-0.457771
1964.48	-0.460239
1964.72	1.46091
1964.97	3.38292
1965.21	-0.464037
1965.46	-2.38821
1965.71	0.492828
1965.95	-0.472815
1966.2	0.482401
1966.44	-0.485628
1966.69	-1.4542
1966.94	1.41902
1967.18	-6.26738
1967.43	0.446575
1967.68	-0.517658
1967.92	-1.48266
1968.17	-0.527727
1968.41	0.427496
1968.66	-0.535589
1968.91	1.37959
1969.15	0.420576
1969.4	0.419914
1969.64	-0.541004
1969.89	1.37479
1970.14	-0.548115
1970.38	-0.553772
1970.63	-2.47761
1970.87	-1.52372
1971.12	-1.52784
1971.37	-1.53119
1971.61	-0.57526
1971.86	-1.53563
1972.1	0.380129
1972.35	0.379843
1972.6	0.380335
1972.84	3.25789
1973.09	0.381117
1973.33	0.380634
1973.58	-0.579826
1973.82	0.377701
1974.07	2.29386
1974.32	1.33153
1974.56	2.28685
1974.81	-1.5541
1975.05	3.23518
1975.3	4.18829
1975.55	-0.609699
1975.79	-2.53062
1976.04	0.341887
1976.28	0.340004
1976.53	0.338413
1976.77	1.29475
1977.02	0.334967
1977.26	1.29108
1977.51	1.28612
1977.76	0.321882
1978	-0.641216
1978.25	1.27136
1978.49	-1.60775
1978.74	2.2199
1978.98	1.25872
1979.23	1.25595
1979.48	-0.662884
1979.72	-0.668535
1979.97	0.2836
1980.21	2.19056
1980.46	0.268667
1980.7	1.21985
1980.95	-0.696861
1981.19	1.21256
1981.44	3.12111
1981.69	1.20408
1981.93	-0.712475
1982.18	0.237595
1982.42	3.09804
1982.67	1.18305
1982.91	-1.68586
1983.16	1.18094
1983.4	0.225866
1983.65	1.18275
1983.89	0.225046
1984.14	2.13434
1984.38	5.95877
1984.63	2.12571
1984.88	0.205847
1985.12	0.197063
1985.37	0.187401
1985.61	1.13043
1985.86	-0.794704
1986.1	2.05135
1986.35	-1.77316
1986.59	2.97669
1986.84	0.112984
1987.08	2.96287
1987.33	3.9126
1987.57	-0.845577
1987.82	2.01764
1988.06	-4.64796
1988.31	-1.78786
1988.55	-0.831106
1988.8	-1.76199
1989.04	-2.65904
1989.29	3.83678
1989.53	0.0773411
1989.78	0.105074
1990.02	-0.719782
1990.27	-0.676109
1990.52	1.86485
1990.76	-0.891918
1991.01	-3.38878
1991.25	0.141619
1991.49	-0.654072
1991.74	1.08786
1991.99	1.88522
1992.23	-0.650043
1992.47	-0.717392
1992.72	0.298855
1992.97	1.0493
1993.21	-0.437979
1993.45	0.293398
1993.7	1.64323
1993.95	0.634247
1994.19	0.407627
1994.43	0.124268
1994.68	1.98916
1994.93	-0.0375729
1995.17	-0.696325
1995.41	0.577394
1995.66	-1.47956
1995.9	0.38854
1996.15	-0.229996
1996.39	0.976837
1996.64	1.68559
1996.88	1.53782
1997.13	-0.418489
1997.37	-0.862942
1997.62	-0.420149
1997.86	0.130363
1998.11	0.386427
1998.35	1.90244
1998.6	-0.317823
1998.84	0.309765
1999.09	-1.3551
1999.33	-0.952539
1999.57	-0.0452614
1999.82	0.0400238
2000.06	1.38649
2000.31	0.8752
2000.55	-0.0745087
2000.8	0.38615
2001.04	2.73269
2001.29	0.825529
2001.53	1.79494
2001.78	-0.390907
2002.02	-1.47199
2002.27	2.11662
2002.51	0.268526
2002.75	-0.710011
2003	0.952856
2003.24	-1.43985
2003.49	1.11035
2003.73	0.622345
2003.98	-0.480114
2004.22	-0.196825
2004.47	-0.0821514
2004.71	-0.0852833
2004.95	-1.38827
2005.2	-0.418139
2005.44	2.48001
2005.69	0.189005
2005.93	-0.0563431
2006.18	1.11617
2006.42	-0.218752
2006.66	-0.593538
2006.91	-0.559963
2007.15	-0.630987
2007.4	1.23148
2007.64	0.687737
2007.89	1.14221
2008.13	1.09094
2008.38	-0.156786
2008.62	-0.528902
2008.86	-0.0451622
2009.11	-0.127211
2009.35	-0.650862
2009.6	-1.65519
2009.84	0.533558
2010.08	-0.205513
2010.33	-0.849892
2010.57	-0.0862083
2010.82	0.21166
2011.06	1.18682
2011.3	0.365513
2011.55	0.641111
2011.79	1.2508
2012.04	1.06787
2012.18	1.64814
2012.43	3.52579
2012.68	-1.16605
2012.93	-0.226974
2013.17	1.64794
2013.42	-0.230925
2013.67	-3.03628
2013.91	0.724201
2014.16	-1.15845
2014.41	0.716497
2014.66	0.710087
2014.9	2.58076
2015.15	-1.18474
2015.4	2.5598
2015.64	-3.07898
2015.89	0.664518
2016.14	-2.15747
2016.38	-0.291548
2016.63	1.57597
2016.88	-0.302118
2017.13	1.5673
2017.37	0.628317
2017.62	0.625492
2017.87	-1.25038
2018.11	1.55804
2018.36	-0.315752
2018.61	-2.19078
2018.86	-0.320181
2019.1	-2.1968
2019.35	0.608255
2019.6	-1.26975
2019.84	3.40422
2020.09	-2.21846
2020.34	1.51804
2020.58	-2.22964
2020.83	-0.364973
2021.08	-0.370941
2021.32	-1.31127
2021.57	-1.31848
2021.82	-1.3265
2022.06	-1.33431
2022.31	1.45874
2022.56	0.51758
2022.8	0.510338
2023.05	-1.36345
2023.3	1.43322
2023.54	-1.36074
2023.79	0.514978
2024.04	1.46201
2024.28	-1.32785
2024.53	3.35869
2024.78	-0.386539
2025.02	1.4712
2025.27	1.45128
2025.52	-4.19248
2025.76	0.502205
2026.01	-0.365517
2026.26	0.541485
2026.5	-1.31852
2026.75	-1.34751
2027	-0.435274
2027.24	-0.459908
2027.49	0.470818
2027.74	-0.481522
2027.98	1.39434
2028.23	0.47368
2028.48	0.468605
2028.72	0.467043
2028.97	0.465065
2029.22	0.468853
2029.46	-1.39388
2029.71	4.21476
2029.96	0.483686
2030.2	-0.447363
2030.45	2.35879
2030.69	0.493029
2030.94	-1.3741
2031.19	0.484419
2031.43	-0.46277
2031.68	-1.41814
2031.93	2.30445
2032.17	-1.42058
2032.42	2.31751
2032.66	1.39297
2032.91	0.471861
2033.16	3.28666
2033.4	-0.454351
2033.65	0.467964
2033.9	2.33484
2034.14	-0.465685
2034.39	-0.467453
2034.63	-2.33992
2034.88	1.39662
2035.13	-5.15122
2035.37	-1.41606
2035.62	0.44869
2035.87	0.443939
2036.11	0.439201
2036.36	0.434309
2036.6	2.29716
2036.85	-1.44378
2037.1	0.416626
2037.34	-2.38997
2037.59	0.402956
2037.83	-1.46878
2038.08	-1.4741
2038.33	2.25063
2038.57	-0.549797
2038.82	0.379835
2039.06	0.375881
2039.31	1.3038
2039.56	1.29844
2039.8	2.22627
2040.05	-1.50206
2040.3	1.29294
2040.54	4.09241
2040.79	-4.29139
2041.03	1.30983
2041.28	-0.553505
2041.52	2.24326
2041.77	2.23723
2042.02	0.36203
2042.26	0.344637
2042.51	2.2247
2042.75	1.30197
2043	-0.543173
2043.25	-1.44967
2043.49	1.34593
2043.74	1.32358
2043.98	1.30662
2044.23	-0.562912
2044.47	0.364548
2044.72	1.28133
2044.97	-2.45501
2045.21	2.20497
2045.46	2.20469
2045.7	1.27235
2045.95	1.27301
2046.19	3.14212
2046.44	-0.586077
2046.69	2.21712
2046.93	-2.44398
2047.18	-0.573061
2047.42	0.364828
2047.67	-2.43561
2047.91	0.366892
2048.16	-1.50376
2048.41	-4.31042
2048.65	-2.44833
2048.9	1.2845
2049.14	-0.58387
2049.39	0.351271
2049.63	3.15297
2049.88	1.28609
2050.12	2.22225
2050.37	-1.51237
2050.62	0.359959
2050.86	-3.37244
2051.11	1.30609
2051.35	2.24323
2051.6	-1.49885
2051.84	2.24144
2052.09	-1.50243
2052.33	-1.50447
2052.58	-0.574926
2052.82	-2.44839
2053.07	-0.58032
2053.31	1.2866
2053.56	-0.58642
2053.8	-1.52359
2054.05	-3.39437
2054.3	-1.5253
2054.54	1.27936
2054.79	2.21561
2055.03	0.347734
2055.28	-0.585934
2055.52	-1.5178
2055.77	2.22787
2056.01	-0.576271
2056.26	-0.574169
2056.5	3.17048
2056.75	0.362085
2056.99	-0.574236
2057.24	1.29459
2057.48	0.354757
2057.73	0.350906
2057.97	2.224
2058.22	1.29013
2058.46	3.16382
2058.71	2.22769
2058.95	-0.581638
2059.2	-1.51832
2059.45	2.22744
2059.69	-0.58074
2059.94	-0.579121
2060.18	0.360033
2060.43	0.36253
2060.67	2.23847
2060.92	1.30285
2061.16	-0.570845
2061.4	0.36714
2061.65	-1.50656
2061.9	1.30807
2062.14	1.31157
2062.39	-1.49735
2062.63	-1.49324
2062.88	-0.551069
2063.12	2.26842
2063.37	-1.48517
2063.61	0.393106
2063.86	-3.36254
2064.1	0.395683
2064.34	1.33586
2064.59	1.33769
2064.83	-1.47858
2065.08	0.402754
2065.32	-0.535732
2065.57	-1.47515
2065.81	0.406546
2066.06	0.406738
2066.3	-1.47659
2066.55	0.397461
2066.79	-0.550772
2067.04	-2.43386
2067.28	-1.49415
2067.53	2.27012
2067.77	-0.539873
2068.02	2.29071
2068.26	2.29047
2068.51	-2.41791
2068.75	-1.46185
2069	-0.510546
2069.24	-1.4537
2069.48	0.42753
2069.73	1.36782
2069.97	2.30716
2070.22	-0.518314
2070.46	1.36323
2070.71	0.421759
2070.95	-1.46117
2071.2	1.36408
2071.44	3.24912
2071.69	0.426992
2071.93	1.37366
2072.18	0.437582
2072.42	1.38852
2072.66	1.39875
2072.91	-1.42519
2073.15	-0.47805
2073.4	2.35428
2073.64	-1.42145
2073.89	2.35232
2074.13	2.34765
2074.38	-1.4318
2074.62	0.446022
2074.87	2.32858
2075.11	3.2734
2075.35	2.33464
2075.6	-1.4373
2075.84	-1.43619
2076.09	-0.490522
2076.33	-0.487114
2076.58	1.41057
2076.82	-0.474562
2077.06	0.473032
2077.31	-2.35861
2077.55	2.36837
2077.8	0.478695
2078.04	0.476297
2078.29	2.36422
2078.53	-1.41608
2078.77	0.473228
2079.02	2.36142
2079.26	1.418
2079.51	1.41935
2079.75	1.42038
2080	3.31069
2080.24	2.36515
2080.48	-1.41582
2080.73	2.36291
2080.97	-1.4171
2081.22	0.47296
2081.46	-1.4174
2081.7	-1.41735
2081.95	-0.471951
2082.19	-1.41687
2082.44	-0.472155
2082.68	-1.41714
2082.93	2.36376
2083.17	1.42366
2083.41	2.37577
2083.66	2.38123
2083.9	2.38334
2084.14	1.43966
2084.39	2.38921
2084.63	0.498983
2084.88	0.499044
2085.12	3.33851
2085.36	0.499762
2085.61	1.44707
2085.85	1.44815
2086.1	0.502596
2086.34	2.3988
2086.58	1.45564
2086.83	0.513744
2087.07	0.516191
2087.32	0.517233
2087.56	1.46602
2087.8	2.41543
2088.05	-0.424864
2088.29	0.524984
2088.54	1.47498
2088.78	-3.26007
2089.02	-0.410435
2089.27	-0.404358
2089.51	1.49965
2089.75	0.557657
2090	2.46244
2090.24	1.51828
2090.48	-1.32636
2090.73	2.4793
2090.97	-0.367403
2091.22	2.48836
2091.46	1.53945
2091.7	1.53974
2091.95	-1.31308
2092.19	-2.26477
2092.43	0.584293
2092.68	1.53126
2092.92	3.42885
2093.17	-1.32399
2093.41	0.574879
2093.65	-2.27555
2093.9	0.573921
2094.14	-2.27774
2094.38	-2.28074
2094.63	2.46328
2094.87	-1.3358
2095.11	-1.33648
2095.36	0.561728
2095.6	0.558901
2095.84	0.559336
2096.09	-0.389826
2096.33	0.558458
2096.57	4.35396
2096.82	-1.3401
2097.06	3.40545
2097.3	-1.33867
2097.55	0.560892
2097.79	-0.386269
2098.03	-1.33054
2098.28	-0.37686
2098.52	1.52557
2098.76	-1.32196
2099.01	0.578268
2099.25	-1.32145
2099.5	1.52869
2099.74	1.52819
2099.98	0.575912
2100.22	2.4711
2100.47	-1.32834
2100.71	-1.32816
2100.95	3.41736
2101.2	-0.378742
2101.44	-2.27541
2101.68	-1.32277
2101.93	-0.369844
2102.17	0.583115
2102.41	-0.362856
2102.66	2.49238
2102.9	0.596819
2103.14	2.50054
2103.39	-0.348198
2103.63	0.604168
2103.87	1.55624
2104.12	-1.29346
2104.36	-1.29187
2104.6	0.608423
2104.85	-1.2956
2105.09	0.601198
2105.33	0.596413
2105.57	-0.357931
2105.82	3.43678
2106.06	-3.21084
2106.3	-1.31064
2106.55	-0.356077
2106.79	-1.30074
2107.03	-0.349754
2107.27	-1.29889
2107.52	-0.348118
2107.76	-2.24733
2108	-1.29649
2108.25	1.55415
2108.49	4.40354
2108.73	1.55187
2108.98	-0.348988
2109.22	-0.349255
2109.46	-0.348629
2109.7	2.50306
2109.95	2.50634
2110.19	-3.18994
2110.43	-1.28503
2110.68	2.52133
2110.92	2.52456
2111.16	-2.22762
2111.4	0.622847
2111.65	1.57359
2111.89	0.625021
2112.13	-1.27424
2112.38	1.57704
2112.62	1.57628
2112.86	0.625422
2113.1	1.57495
2113.35	-0.327827
2113.59	1.56904
2113.83	-0.331411
2114.07	-1.281
2114.32	-3.17988
2114.56	0.620197
2114.8	-0.329908
2115.04	0.617668
2115.29	0.615499
2115.53	-2.23539
2115.77	-2.23923
2116.01	-0.345074
2116.26	2.49698
2116.5	1.54547
2116.74	1.54237
2116.99	0.591959
2117.23	0.590187
2117.47	2.48521
2117.71	-1.30334
2117.96	2.49139
2118.2	1.54698
2118.44	-0.343475
2118.68	1.55882
2118.92	-0.332232
2119.17	2.51895
2119.41	-2.21995
2119.65	-0.318041
2119.9	0.634935
2120.14	2.53707
2120.38	-0.307796
2120.62	0.643749
2120.86	-1.25497
2121.11	-0.306345
2121.35	1.59009
2121.59	0.637457
2121.83	-1.26574
2122.08	3.46712
2122.32	-2.22719
2122.56	0.610096
2122.8	3.44632
2123.04	-0.345636
2123.29	2.49002
2123.53	4.3793
2123.77	-1.30036
2124.01	1.53471
2124.26	-2.25084
2124.5	0.585606
2124.74	1.53148
2124.98	0.586409
2125.22	-3.19556
2125.47	0.5858
2125.71	1.53258
2125.95	1.53425
2126.19	-1.3007
2126.44	-1.30062
2126.68	-1.30037
2126.92	-2.24471
2127.16	1.53609
2127.4	-0.353514
2127.65	-2.24314
2127.89	3.42563
2128.13	0.590431
2128.37	-0.355412
2128.61	2.47647
2128.86	-0.35787
2129.1	-0.358179
2129.34	0.585535
2129.58	2.47123
2129.82	-1.30618
2130.06	1.52448
2130.31	-0.361525
2130.55	-1.30278
2130.79	1.53065
2131.03	-1.29848
2131.27	1.53502
2131.52	1.53756
2131.76	1.53873
2132	0.596106
2132.24	3.42836
2132.48	-0.34561
2132.73	-1.28922
2132.97	-2.23383
2133.21	-0.350687
2133.45	-0.354719
2133.69	2.4721
2133.94	1.53168
2134.18	1.53458
2134.42	0.593903
2134.66	-2.23105
2134.9	-1.28271
2135.14	3.43383
2135.39	0.600962
2135.63	2.48359
2135.87	2.48835
2136.11	0.611214
2136.35	3.44761
2136.59	-4.1027
2136.84	2.48993
2137.08	-1.28117
2137.32	-1.282
2137.56	-0.340378
2137.8	-0.340528
2138.04	-1.282
2138.28	-0.339708
2138.53	-1.2795
2138.77	-0.33905
2139.01	0.599993
2139.25	0.59997
2139.49	-1.28078
2139.74	-2.21719
2139.98	-1.27084
2140.22	2.51368
2140.46	-0.316092
2140.7	1.52252
2140.94	1.51842
2141.18	-2.23425
2141.43	2.47393
2141.67	0.602409
2141.91	-0.332033
2142.15	1.54109
2142.39	1.54329
2142.63	2.48687
2142.87	-0.332794
2143.12	0.607908
2143.36	-0.331781
2143.6	-0.331224
2143.84	3.42908
2144.08	1.5493
2144.32	-0.330818
2144.56	1.54793
2144.8	-2.21037
2145.05	0.608082
2145.29	0.607952
2145.53	0.607803
2145.77	1.54645
2146.01	0.606602
2146.25	1.54355
2146.49	-1.27447
2146.73	2.47281
2146.98	1.53202
2147.22	-1.28419
2147.46	1.52653
2147.7	-2.22274
2147.94	-1.28372
2148.18	2.46922
2148.42	-2.21247
2148.66	4.35468
2148.9	-0.328119
2149.15	0.613071
2149.39	1.55658
2149.63	2.49361
2149.87	3.43066
2150.11	2.49128
2150.35	-1.25971
2150.59	2.4903
2150.83	0.616299
2151.07	2.48956
2151.31	-0.323742
2151.56	-0.327633
2151.8	-1.2694
2152.04	1.53341
2152.28	-0.344408
2152.52	4.32716
2152.76	-2.2207
2153	-2.22267
2153.24	-1.2893
2153.48	-2.22308
2153.72	0.580988
2153.97	2.45113
2154.21	-0.348925
2154.45	0.588915
2154.69	-1.27475
2154.93	0.599861
2155.17	-1.26374
2155.41	2.47836
2155.65	-0.323452
2155.89	1.54756
2156.13	2.48288
2156.37	-1.25526
2156.61	-0.321318
2156.86	-0.322519
2157.1	1.54327
2157.34	-2.1942
2157.58	0.605028
2157.82	0.6036
2158.06	2.47012
2158.3	-1.26103
2158.54	2.47208
2158.78	-2.19236
2159.02	0.608225
2159.26	-0.32229
2159.5	0.61322
2159.74	-1.25037
2159.98	-0.316408
2160.22	-0.316381
2160.47	1.54931
2160.71	2.48227
2160.95	-1.24714
2161.19	-2.17898
2161.43	1.54871
2161.67	1.54577
2161.91	-1.25023
2162.15	1.54778
2162.39	1.55264
2162.63	0.623642
2162.87	1.55837
2163.11	4.35678
2163.35	0.629856
2163.59	2.49362
2163.83	-2.16454
2164.07	-0.302473
2164.31	-0.302698
2164.55	-1.2352
2164.79	-3.09918
2165.03	-1.2433
2165.27	-2.17843
2165.51	-0.319387
2165.76	0.612347
2166	1.54568
2166.24	1.55095
2166.48	-1.23244
2166.72	0.635548
2166.96	-4.93881
2167.2	-1.20705
2167.44	1.59341
2167.68	-0.264538
2167.92	0.668337
2168.16	-0.263662
2168.4	-0.262804
2168.64	-1.1977
2168.88	-3.99682
2169.12	0.648149
2169.36	-0.282465
2169.6	1.57555
2169.84	-1.21193
2170.08	-2.13894
2170.32	2.50891
2170.56	-0.27589
2170.8	0.657183
2171.04	-1.19619
2171.28	-2.1211
2171.52	-3.04696
2171.76	-1.18515
2172	-0.253122
2172.24	-0.250662
2172.48	1.60959
2172.72	3.46956
2172.96	0.683846
2173.2	2.54403
2173.44	3.4743
2173.68	-0.242443
2173.92	-0.240934
2174.16	0.690779
2174.4	0.694075
2174.64	-1.16067
2174.88	-1.15833
2175.12	-1.15475
2175.36	2.56227
2175.6	0.702013
2175.84	-1.15623
2176.08	-1.15399
2176.32	-0.221903
2176.56	0.709686
2176.8	-2.07279
2177.04	-0.213032
2177.28	-2.99585
2177.52	-0.207983
2177.76	0.722111
2178	1.65201
2178.24	-1.13072
2178.48	-0.200617
2178.72	0.728245
2178.96	0.728748
2179.2	-0.197321
2179.44	0.731012
2179.68	-0.195868
2179.92	-2.05003
2180.16	0.732271
2180.4	0.730951
2180.64	1.65517
2180.88	2.58051
2181.12	1.65333
2181.35	-1.12665
2181.59	-0.19812
2181.83	-2.04791
2182.07	-0.190105
2182.31	-1.11254
2182.55	-0.181568
2182.79	0.750435
2183.03	-0.170631
2183.27	-2.01882
2183.51	-0.158356
2183.75	-0.150345
2183.99	1.71407
2184.23	5.43594
2184.47	-1.05392
2184.71	0.810429
2184.95	-0.114168
2185.19	1.74432
2185.43	1.74378
2185.67	-1.97075
2185.91	1.74135
2186.15	-0.116484
2186.38	-2.90168
2186.62	-0.121569
2186.86	-0.124006
2187.1	1.73048
2187.34	-0.121588
2187.58	0.808784
2187.82	-1.96811
2188.06	0.817888
2188.3	3.6022
2188.54	-1.95693
2188.78	0.829214
2189.02	1.76127
2189.26	1.76598
2189.5	0.843014
2189.74	-0.0799866
2189.97	0.853643
2190.21	-0.995853
2190.45	0.86606
2190.69	2.72988
2190.93	-0.0447006
2191.17	2.75478
2191.41	2.76484
2191.65	1.84203
2191.89	1.84425
2192.13	0.915121
2192.37	-0.942711
2192.61	0.916157
2192.85	3.70231
2193.08	-0.0162868
2193.32	-0.948195
2193.56	-0.950947
2193.8	-0.952368
2194.04	-0.0250111
2194.28	1.83013
2194.52	1.83003
2194.76	0.905308
2195	0.908878
2195.24	-0.941605
2195.47	0.921057
2195.71	-2.78353
2195.95	-0.919245
2196.19	3.7332
2196.43	1.8847
2196.67	-0.893745
2196.91	0.0445728
2197.15	-0.873997
2197.39	2.86061
2197.63	1.9425
2197.86	-0.84049
2198.1	-0.832275
2198.34	1.97073
2198.58	0.10317
2198.82	1.01847
2199.06	-0.875568
2199.3	0.95594
2199.54	-2.74266
2199.78	-2.71288
2200.01	0.0941753
2200.25	6.60175
2200.49	0.0908928
2200.73	1.03507
2200.97	-0.760691
2201.21	2.01698
2201.45	-1.712
2201.69	2.02506
2201.92	1.08262
2202.16	1.99928
2202.4	0.125204
2202.64	1.04721
2202.88	0.11734
2203.12	1.05007
2203.36	0.127405
2203.59	-2.65831
2203.83	1.9865
2204.07	0.131126
2204.31	1.9964
2204.55	-1.71706
2204.79	1.07983
2205.03	-1.70438
2205.27	0.163252
2205.5	1.10069
2205.74	2.03808
2205.98	3.90619
2206.22	0.186474
2206.46	-3.53468
2206.7	1.1249
2206.93	2.05846
2207.17	1.13062
2207.41	-0.726965
2207.65	-0.721642
2207.89	2.07924
2208.13	-0.710337
2208.37	0.227201
2208.6	1.16531
2208.84	2.10466
2209.08	-0.685883
2209.32	1.18509
2209.56	0.256752
2209.8	2.12397
2210.03	-3.47148
2210.27	-0.67227
2210.51	1.19297
2210.75	0.259777
2210.99	-0.668951
2211.23	0.26976
2211.47	1.21277
2211.7	3.09016
2211.94	3.09528
2212.18	-1.5676
2212.42	2.17058
2212.66	0.307074
2212.89	0.310335
2213.13	-1.55411
2213.37	0.315752
2213.61	0.318031
2213.85	3.12079
2214.09	2.18911
2214.32	-1.54247
2214.56	1.26167
2214.8	0.331692
2215.04	-3.4002
2215.28	-0.596737
2215.51	2.20778
2215.75	2.2125
2215.99	-0.583744
2216.23	-1.51206
2216.47	-0.571985
2216.71	1.30156
2216.94	1.30659
2217.18	-0.557875
2217.42	-0.555494
2217.66	-2.42275
2217.9	-0.551542
2218.13	1.31834
2218.37	2.25081
2218.61	0.380024
2218.85	-1.48897
2219.08	0.377747
2219.32	-1.48898
2219.56	1.3135
2219.8	0.383923
2220.04	0.389166
2220.27	2.26218
2220.51	0.400257
2220.75	-1.46121
2220.99	0.415173
2221.23	0.423466
2221.46	-1.43873
2221.7	-3.3026
2221.94	1.38081
2222.18	0.451874
2222.42	-1.41293
2222.65	-1.4057
2222.89	0.473557
2223.13	1.41664
2223.37	0.486549
2223.6	-0.444975
2223.84	3.31013
2224.08	0.504644
2224.32	-1.36497
2224.55	2.39038
2224.79	-1.35673
2225.03	0.520962
2225.27	-0.4156
2225.5	1.46087
2225.74	0.524477
2225.98	2.40103
2226.22	0.527487
2226.46	1.46737
2226.69	-0.402321
2226.93	-0.395309
2227.17	-2.26481
2227.41	-1.32125
2227.64	2.43828
2227.88	-1.30984
2228.12	0.573923
2228.36	0.580652
2228.59	-2.23048
2228.83	0.593624
2229.07	1.53946
2229.31	1.54567
2229.54	0.611788
2229.78	-0.322689
2230.02	1.56401
2230.26	0.629246
2230.49	-1.24669
2230.73	0.640854
2230.97	1.58702
2231.21	-0.290964
2231.44	-1.2307
2231.68	0.652639
2231.92	2.53492
2232.16	-3.11181
2232.39	-0.292873
2232.63	0.64518
2232.87	-0.292704
2233.11	0.650723
2233.34	-1.22691
2233.58	-1.22372
2233.82	-2.16134
2234.05	-1.21765
2234.29	1.61091
2234.53	-0.264793
2234.77	-2.13875
2235	1.63719
2235.24	-1.17967
2235.48	-0.230331
2235.72	-0.223499
2235.95	-1.15898
2236.19	-0.207485
2236.43	0.739632
2236.66	-0.203089
2236.9	-1.14658
2237.14	-1.14891
2237.37	-2.09376
2237.61	-0.208172
2237.85	0.743786
2238.09	0.753544
2238.32	1.70034
2238.56	-3.01411
2238.8	0.763685
2239.04	-1.12044
2239.27	-2.06078
2239.51	2.66255
2239.75	1.72313
2239.98	-0.162397
2240.22	4.5591
2240.46	2.6705
2240.69	2.66939
2240.93	0.782362
2241.17	-0.159891
2241.4	-0.157377
2241.64	-0.152802
2241.88	1.74257
2242.11	-0.136717
2242.35	2.70645
2242.59	1.76823
2242.83	-1.06196
2243.06	2.72558
2243.3	-0.105473
2243.54	1.79128
2243.77	-1.04285
2244.01	-0.0923328
2244.25	2.75118
2244.48	-1.03044
2244.72	0.86512
2244.96	-1.02614
2245.19	-1.97158
2245.43	-0.0779953
2245.67	1.81534
2245.91	-0.0764389
2246.14	-0.0756264
2246.38	1.81779
2246.61	1.82278
2246.85	-0.0658455
2247.09	3.72168
2247.32	-2.9037
2247.56	2.77231
2247.8	2.76983
2248.03	0.87516
2248.27	0.873413
2248.51	3.70886
2248.74	0.873035
2248.98	-0.0700874
2249.22	-1.0121
2249.45	0.883581
2249.69	-2.89472
2249.93	1.84268
2250.16	-0.0387497
2250.4	1.86408
2250.64	1.87151
2250.87	2.82546
2251.11	-1.90824
2251.35	-0.955626
2251.58	1.89274
2251.82	-0.949789
2252.06	-0.94981
2252.29	0.000589371
2252.53	-1.89406
2252.77	1.90084
2253	0.00671005
2253.24	0.959541
2253.48	-0.932636
2253.71	3.81569
2253.95	2.87171
2254.18	0.0293465
2254.42	0.982925
2254.66	1.93671
2254.89	0.990824
2255.13	-0.905869
2255.37	0.995583
2255.6	4.79708
2255.84	-3.74772
2256.08	1.0054
2256.31	1.95967
2256.55	-0.887642
2256.78	-0.884916
2257.02	0.0687695
2257.26	0.0719814
2257.49	2.92691
2257.73	-1.82341
2257.96	0.0820026
2258.2	0.0888672
2258.44	1.04534
2258.67	0.0961533
2258.91	-2.75607
2259.15	-1.80202
2259.38	0.103941
2259.62	1.05946
2259.85	0.112564
2260.09	1.06995
2260.33	-1.78144
2260.56	1.08304
2260.8	-1.76874
2261.03	2.05285
2261.27	-1.75419
2261.51	2.06949
2261.74	-0.787254
2261.98	1.12752
2262.21	0.177532
2262.45	1.13699
2262.69	-1.72687
2262.92	1.14063
2263.16	1.14028
2263.39	1.13728
2263.63	-0.775639
2263.87	-1.73334
2264.1	2.08149
2264.34	0.17086
2264.57	-1.7389
2264.81	-3.64823
2265.05	2.07179
2265.28	-2.6983
2265.52	1.1156
2265.75	1.11708
2265.99	-0.786715
2266.22	0.171591
2266.46	1.13137
2266.7	0.183161
2266.93	3.0535
2267.17	-2.66869
2267.4	0.203009
2267.64	3.07395
2267.87	4.03305
2268.11	-1.6967
2268.35	1.1752
2268.58	-0.733965
2268.82	-1.68717
2269.05	-0.726799
2269.29	2.14568
2269.53	-0.723124
2269.76	3.1053
2270	0.236835
2270.23	2.1523
2270.47	1.1972
2270.7	1.19894
2270.94	0.243668
2271.18	-0.711802
2271.41	0.246771
2271.65	1.20558
2271.88	-0.707211
2272.12	-1.66268
2272.35	1.21099
2272.59	0.255445
2272.82	1.21285
2273.06	0.258606
2273.3	-0.694309
2273.53	2.18463
2273.77	-0.685202
2274	1.23573
2274.24	-1.63562
2274.47	0.288204
2274.71	0.295408
2274.94	-0.656811
2275.18	0.311256
2275.41	-0.645859
2275.65	-0.644081
2275.88	-0.643381
2276.12	0.316893
2276.36	1.27661
2276.59	0.313578
2276.83	4.14505
2277.06	4.13914
2277.3	0.296658
2277.53	0.292881
2277.77	-2.58679
2278	0.287552
2278.24	-1.63107
2278.47	0.284267
2278.71	-0.675587
2278.94	-2.59043
2279.18	0.286793
2279.41	-1.62783
2279.65	0.293564
2279.89	-2.57951
2280.12	0.302454
2280.36	-1.61153
2280.59	2.23533
2280.83	1.28437
2281.06	1.29264
2281.3	0.340399
2281.53	-0.616152
2281.77	3.23332
2282	-1.57186
2282.24	-0.605726
2282.47	1.32051
2282.71	-1.56583
2282.94	0.355413
2283.18	-1.57502
2283.41	-0.613594
2283.65	-1.57407
2283.88	-2.53342
2284.12	1.32377
2284.35	4.22007
2284.59	0.371367
2284.82	1.33655
2285.06	-1.54834
2285.29	-2.51277
2285.53	2.30121
2285.76	2.29833
2286	-0.593903
2286.23	-1.56167
2286.47	0.356924
2286.7	-1.57302
2286.94	2.26647
2287.17	-0.620592
2287.41	1.30034
2287.64	-2.54494
2287.88	-2.54465
2288.11	1.30358
2288.35	2.27033
2288.58	1.3149
2288.82	2.28155
2289.05	1.32249
2289.28	-2.52501
2289.52	-1.55931
2289.75	4.22315
2289.99	-2.5154
2290.22	-0.585789
2290.46	0.380369
2290.69	-0.581486
2290.93	0.38331
2291.16	-0.581913
2291.4	1.34331
2291.63	2.30384
2291.87	-2.51686
2292.1	-0.592697
2292.34	-0.595201
2292.57	0.365204
2292.81	1.32538
2293.04	7.09934
2293.28	-2.53159
2293.51	2.27259
2293.74	2.27127
2293.98	-0.613707
2294.21	0.350803
2294.45	-0.608522
2294.68	-0.6049
2294.92	-0.60034
2295.15	-1.55804
2295.39	0.372383
2295.62	-0.588942
2295.86	-1.54968
2296.09	-1.5458
2296.32	0.386171
2296.56	2.31822
2296.79	1.35537
2297.03	-0.57445
2297.26	1.3547
2297.5	-0.575321
2297.73	0.39113
2297.97	-2.50079
2298.2	-0.569017
2298.43	-1.53253
2298.67	1.36404
2298.9	-0.566366
2299.14	-0.567179
2299.37	-0.569017
2299.61	0.394611
2299.84	1.35989
2300.07	-1.5362
2300.31	-1.53743
2300.54	0.392117
2300.78	1.35722
2301.01	0.393572
2301.25	0.396341
2301.48	4.26101
2301.71	-0.565042
2301.95	-2.4945
2302.18	1.37193
2302.42	-0.558397
2302.65	1.37443
2302.89	2.3419
2303.12	-1.52136
2303.35	4.27927
2303.59	0.413733
2303.82	-0.552811
2304.05	-2.48653
2304.29	-2.48738
2304.52	0.410234
2304.76	-1.52508
2304.99	-2.49293
2305.23	-1.5285
2305.46	-0.564121
2305.69	0.401608
2305.93	-2.49645
2306.16	1.37074
2306.4	0.407127
2306.63	1.37801
2306.86	-1.51746
2307.1	-0.547087
2307.33	1.38895
2307.57	-0.545666
2307.8	1.38826
2308.03	2.3532
2308.27	-1.52007
2308.5	-4.42914
2308.74	0.39142
2308.97	-0.580864
2309.2	1.34507
2309.44	0.376762
2309.67	-0.591791
2309.91	1.33538
2310.14	2.29964
2310.37	0.371641
2310.61	-0.588514
2310.84	0.383465
2311.07	1.35444
2311.31	0.393448
2311.54	0.398642
2311.78	0.405096
2312.01	0.410879
2312.24	1.38113
2312.48	-2.49306
2312.71	1.37071
2312.94	-1.53377
2313.18	-1.53843
2313.41	-0.581532
2313.65	1.34474
2313.88	-0.589426
2314.11	0.375471
2314.35	0.376141
2314.58	-1.5545
2314.81	2.31334
2315.05	1.35052
2315.28	1.3438
2315.51	-1.55658
2315.75	-0.593447
2315.98	3.26513
2316.22	0.365721
2316.45	-0.60227
2316.68	1.32558
2316.92	-1.57077
2317.15	-0.606005
2317.38	-2.53566
2317.62	-0.606068
2317.85	0.360435
2318.08	-1.56746
2318.32	-3.4957
2318.55	1.33456
2318.78	1.33855
2319.02	1.34382
2319.25	1.34963
2319.48	0.38784
2319.72	0.389551
2319.95	1.35531
2320.19	0.389341
2320.42	2.32425
2320.65	0.391594
2320.89	1.35974
2321.12	3.29427
2321.35	3.29333
2321.58	-0.575338
2321.82	2.3205
2322.05	2.31429
2322.28	-1.55703
2322.52	3.26831
2322.75	0.367313
2322.98	1.32922
2323.22	-0.60515
2323.45	1.3213
2323.68	2.28207
2323.92	5.17171
2324.15	0.344717
2324.38	3.23341
2324.62	4.19449
2324.85	-0.628578
2325.08	4.18862
2325.32	5.15372
2325.55	8.04567
2325.78	5.15487
2326.02	5.15047
2326.25	8.03683
2326.48	9.95671
2326.71	14.7703
2326.95	20.548
2327.18	35.0024
2327.41	47.5206
2327.65	61.9626
2327.88	56.1775
2328.11	48.4715
2328.35	29.2151
2328.58	21.5168
2328.81	12.8533
2329.05	11.8976
2329.28	8.03636
2329.51	8.99498
2329.75	3.21338
2329.98	7.06267
2330.21	0.320442
2330.44	3.20671
2330.68	-1.60783
2330.91	1.27868
2331.14	1.27666
2331.38	-0.650249
2331.61	-0.654034
2331.84	1.26769
2332.07	1.26645
2332.31	0.304873
2332.54	1.26623
2332.77	1.26776
2333	-0.65357
2333.24	0.308399
2333.47	-0.654264
2333.7	2.23017
2333.94	0.307184
2334.17	1.2689
2334.4	-3.53825
2334.63	3.19188
2334.87	2.22981
2335.1	0.306957
2335.33	-1.61521
2335.56	-0.653751
2335.8	-1.61429
2336.03	-1.61254
2336.26	0.311438
2336.5	2.23499
2336.73	-1.60915
2336.96	2.23524
2337.19	4.15606
2337.43	0.310354
2337.66	0.308643
2337.89	-1.61491
2338.12	-0.657789
2338.36	-0.661829
2338.59	-1.62634
2338.82	2.20756
2339.05	1.24645
2339.29	-0.672977
2339.52	2.20235
2339.75	4.11912
2339.98	2.20228
2340.22	-1.63078
2340.45	-0.670256
2340.68	1.24784
2340.91	-0.668179
2341.15	0.292473
2341.38	2.21282
2341.61	-0.660536
2341.84	-0.659077
2342.08	-1.61677
2342.31	0.300512
2342.54	0.299658
2342.77	1.25514
2343.01	-0.661959
2343.24	0.29475
2343.47	-0.661949
2343.7	-1.61824
2343.93	0.298384
2344.17	-1.61582
2344.4	0.300129
2344.63	1.25961
2344.86	-2.56718
2345.1	-0.648758
2345.33	1.27106
2345.56	0.317463
2345.79	1.2777
2346.03	2.2362
2346.26	1.27817
2346.49	-1.59822
2346.72	1.26764
2346.95	-2.56353
2347.19	1.25271
2347.42	0.287066
2347.65	1.22036
2347.88	-0.719673
2348.12	0.264214
2348.35	1.28517
2348.58	-1.56522
2348.81	1.27098
2349.04	0.299322
2349.28	-0.6499
2349.51	1.26476
2349.74	-2.55949
2349.97	-0.663408
2350.2	0.280684
2350.44	0.289167
2350.67	0.291126
2350.9	0.291393
2351.13	-1.60947
2351.36	3.15586
2351.6	-0.645672
2351.83	0.315012
2352.06	1.27131
2352.29	0.321289
2352.52	1.27653
2352.76	-0.626398
2352.99	-0.624191
2353.22	-0.6229
2353.45	0.328035
2353.68	0.32394
2353.92	0.321735
2354.15	-1.57953
2354.38	0.324099
2354.61	-1.57571
2354.84	-0.622772
2355.07	1.28057
2355.31	2.23381
2355.54	0.336405
2355.77	-0.612574
2356	-0.609297
2356.23	5.09434
2356.46	-0.601318
2356.7	-1.54798
2356.93	-0.595856
2357.16	1.30466
2357.39	-0.592703
2357.62	-1.54014
2357.86	-0.58952
2358.09	1.30918
2358.32	0.361952
2358.55	-1.53291
2358.78	-1.53111
2359.01	-0.581812
2359.25	-1.52791
2359.48	-2.47318
2359.71	1.31701
2359.94	1.31941
2360.17	0.37575
2360.4	-0.567038
2360.63	2.27608
2360.87	1.33422
2361.1	-0.553631
2361.33	-0.549438
2361.56	2.29197
2361.79	0.404594
2362.02	1.35506
2362.26	-2.42298
2362.49	-2.41909
2362.72	-1.47427
2362.95	-0.532549
2363.18	0.410551
2363.41	-0.528028
2363.64	0.422123
2363.88	0.43084
2364.11	0.446114
2364.34	-2.36957
2364.57	2.36996
2364.8	-0.458944
