#Acq. time (s)=	30
#Accumulations=	2
#Range (cm-¹)=	1200...2365
#Windows=	3
#Auto scanning=	Off
#Autofocus=	Off
#Macrospot=	Off
#AutoExposure=	Off
#Spike filter=	Multiple accum.
#Delay time (s)=	2
#Binning=	1
#Readout mode=	Signal
#DeNoise=	Off
#ICS correction=	On
#Dark correction=	Off
#Inst. Process=	Off
#Detector Gain=	Best Dynamic
#Detector ADC=	50 kHz HS
#Detector temperature (°C)=	-60.09
#Instrument=	LabRAM HR Evol
#Detector=	SIN-EM FIVIS
#Objective=	x100_VIS_LWD
#Grating=	1800 (450-850nm)
#ND Filter=	100%
#Laser=	532nm_Edge
#Hole=	100.021
#Temperature=	0
#Range=	Visible
#StageXY=	75x50mm Scan+
#StageZ=	Z motor
#X (µm)=	0
#Y (µm)=	0
#Z (µm)=	-14.5
#Full time(mm:ss)=	3:20
#Project=	21_11_26
#Sample=	BU19(2)w
#Site=	
#Title=	BU19(2)w-A-FF1-FI04-V_1800 (450-850nm)_532nm_Edge_100%_x100_VIS_LWD_H100um_30sX2
#Remark=	
#Date=	26.11.2021 13:26
#Acquired=	26.11.2021 13:26:35
#Base:Fit=	16.12.2021 16:00:56
#Base:Fit=	16.12.2021 16:06:18
#Base:Sub=	16.12.2021 16:06:18
1202.72	12.3732
1203	7.70782
1203.28	17.6642
1203.56	-6.1463
1203.84	-11.7014
1204.11	-4.23895
1204.39	0.0258179
1204.67	19.5107
1204.95	2.47223
1205.23	12.182
1205.5	9.98907
1205.78	7.78333
1206.06	25.9532
1206.34	-19.2111
1206.61	8.60272
1206.89	11.731
1207.17	-14.0769
1207.45	-1.2724
1207.73	8.36197
1208	15.8543
1208.28	-15.1605
1208.56	7.32806
1208.84	-1.2608
1209.11	-10.9055
1209.39	13.677
1209.67	-4.46271
1209.95	-9.73956
1210.23	-3.27759
1210.5	-13.964
1210.78	8.39334
1211.06	10.4467
1211.34	1.85226
1211.61	-2.49078
1211.89	10.2689
1212.17	-14.3495
1212.45	-0.565704
1212.72	0.462555
1213	-5.97672
1213.28	-22.0034
1213.56	-1.77905
1213.83	-4.95932
1214.11	7.79553
1214.39	3.61691
1214.67	-17.6019
1214.94	-16.474
1215.22	5.93753
1215.5	12.3652
1215.78	0.688904
1216.05	-2.48367
1216.33	7.04581
1216.61	-15.3861
1216.89	5.76758
1217.16	8.84595
1217.44	6.64438
1217.72	2.32617
1218	-6.23935
1218.27	-5.22412
1218.55	11.7158
1218.83	8.48798
1219.1	-8.49823
1219.38	-11.6698
1219.66	0.00268555
1219.94	7.41586
1220.21	-0.0444031
1220.49	-10.6294
1220.77	3.19327
1221.04	9.56671
1221.32	-2.10831
1221.6	12.6958
1221.88	0.990845
1222.15	-11.813
1222.43	14.5501
1222.71	12.2721
1222.98	-0.605896
1223.26	-4.99957
1223.54	3.30637
1223.81	15.8472
1224.09	-7.51938
1224.37	-2.35403
1224.65	0.736908
1224.92	1.7352
1225.2	-3.57895
1225.48	13.3148
1225.76	-16.18
1226.03	6.04581
1226.31	5.05457
1226.59	-17.1293
1226.86	-10.8101
1227.14	-9.81589
1227.42	-1.42822
1227.69	5.76373
1227.97	-12.5256
1228.25	5.15775
1228.52	-0.325195
1228.8	-1.74252
1229.08	-5.18756
1229.35	8.44516
1229.63	-3.20352
1229.91	-3.4317
1230.18	-6.95929
1230.46	9.53583
1230.74	0.967773
1231.01	5.22342
1231.29	4.98874
1231.57	-3.14612
1231.84	-6.23065
1232.12	3.21576
1232.4	-7.30997
1232.67	11.5511
1232.95	1.02936
1233.23	-1.10046
1233.5	8.30887
1233.78	-2.21356
1234.06	5.15292
1234.33	3.07864
1234.61	5.20996
1234.89	-5.25082
1235.16	8.4657
1235.44	-19.8938
1235.71	8.51123
1235.99	10.6503
1236.27	-12.4613
1236.54	6.44382
1236.82	-6.23547
1237.1	-1.0556
1237.37	7.25058
1237.65	12.3527
1237.93	-27.7145
1238.2	-0.567169
1238.48	2.42206
1238.76	9.60526
1239.03	-1.01184
1239.31	24.0663
1239.58	-3.26904
1239.86	5.05658
1240.14	5.00967
1240.41	8.11987
1240.69	-21.2531
1240.97	2.84393
1241.24	25.9038
1241.52	1.785
1241.79	6.96689
1242.07	15.2546
1242.35	-9.96616
1242.62	-0.552917
1242.9	3.63776
1243.18	8.90848
1243.45	0.549377
1243.73	4.71033
1244	7.83157
1244.28	4.68555
1244.56	9.89447
1244.83	1.45392
1245.11	8.72366
1245.39	13.8476
1245.66	11.6207
1245.94	-3.21112
1246.21	0.8172
1246.49	15.3863
1246.76	14.2764
1247.04	11.1071
1247.32	6.88065
1247.59	7.86166
1247.87	22.4739
1248.14	11.9317
1248.42	13.841
1248.7	13.729
1248.97	5.3089
1249.25	2.16168
1249.52	13.663
1249.8	-9.40881
1250.08	-17.8232
1250.35	6.20169
1250.63	2.94583
1250.9	9.0806
1251.18	4.77451
1251.45	4.66016
1251.73	19.1812
1252.01	-1.81866
1252.28	2.25082
1252.56	17.8046
1252.83	7.25046
1253.11	19.6538
1253.39	11.1885
1253.66	-7.67215
1253.94	7.94403
1254.21	16.3192
1254.49	-17.0459
1254.76	3.87872
1255.04	4.91797
1255.31	5.923
1255.59	8.00345
1255.87	2.74225
1256.14	6.86005
1256.42	18.3254
1256.69	11.0074
1256.97	7.89267
1257.24	14.139
1257.52	9.8992
1257.79	-3.77567
1258.07	31.6532
1258.35	28.4471
1258.62	33.5909
1258.9	15.754
1259.17	31.2718
1259.45	18.6952
1259.72	26.008
1260	9.32422
1260.27	14.6705
1260.55	42.7146
1260.82	45.6988
1261.1	36.1061
1261.37	54.7371
1261.65	40.0186
1261.92	34.8206
1262.2	65.4397
1262.48	74.3625
1262.75	70.4294
1263.02	95.7382
1263.3	84.6732
1263.58	115.693
1263.85	126.586
1264.13	119.629
1264.4	112.751
1264.68	97.2706
1264.95	59.284
1265.23	77.9412
1265.5	25.639
1265.78	46.4601
1266.05	27.5284
1266.33	30.6166
1266.6	43.1423
1266.88	17.0303
1267.15	21.2442
1267.43	34.8882
1267.7	16.1349
1267.98	25.6254
1268.25	14.2084
1268.53	2.83008
1268.8	13.4033
1269.08	6.10663
1269.35	19.7473
1269.63	28.1375
1269.9	14.447
1270.18	1.74243
1270.45	11.0013
1270.73	26.5747
1271	11.7746
1271.28	16.8925
1271.55	13.6809
1271.83	27.1843
1272.1	24.0325
1272.38	13.6188
1272.65	24.1596
1272.93	1.23453
1273.2	15.9599
1273.47	30.6945
1273.75	-0.680725
1274.03	18.2509
1274.3	24.6088
1274.57	20.4384
1274.85	36.1479
1275.12	26.6461
1275.4	24.5056
1275.67	37.0965
1275.95	12.9917
1276.22	18.2664
1276.5	28.8187
1276.77	27.8023
1277.05	21.5402
1277.32	24.7057
1277.6	31.0682
1277.87	35.3314
1278.14	30.1361
1278.42	21.7683
1278.69	34.4193
1278.97	40.809
1279.24	43.9922
1279.52	50.333
1279.79	45.0051
1280.07	70.1711
1280.34	69.0203
1280.61	84.735
1280.89	97.351
1281.16	135.223
1281.44	182.66
1281.71	238.58
1281.99	318.624
1282.26	452.246
1282.53	589.135
1282.81	780.82
1283.08	1087.95
1283.36	1402.82
1283.63	1765.98
1283.91	1973.21
1284.18	1979.42
1284.45	1610.56
1284.73	1125.83
1285	720.377
1285.28	434.76
1285.55	297.398
1285.83	196.045
1286.1	160.218
1286.37	123.44
1286.65	102.333
1286.92	77.9822
1287.2	56.8771
1287.47	50.4915
1287.75	59.859
1288.02	48.1602
1288.29	40.7054
1288.57	18.5606
1288.84	41.6844
1289.12	37.4657
1289.39	18.5438
1289.66	36.476
1289.94	39.6756
1290.21	42.8868
1290.49	11.3212
1290.76	16.5468
1291.03	26.9953
1291.31	27.9854
1291.58	18.4608
1291.86	28.9492
1292.13	22.5753
1292.4	15.1678
1292.68	3.57016
1292.95	36.1574
1293.22	10.8103
1293.5	7.63318
1293.77	26.6909
1294.05	12.0728
1294.32	15.373
1294.59	4.83813
1294.87	7.96539
1295.14	11.0626
1295.42	18.4818
1295.69	5.95944
1295.96	25.1458
1296.24	-8.3941
1296.51	20.2669
1296.79	16.0462
1297.06	-18.8607
1297.33	8.54144
1297.61	15.8315
1297.88	3.03302
1298.15	17.6932
1298.43	5.93173
1298.7	2.77512
1298.97	0.595642
1299.25	19.4995
1299.52	-4.87454
1299.79	17.1939
1300.07	15.043
1300.34	17.1926
1300.62	6.64194
1300.89	-1.82825
1301.16	-6.10483
1301.44	-0.874786
1301.71	13.8927
1301.98	11.8165
1302.25	7.62222
1302.53	0.229187
1302.8	-12.4686
1303.08	-3.00061
1303.35	-0.947052
1303.62	6.36914
1303.9	16.8224
1304.17	-2.23181
1304.44	1.96793
1304.72	9.32806
1304.99	6.12253
1305.26	2.87296
1305.54	13.3263
1305.81	6.86795
1306.08	-12.2477
1306.35	-6.04459
1306.63	-4.04489
1306.9	8.54395
1307.18	-0.980408
1307.45	14.8444
1307.72	7.44257
1308	11.6247
1308.27	3.15314
1308.54	-11.6228
1308.81	11.5273
1309.09	5.19092
1309.36	1.00461
1309.63	9.47217
1309.91	6.33609
1310.18	1.06757
1310.45	4.19348
1310.73	-16.9671
1311	-2.22253
1311.27	8.3187
1311.55	-6.46387
1311.82	10.4122
1312.09	3.02856
1312.37	-7.48752
1312.64	-8.51419
1312.91	-5.3475
1313.18	19.9482
1313.46	21.9653
1313.73	11.366
1314	-7.69998
1314.28	10.1877
1314.55	3.82648
1314.82	8.04538
1315.09	-5.66504
1315.37	7.02731
1315.64	10.2169
1315.91	6.02005
1316.18	4.99054
1316.46	9.17172
1316.73	5.95087
1317	2.7392
1317.28	2.70203
1317.55	9.0119
1317.82	13.2699
1318.09	2.72162
1318.37	0.60907
1318.64	0.600128
1318.91	-11.0368
1319.18	2.67389
1319.46	1.58078
1319.73	3.65265
1320	-8.00662
1320.28	4.67249
1320.55	-12.2499
1320.82	18.3402
1321.09	-1.81314
1321.37	5.46558
1321.64	-24.2334
1321.91	-13.8222
1322.18	-4.41901
1322.46	-4.55447
1322.73	10.1353
1323	10.055
1323.27	5.75293
1323.55	-4.89117
1323.82	9.89349
1324.09	30.9779
1324.36	-9.10687
1324.64	-4.92337
1324.91	-7.04819
1325.18	4.51709
1325.45	-4.96951
1325.73	-2.98447
1326	-2.13168
1326.27	-1.32941
1326.54	0.469452
1326.81	8.74734
1327.09	8.69504
1327.36	-5.92252
1327.63	8.00739
1327.9	-11.884
1328.18	9.30881
1328.45	-1.0947
1328.72	-11.505
1328.99	9.698
1329.27	10.7719
1329.54	10.7009
1329.81	2.28436
1330.08	4.35739
1330.35	-12.5744
1330.63	-14.754
1330.9	-5.35281
1331.17	-4.41187
1331.44	-1.38745
1331.71	-3.66913
1331.99	8.77631
1332.26	3.35168
1332.53	17.9557
1332.8	31.489
1333.07	13.4398
1333.35	-5.65332
1333.62	-3.69864
1333.89	0.365662
1334.16	3.38431
1334.43	-3.04742
1334.71	26.2287
1334.98	0.913666
1335.25	8.15817
1335.52	-0.333008
1335.79	9.01611
1336.07	13.1225
1336.34	-6.89032
1336.61	14.0058
1336.88	-3.89087
1337.15	13.8681
1337.43	5.42627
1337.7	1.18271
1337.97	6.36224
1338.24	10.436
1338.51	-0.150787
1338.78	5.01151
1339.06	8.06964
1339.33	-1.41458
1339.6	11.1228
1339.87	-1.44263
1340.14	1.70578
1340.42	12.1709
1340.69	-2.48993
1340.96	14.2647
1341.23	2.72144
1341.5	-2.54767
1341.77	-8.87378
1342.04	-2.65009
1342.32	14.0211
1342.59	0.310333
1342.86	4.37466
1343.13	-13.5296
1343.4	-0.000488281
1343.67	19.8266
1343.95	8.2941
1344.22	7.23083
1344.49	5.133
1344.76	6.16528
1345.03	7.16013
1345.3	1.85156
1345.58	2.79233
1345.85	-6.75424
1346.12	8.80432
1346.39	11.7849
1346.66	8.43405
1346.93	-5.27682
1347.2	6.06696
1347.47	-5.54547
1347.75	4.75818
1348.02	-3.66888
1348.29	-0.605469
1348.56	24.3609
1348.83	11.8114
1349.1	-3.89584
1349.37	10.6031
1349.65	-18.6552
1349.92	-10.4061
1350.19	9.29462
1350.46	-1.20053
1350.73	8.08185
1351	3.80728
1351.27	3.69284
1351.54	15.057
1351.81	-0.660431
1352.09	9.69601
1352.36	-2.80014
1352.63	18.0343
1352.9	-4.76984
1353.17	6.78622
1353.44	8.92175
1353.71	13.4262
1353.98	20.0579
1354.25	-1.18066
1354.53	13.807
1354.8	4.01938
1355.07	8.21039
1355.34	14.469
1355.61	20.5453
1355.88	-1.35229
1356.15	9.16306
1356.42	1.91254
1356.69	21.5527
1356.96	16.3075
1357.24	8.99115
1357.51	6.86371
1357.78	9.91574
1358.05	13.9947
1358.32	2.49487
1358.59	9.67685
1358.86	26.2004
1359.13	3.27951
1359.4	24.9743
1359.67	10.384
1359.94	7.211
1360.22	6.0592
1360.49	11.1111
1360.76	-2.48322
1361.03	24.367
1361.3	11.8936
1361.57	24.3084
1361.84	15.9969
1362.11	14.9285
1362.38	11.7632
1362.65	3.42639
1362.92	18.9093
1363.19	13.7094
1363.46	13.7271
1363.73	14.826
1364	27.2992
1364.28	13.8781
1364.55	30.4393
1364.82	20.0442
1365.09	15.8483
1365.36	16.8009
1365.63	22.9113
1365.9	27.9774
1366.17	10.28
1366.44	15.3524
1366.71	24.5555
1366.98	13.0494
1367.25	18.0664
1367.52	9.72482
1367.79	10.7103
1368.06	21.0927
1368.33	24.219
1368.6	48.0131
1368.87	55.2699
1369.15	103.88
1369.41	105.983
1369.68	78.0931
1369.95	50.1134
1370.23	37.6495
1370.5	22.0872
1370.77	10.6025
1371.04	30.1732
1371.31	23.8882
1371.58	32.0244
1371.85	36.0025
1372.12	20.3415
1372.39	21.2044
1372.66	23.1119
1372.93	16.8065
1373.2	29.0981
1373.47	34.1873
1373.74	38.2483
1374.01	32.0131
1374.28	20.6353
1374.55	25.7501
1374.82	40.1389
1375.09	25.6753
1375.36	27.6747
1375.63	40.0466
1375.9	37.005
1376.17	41.1086
1376.44	24.6436
1376.71	31.7376
1376.98	38.8329
1377.25	29.4155
1377.52	46.7223
1377.79	40.598
1378.06	44.8227
1378.33	46.024
1378.6	37.9978
1378.87	48.5434
1379.14	52.7372
1379.41	38.2804
1379.68	40.2779
1379.95	55.6689
1380.22	71.0253
1380.49	49.1843
1380.76	68.3688
1381.03	60.944
1381.3	68.9915
1381.57	81.4064
1381.84	44.2566
1382.11	75.9046
1382.38	65.3871
1382.65	76.4803
1382.92	86.5653
1383.19	100.737
1383.46	103.667
1383.73	117.871
1384	147.508
1384.27	128.97
1384.54	121.806
1384.81	205.923
1385.08	236.794
1385.34	323.133
1385.61	412.691
1385.88	535.054
1386.15	795.012
1386.42	1234.66
1386.69	1933.39
1386.96	3067.58
1387.23	4251.83
1387.5	4530.37
1387.77	3449.4
1388.04	2064.39
1388.31	1132.9
1388.58	629.218
1388.85	404.328
1389.12	282.178
1389.39	215.866
1389.66	147.115
1389.93	138.96
1390.2	104.895
1390.46	80.9003
1390.73	99.175
1391	85.8218
1391.27	92.7914
1391.54	57.8977
1391.81	74.2461
1392.08	52.6159
1392.35	53.5165
1392.62	41.1202
1392.89	54.3496
1393.16	54.2808
1393.43	38.8683
1393.7	41.8884
1393.97	26.4901
1394.23	19.2859
1394.5	34.5997
1394.77	31.4969
1395.04	42.7291
1395.31	23.3286
1395.58	33.6289
1395.85	19.3451
1396.12	42.9035
1396.39	52.0963
1396.66	29.5346
1396.93	26.4071
1397.2	28.3927
1397.46	16.0285
1397.73	16.9678
1398	18.9675
1398.27	26.1169
1398.54	34.3231
1398.81	21.0699
1399.08	15.9786
1399.35	27.2492
1399.62	38.5729
1399.89	28.3812
1400.16	16.1343
1400.42	3.84213
1400.69	26.414
1400.96	24.4686
1401.23	30.6576
1401.5	30.6356
1401.77	32.73
1402.04	31.6967
1402.31	10.324
1402.58	20.8029
1402.84	8.74869
1403.11	24.3171
1403.38	40.8712
1403.65	11.1613
1403.92	38.8785
1404.19	24.4117
1404.46	43.6559
1404.73	27.2997
1404.99	27.2555
1405.26	24.1207
1405.53	34.2959
1405.8	57.7932
1406.07	40.2759
1406.34	54.5502
1406.61	70.8958
1406.87	71.8769
1407.14	66.7678
1407.41	93.447
1407.68	119.112
1407.95	152.97
1408.22	169.401
1408.49	205.315
1408.76	260.717
1409.02	236.149
1409.29	212.613
1409.56	152.143
1409.83	128.589
1410.1	92.7086
1410.37	62.9547
1410.63	51.5747
1410.9	51.4427
1411.17	34.8943
1411.44	38.8853
1411.71	36.753
1411.98	34.6395
1412.25	30.5193
1412.51	14.18
1412.78	20.4426
1413.05	17.6248
1413.32	33.5236
1413.59	14.263
1413.86	14.962
1414.12	8.25137
1414.39	8.33606
1414.66	20.9194
1414.93	26.2438
1415.2	20.0487
1415.47	-1.50296
1415.73	31.3453
1416	12.8705
1416.27	4.6835
1416.54	-6.58224
1416.81	16.0437
1417.07	10.9449
1417.34	8.9325
1417.61	15.1386
1417.88	34.6985
1418.15	21.3582
1418.42	21.3592
1418.68	32.6736
1418.95	3.91211
1419.22	12.1315
1419.49	8.02133
1419.76	12.0802
1420.02	-5.4715
1420.29	5.74063
1420.56	21.0623
1420.83	12.7532
1421.1	16.7617
1421.36	15.6498
1421.63	6.367
1421.9	4.33014
1422.17	1.35074
1422.44	6.61426
1422.7	29.3474
1422.97	22.377
1423.24	17.5901
1423.51	21.0435
1423.77	21.059
1424.04	10.9351
1424.31	23.3447
1424.58	18.8265
1424.85	7.55161
1425.11	32.2572
1425.38	7.93814
1425.65	3.87991
1425.92	16.1201
1426.19	3.94586
1426.45	13.1396
1426.72	14.0824
1426.99	30.3721
1427.26	0.515167
1427.52	20.8846
1427.79	-6.95721
1428.06	24.6501
1428.33	14.3323
1428.59	5.08145
1428.86	21.4603
1429.13	-12.3145
1429.4	8.18985
1429.67	25.6389
1429.93	7.25827
1430.2	9.38605
1430.47	2.31302
1430.74	0.339783
1431	-8.77518
1431.27	4.72482
1431.54	1.77701
1431.81	17.2325
1432.07	5.93411
1432.34	8.9274
1432.61	9.8457
1432.87	-3.56244
1433.14	11.6881
1433.41	4.34625
1433.68	3.13809
1433.95	3.99091
1434.21	-11.4804
1434.48	3.82892
1434.75	17.326
1435.01	-1.0401
1435.28	-19.4791
1435.55	4.08127
1435.82	13.2836
1436.08	1.98178
1436.35	21.4132
1436.62	4.98026
1436.89	-10.4359
1437.15	15.1239
1437.42	13.0281
1437.69	0.713867
1437.95	0.657532
1438.22	6.77029
1438.49	0.634491
1438.76	4.78256
1439.02	16.0776
1439.29	3.78558
1439.56	9.94287
1439.82	-5.37466
1440.09	30.5769
1440.36	-4.17035
1440.63	0.994659
1440.89	-7.19604
1441.16	8.17999
1441.43	-3.08942
1441.69	-4.15759
1441.96	10.1172
1442.23	-12.4855
1442.49	7.06537
1442.76	15.2671
1443.03	-15.431
1443.3	12.1962
1443.56	17.2388
1443.83	0.762299
1444.1	23.2616
1444.36	2.73102
1444.63	-3.40781
1444.9	10.0255
1445.16	8.06223
1445.43	-7.20947
1445.7	5.05545
1445.97	-3.20352
1446.23	8.03271
1446.5	1.82996
1446.77	0.76004
1447.03	-10.5664
1447.3	8.87338
1447.57	7.79227
1447.83	2.59985
1448.1	9.72119
1448.37	6.62875
1448.63	13.864
1448.9	19.0722
1449.17	-0.403656
1449.43	-2.47479
1449.7	-20.9841
1449.97	-4.64114
1450.23	-6.77194
1450.5	14.6759
1450.77	8.4751
1451.03	-11.0468
1451.3	-5.96863
1451.57	7.3049
1451.83	-12.2212
1452.1	-5.10266
1452.37	9.19519
1452.63	0.966309
1452.9	1.98117
1453.17	7.10843
1453.43	5.09064
1453.7	13.3127
1453.97	3.05237
1454.23	-7.23938
1454.5	-2.1535
1454.77	14.2256
1455.03	6.01291
1455.3	-3.23734
1455.56	-5.32935
1455.83	0.810791
1456.1	1.88971
1456.36	4.98688
1456.63	-1.17987
1456.9	1.8443
1457.16	17.1291
1457.43	6.79968
1457.7	0.604767
1457.96	1.58612
1458.23	14.8695
1458.49	-6.65695
1458.76	-1.54211
1459.03	0.512665
1459.29	1.53925
1459.56	9.73257
1459.82	5.62598
1460.09	15.8386
1460.36	5.54904
1460.62	-1.66891
1460.89	2.37698
1461.16	13.5819
1461.42	14.5339
1461.69	-14.2099
1461.95	-5.06973
1462.22	-15.3918
1462.49	-2.17578
1462.75	-3.29861
1463.02	-2.38138
1463.28	0.57605
1463.55	6.5961
1463.82	6.49054
1464.08	-3.76633
1464.35	-2.63684
1464.61	-4.51578
1464.88	3.79712
1465.15	-0.125946
1465.41	-8.64178
1465.68	-8.3606
1465.94	-4.62219
1466.21	2.4624
1466.48	-4.57666
1466.74	-10.7582
1467.01	8.43372
1467.27	-7.9635
1467.54	6.33875
1467.8	-0.84848
1468.07	-5.99823
1468.34	9.26532
1468.6	-6.0629
1468.87	17.3688
1469.13	-5.1153
1469.4	-2.11569
1469.67	11.0716
1469.93	10.9714
1470.2	-1.37936
1470.46	-0.457428
1470.73	4.5614
1470.99	9.58722
1471.26	-4.72772
1471.53	-4.80368
1471.79	12.4108
1472.06	1.13043
1472.32	0.0618591
1472.59	12.2443
1472.85	-1.02542
1473.12	-17.3501
1473.39	-11.2921
1473.65	3.89859
1473.92	-1.27328
1474.18	-3.37912
1474.45	-8.51801
1474.71	1.63559
1474.98	2.66827
1475.24	-0.379852
1475.51	-1.41431
1475.78	-3.48462
1476.04	6.63388
1476.31	3.50357
1476.57	-4.69855
1476.84	13.5573
1477.1	-1.79059
1477.37	-1.87939
1477.63	6.20029
1477.9	-1.97269
1478.16	-3.02261
1478.43	12.1605
1478.69	5.95636
1478.96	-3.27521
1479.22	-0.308716
1479.49	-3.44937
1479.76	-17.7721
1480.02	6.49915
1480.29	-7.82886
1480.55	-3.93427
1480.82	5.06042
1481.08	-4.17648
1481.35	0.836212
1481.61	13.9312
1481.88	-12.4322
1482.14	4.85751
1482.41	-2.1954
1482.67	14.1061
1482.94	-12.2488
1483.2	14.123
1483.47	0.950562
1483.73	-6.15466
1484	-13.2859
1484.26	5.97012
1484.53	2.73428
1484.79	17.6991
1485.06	8.10095
1485.32	-8.67661
1485.59	-4.84796
1485.85	-9.22604
1486.12	-8.32935
1486.38	1.89294
1486.65	6.07837
1486.91	-1.47256
1487.18	-14.4624
1487.44	-7.33374
1487.71	0.627899
1487.97	11.6508
1488.24	5.49097
1488.5	6.41135
1488.77	-4.84067
1489.03	-1.92697
1489.3	14.1629
1489.56	-8.16913
1489.83	0.87677
1490.09	-8.2818
1490.36	-6.28696
1490.62	-0.248627
1490.89	-4.36954
1491.15	-10.5436
1491.42	7.55292
1491.68	-0.6008
1491.95	-9.74402
1492.21	2.36069
1492.48	-15.8461
1492.74	7.3681
1493	0.243622
1493.27	10.313
1493.53	-10.9436
1493.8	3.15421
1494.06	-1.94186
1494.33	4.10199
1494.59	-12.0716
1494.86	11.1881
1495.12	0.0247803
1495.39	9.02991
1495.65	12.923
1495.92	-4.42773
1496.18	5.5278
1496.45	7.44458
1496.71	0.294434
1496.97	5.26404
1497.24	14.2641
1497.5	6.15912
1497.77	-4.97369
1498.03	-5.02396
1498.3	-3.0419
1498.56	10.054
1498.82	5.99899
1499.09	-0.0698853
1499.35	-2.09821
1499.62	-0.0803833
1499.88	2.957
1500.15	5.99341
1500.41	-6.13416
1500.68	1.91177
1500.94	13.9849
1501.2	4.85852
1501.47	2.76764
1501.73	8.71555
1502	-3.44818
1502.26	-7.52466
1502.52	-0.504425
1502.79	-1.58029
1503.05	-2.70367
1503.32	9.29117
1503.58	3.16312
1503.85	10.1193
1504.11	8.07272
1504.37	8.08432
1504.64	17.1511
1504.9	-0.0174255
1505.17	-13.1737
1505.43	9.94781
1505.7	12.8799
1505.96	-5.40866
1506.22	10.5396
1506.49	4.43747
1506.75	-5.67813
1507.02	11.4377
1507.28	6.43201
1507.54	6.41959
1507.81	11.448
1508.07	17.4617
1508.34	3.29733
1508.6	-23.9586
1508.86	-1.8129
1509.13	6.23444
1509.39	4.19644
1509.66	-7.93018
1509.92	2.11545
1510.18	-7.94543
1510.45	16.2391
1510.71	10.0829
1510.98	7.95755
1511.24	-4.25449
1511.5	5.6723
1511.77	-7.60925
1512.03	17.301
1512.29	9.00473
1512.56	-0.276093
1512.82	-7.51001
1513.08	-7.64389
1513.35	-21.8229
1513.61	7.18576
1513.88	-2.91583
1514.14	6.18631
1514.4	2.29987
1514.67	3.31549
1514.93	13.2829
1515.2	7.13153
1515.46	7.99445
1515.72	-4.18588
1515.99	0.67807
1516.25	5.54117
1516.51	6.42645
1516.78	8.36111
1517.04	3.28445
1517.3	-3.79147
1517.57	4.18854
1517.83	2.16074
1518.09	-9.87198
1518.36	-6.82043
1518.62	6.20984
1518.88	-2.81747
1519.15	3.19485
1519.41	8.21732
1519.67	14.2396
1519.94	-6.83887
1520.2	-10.8912
1520.47	8.10287
1520.73	2.02432
1520.99	8.03741
1521.26	9.05197
1521.52	-7.99768
1521.78	-5.00357
1522.05	17.0238
1522.31	1.90604
1522.57	7.84866
1522.84	4.75876
1523.1	8.69711
1523.36	-12.4616
1523.62	-1.58395
1523.89	2.23132
1524.15	4.09445
1524.41	-13.0511
1524.68	-15.1544
1524.94	0.77359
1525.2	6.79858
1525.47	2.78177
1525.73	-1.23935
1525.99	3.79816
1526.26	1.84152
1526.52	4.92706
1526.78	-2.03415
1527.05	3.98242
1527.31	-6.08185
1527.57	-13.1858
1527.84	6.80103
1528.1	11.7455
1528.36	14.6858
1528.63	-14.4509
1528.89	-0.499176
1529.15	6.44449
1529.41	11.401
1529.68	-28.7031
1529.94	7.29736
1530.2	5.1962
1530.47	3.14395
1530.73	9.16019
1530.99	12.2201
1531.25	-2.75232
1531.52	-0.716583
1531.78	-4.74655
1532.04	0.205414
1532.31	5.19568
1532.57	2.10333
1532.83	12.1415
1533.09	-0.80603
1533.36	-5.70264
1533.62	8.43427
1533.88	-0.565125
1534.15	3.44974
1534.41	0.405304
1534.67	-9.67975
1534.94	2.29382
1535.2	-12.8249
1535.46	-2.86371
1535.72	-4.97791
1535.99	-9.2211
1536.25	4.65128
1536.51	-11.5002
1536.77	16.3665
1537.04	15.1744
1537.3	-3.00793
1537.56	2.90634
1537.82	-3.22238
1538.09	-8.2507
1538.35	11.6363
1538.61	9.47238
1538.87	5.39993
1539.14	11.3252
1539.4	-16.585
1539.66	-10.3875
1539.92	3.89096
1540.19	7.07495
1540.45	-15.8254
1540.71	-2.65109
1540.97	0.438141
1541.24	-0.549591
1541.5	-1.75467
1541.76	0.198761
1542.02	8.07135
1542.29	16.9522
1542.55	5.79492
1542.81	5.65863
1543.07	-4.48166
1543.34	6.405
1543.6	-3.73657
1543.86	1.10013
1544.12	-20.0724
1544.39	-3.08505
1544.65	8.91003
1544.91	1.96454
1545.17	-1.94379
1545.43	4.12048
1545.7	6.25809
1545.96	13.3282
1546.22	-18.6993
1546.48	4.35272
1546.74	-8.72513
1547.01	-0.72348
1547.27	7.30682
1547.53	1.31424
1547.79	5.33539
1548.06	-3.80429
1548.32	5.96405
1548.58	-3.08014
1548.84	14.9351
1549.1	-1.99838
1549.37	-9.41547
1549.63	19.127
1549.89	-15.9835
1550.15	-0.791016
1550.42	1.61105
1550.68	-6.81454
1550.94	0.627838
1551.2	-2.01312
1551.46	-5.33432
1551.73	3.71143
1551.99	-9.4549
1552.25	-20.6528
1552.51	6.60101
1552.77	8.75131
1553.03	11.6781
1553.3	0.479645
1553.56	-9.88751
1553.82	-12.9931
1554.08	15.0279
1554.34	3.87796
1554.61	0.718872
1554.87	21.5956
1555.13	9.38675
1555.39	6.29584
1555.65	1.22803
1555.91	-0.809296
1556.18	6.19797
1556.44	-3.84683
1556.7	-7.94745
1556.96	4.04584
1557.22	9.05051
1557.48	9.04391
1557.75	5.01276
1558.01	2.95477
1558.27	-5.16571
1558.53	4.68594
1558.79	7.55237
1559.06	-9.63361
1559.32	2.21515
1559.58	7.07266
1559.84	20.9476
1560.1	5.84387
1560.36	-18.2373
1560.63	-17.3108
1560.89	-5.38132
1561.15	3.55673
1561.41	-4.47336
1561.67	-3.47638
1561.93	-4.43146
1562.19	6.64844
1562.46	-17.2601
1562.72	-2.28522
1562.98	5.66437
1563.24	0.598785
1563.5	-7.41278
1563.76	-2.48383
1564.02	-7.5394
1564.29	-1.42514
1564.55	-19.307
1564.81	7.73233
1565.07	11.6749
1565.33	-1.59924
1565.59	5.629
1565.85	9.55606
1566.11	-9.91379
1566.38	5.71484
1566.64	6.19229
1566.9	2.94626
1567.16	-2.35599
1567.42	3.94901
1567.68	9.29419
1567.94	23.1693
1568.2	11.8345
1568.47	-2.14102
1568.73	-10.113
1568.99	-9.11502
1569.25	5.81332
1569.51	6.62637
1569.77	-22.4752
1570.03	-15.5077
1570.29	2.48248
1570.55	-7.53271
1570.82	-10.5558
1571.08	-3.59891
1571.34	0.349335
1571.6	4.27792
1571.86	21.1659
1572.12	-1.918
1572.38	-5.95755
1572.64	-0.0475769
1572.9	6.83075
1573.17	-3.24634
1573.43	6.64755
1573.69	8.54327
1573.95	-1.5275
1574.21	-4.543
1574.47	6.48135
1574.73	-3.43573
1574.99	-14.3523
1575.25	8.69458
1575.51	17.7591
1575.78	-3.17773
1576.04	-9.18454
1576.3	8.74344
1576.56	-0.288422
1576.82	1.63223
1577.08	2.46912
1577.34	10.2649
1577.6	5.08954
1577.86	12.8949
1578.12	-10.2139
1578.38	-5.37955
1578.64	6.47772
1578.9	-16.5073
1579.17	-10.56
1579.43	9.34503
1579.69	9.31897
1579.95	-12.6201
1580.21	-1.62277
1580.47	-8.60275
1580.73	4.33905
1580.99	19.2494
1581.25	-3.76328
1581.51	15.0822
1581.77	7.02109
1582.03	-11.0329
1582.29	-0.189667
1582.55	-2.24292
1582.81	-16.249
1583.07	24.532
1583.33	-15.367
1583.59	1.5242
1583.85	18.4163
1584.11	-10.5392
1584.38	-16.5453
1584.64	10.3526
1584.9	13.34
1585.16	-3.60602
1585.42	0.34494
1585.68	-1.69989
1585.94	22.165
1586.2	2.17444
1586.46	-9.90149
1586.72	-2.06793
1586.98	9.77155
1587.24	-0.266357
1587.5	-0.340332
1587.76	9.54416
1588.02	5.51419
1588.28	4.49319
1588.54	-10.4266
1588.8	8.4982
1589.06	-3.41119
1589.32	14.5279
1589.58	-4.36041
1589.84	2.61859
1590.1	-3.36926
1590.36	-1.40796
1590.62	11.541
1590.88	-16.3205
1591.14	-4.36057
1591.4	-24.319
1591.66	5.52594
1591.92	-11.4602
1592.18	12.3661
1592.44	4.27722
1592.7	-5.83728
1592.96	-12.9272
1593.22	7.87244
1593.48	7.68781
1593.74	2.51938
1594	-19.5438
1594.26	-10.7347
1594.52	6.06677
1594.78	-4.88705
1595.04	8.04764
1595.3	-7.79117
1595.56	2.17294
1595.82	6.11987
1596.08	15.8306
1596.34	-2.08475
1596.6	9.80518
1596.86	8.78769
1597.12	8.77591
1597.38	-11.0887
1597.64	-6.11337
1597.9	8.797
1598.16	13.726
1598.42	-6.21072
1598.68	9.57886
1598.94	-0.494476
1599.2	-7.57333
1599.46	-14.6256
1599.72	-9.76031
1599.98	11.9705
1600.24	-7.97076
1600.5	-3.1066
1600.76	12.6518
1601.02	9.54358
1601.28	-0.528198
1601.54	-13.5749
1601.8	-0.858063
1602.06	6.92303
1602.32	-1.11353
1602.58	2.73749
1602.84	8.55658
1603.1	1.5
1603.36	6.32504
1603.62	10.1746
1603.88	9.10413
1604.14	-4.80109
1604.4	-8.79254
1604.66	8.98474
1604.92	3.03802
1605.17	11.9149
1605.43	13.8754
1605.69	-2.94513
1605.95	-6.8931
1606.21	1.04077
1606.47	7.00449
1606.73	-6.8161
1606.99	-16.6928
1607.25	-6.7395
1607.51	15.7484
1607.77	-18.7088
1608.03	5.2251
1608.29	1.4021
1608.55	7.07153
1608.81	-3.13113
1609.07	0.161163
1609.32	1.77301
1609.58	6.17905
1609.84	-11.9852
1610.1	8.63821
1610.36	-2.73093
1610.62	7.11414
1610.88	5.22891
1611.14	-0.389526
1611.4	4.48782
1611.66	-0.00250244
1611.92	1.40167
1612.18	0.164917
1612.44	-1.66614
1612.69	-1.40463
1612.95	-8.936
1613.21	2.79196
1613.47	0.524017
1613.73	-5.12561
1613.99	12.1811
1614.25	2.27289
1614.51	11.1546
1614.77	3.76773
1615.03	-7.64191
1615.29	13.8688
1615.54	-0.851807
1615.8	7.56815
1616.06	6.90652
1616.32	4.27966
1616.58	5.63528
1616.84	10.1772
1617.1	1.20801
1617.36	0.368805
1617.62	-0.704926
1617.88	-0.472534
1618.13	0.547607
1618.39	-2.49747
1618.65	-7.315
1618.91	2.09836
1619.17	-1.88428
1619.43	3.39005
1619.69	3.28818
1619.95	-3.05011
1620.2	4.16327
1620.46	5.32288
1620.72	7.81052
1620.98	4.55829
1621.24	1.89545
1621.5	-2.2822
1621.76	0.577942
1622.02	2.85587
1622.27	2.12994
1622.53	1.69113
1622.79	4.91998
1623.05	0.513763
1623.31	0.348206
1623.57	1.34186
1623.83	-10.0487
1624.09	0.341125
1624.34	4.25769
1624.6	0.127014
1624.86	-1.38464
1625.12	-9.00589
1625.38	-2.56122
1625.64	-5.4353
1625.9	-4.39221
1626.15	2.8353
1626.41	0.403992
1626.67	3.97534
1626.93	3.41711
1627.19	11.807
1627.45	2.87045
1627.7	-1.75116
1627.96	-1.54156
1628.22	-1.66629
1628.48	-0.297668
1628.74	-5.82739
1629	-8.13809
1629.26	5.17566
1629.51	3.31525
1629.77	-8.17944
1630.03	-0.32666
1630.29	1.7818
1630.55	4.75134
1630.81	11.2007
1631.06	3.55939
1631.32	7.3486
1631.53	-2.67484
1631.79	-7.54572
1632.05	5.3327
1632.31	-8.39938
1632.57	1.42432
1632.84	0.548706
1633.1	-0.229492
1633.36	-1.37903
1633.62	-8.50616
1633.88	-6.59213
1634.14	15.1376
1634.4	-1.556
1634.66	-3.51422
1634.93	-9.42624
1635.19	-7.47009
1635.45	1.37534
1635.71	-2.60211
1635.97	13.1221
1636.23	-1.7132
1636.49	4.13715
1636.75	10.9707
1637.02	4.00693
1637.28	13.7775
1637.54	-5.02127
1637.8	6.74615
1638.06	-6.07709
1638.32	5.69003
1638.58	9.57416
1638.84	1.65787
1639.1	7.56055
1639.37	-4.25864
1639.63	9.50961
1639.89	9.49847
1640.15	4.56161
1640.41	5.52213
1640.67	9.46472
1640.93	-16.0576
1641.19	12.5459
1641.46	5.66241
1641.72	-18.0072
1641.98	-4.27625
1642.24	-7.2674
1642.5	6.48459
1642.76	0.551666
1643.02	5.44684
1643.28	12.3145
1643.54	22.1395
1643.8	0.46637
1644.06	9.28152
1644.33	0.369049
1644.59	7.18195
1644.85	4.16559
1645.11	13.9819
1645.37	8.10611
1645.63	7.17343
1645.89	7.19962
1646.15	6.21457
1646.41	18.9562
1646.67	1.18564
1646.93	14.9062
1647.19	-6.77145
1647.46	3.01443
1647.72	11.8119
1647.98	7.83136
1648.24	3.88174
1648.5	-2.99216
1648.76	2.97763
1649.02	9.94183
1649.28	-3.62454
1649.54	-14.3766
1649.8	15.1046
1650.06	-1.68509
1650.32	15.0394
1650.58	18.1192
1650.85	11.3272
1651.11	10.4181
1651.37	2.61499
1651.63	-0.290924
1651.89	21.4069
1652.15	-1.26178
1652.41	-3.23737
1652.67	-4.21127
1652.93	3.62384
1653.19	4.55106
1653.45	12.4039
1653.71	-13.2165
1653.97	10.4445
1654.23	-1.3414
1654.49	4.59409
1654.75	-8.20523
1655.01	19.415
1655.27	9.61011
1655.53	2.79184
1655.8	10.8024
1656.06	11.942
1656.32	-2.75888
1656.57	-0.722778
1656.84	-1.67645
1657.1	7.2229
1657.36	6.21906
1657.62	-3.69376
1657.88	3.16309
1658.14	-0.817291
1658.4	9.01395
1658.66	0.0820007
1658.92	7.90933
1659.18	4.88153
1659.44	17.6337
1659.7	17.5637
1659.96	5.66122
1660.22	6.5481
1660.48	0.664948
1660.74	0.716125
1661	14.5848
1661.26	-5.06595
1661.52	-6.96335
1661.78	21.7347
1662.04	-0.927155
1662.3	0.0889282
1662.56	1.66577
1662.82	-7.40198
1663.08	6.87866
1663.34	10.5883
1663.6	6.5817
1663.86	-4.40063
1664.12	16.4125
1664.38	22.8022
1664.64	-5.72034
1664.9	8.13681
1665.16	5.38876
1665.42	0.533112
1665.68	-1.90775
1665.94	-14.1424
1666.2	7.6835
1666.46	12.7191
1666.72	5.74847
1666.98	5.13754
1667.24	8.70752
1667.5	1.11142
1667.76	10.8849
1668.02	0.940979
1668.28	-13.9069
1668.54	-5.1001
1668.8	3.78662
1669.06	16.8112
1669.32	-11.5791
1669.58	1.30444
1669.84	0.323792
1670.1	2.31305
1670.36	7.20456
1670.62	-17.4899
1670.88	-3.44379
1671.14	6.58185
1671.4	0.604401
1671.66	6.49887
1671.92	19.3261
1672.18	15.3904
1672.44	12.4618
1672.69	-4.33002
1672.95	-10.265
1673.21	-8.29181
1673.47	-0.373322
1673.73	-11.2314
1673.99	10.5461
1674.25	11.5797
1674.51	-7.15115
1674.77	2.78983
1675.03	-15.9499
1675.29	1.93567
1675.55	14.8644
1675.81	12.9231
1676.07	5.01105
1676.33	-10.8311
1676.59	7.98544
1676.85	-3.86948
1677.11	2.07974
1677.37	3.06183
1677.63	2.04663
1677.89	0.0271606
1678.14	15.7967
1678.4	-0.118805
1678.66	8.68851
1678.92	-2.26938
1679.18	-0.35202
1679.44	-12.2686
1679.7	-8.35043
1679.96	-2.46375
1680.22	-2.50815
1680.48	-14.4004
1680.74	-1.59772
1681	-14.4869
1681.26	7.21106
1681.52	1.26172
1681.78	-6.65005
1682.03	3.22464
1682.29	12.1148
1682.55	-2.70059
1682.81	8.17554
1683.07	-8.63751
1683.33	7.15619
1683.59	17.0291
1683.85	-2.72928
1684.11	-1.75351
1684.37	4.14563
1684.63	-5.79718
1684.89	3.05493
1685.14	-11.7802
1685.4	-3.89441
1685.66	3.99698
1685.92	-20.6915
1686.18	-13.7763
1686.44	12.8955
1686.7	-9.78235
1686.96	-4.75781
1687.22	-15.5807
1687.48	-10.6318
1687.73	15.0204
1687.99	14.9691
1688.25	5.04242
1688.51	7.96445
1688.77	3.96759
1689.03	-13.8661
1689.29	2.82599
1689.55	13.6092
1689.81	-7.18918
1690.06	-1.35199
1690.32	8.41574
1690.58	12.3338
1690.84	-7.29306
1691.1	4.60153
1691.36	6.61447
1691.62	3.67776
1691.88	-13.052
1692.13	-2.15775
1692.39	11.6614
1692.65	-2.17883
1692.91	5.65381
1693.17	-19.0925
1693.43	7.44711
1693.69	9.30273
1693.95	1.28659
1694.2	-7.6691
1694.46	-5.77957
1694.72	-8.8222
1694.98	21.6541
1695.24	1.9483
1695.5	10.8407
1695.76	0.0299683
1696.01	-7.82532
1696.27	1.07263
1696.53	2.1188
1696.79	-0.795715
1697.05	16.9414
1697.31	5.07626
1697.57	6.96774
1697.82	11.7832
1698.08	7.72964
1698.34	6.65479
1698.6	2.6438
1698.86	8.47971
1699.12	9.40604
1699.38	4.45621
1699.63	1.49518
1699.89	18.2489
1700.15	7.43082
1700.41	-1.41626
1700.67	14.2489
1700.92	5.3772
1701.18	11.2623
1701.44	-8.43481
1701.7	3.33347
1701.96	4.24881
1702.22	-5.66736
1702.47	11.9549
1702.73	8.92111
1702.99	7.86057
1703.25	-8.86761
1703.51	-13.79
1703.77	0.923798
1704.02	3.8327
1704.28	-1.10287
1704.54	3.85095
1704.8	10.7897
1705.06	15.7194
1705.32	17.6659
1705.57	6.8324
1705.83	2.90457
1706.09	-0.0403748
1706.35	5.78995
1706.61	4.71793
1706.86	7.56497
1707.12	7.45889
1707.38	7.35394
1707.64	8.24411
1707.9	-6.58499
1708.16	14.8598
1708.41	1.97745
1708.67	-8.93634
1708.93	-1.24832
1709.19	24.0805
1709.44	13.2095
1709.7	-0.559418
1709.96	3.32962
1710.22	2.34674
1710.48	0.400299
1710.73	1.39572
1710.99	7.30899
1711.25	-9.26941
1711.51	4.48376
1711.77	8.44299
1712.02	3.58167
1712.28	14.3663
1712.54	10.4034
1712.8	3.43033
1713.06	7.1716
1713.31	-6.70795
1713.57	6.81848
1713.83	-6.04297
1714.09	10.4136
1714.34	8.38251
1714.6	8.3313
1714.86	8.29428
1715.12	8.27274
1715.38	3.38525
1715.63	-6.30569
1715.89	2.58447
1716.15	-2.30023
1716.41	22.0933
1716.66	5.42593
1716.92	5.33752
1717.18	5.21909
1717.44	9.95108
1717.69	1.96585
1717.95	14.4334
1718.21	-23.7688
1718.47	5.31079
1718.72	11.016
1718.98	2.159
1719.24	5.03049
1719.5	11.8416
1719.75	11.8409
1720.01	-4.73087
1720.27	17.6981
1720.53	4.08936
1720.78	-5.68491
1721.04	16.6317
1721.3	19.4352
1721.56	-16.6543
1721.81	5.64078
1722.07	1.65677
1722.33	3.49911
1722.59	19.9169
1722.84	4.2597
1723.1	8.04782
1723.36	-3.69693
1723.62	5.94647
1723.87	0.0745544
1724.13	4.92975
1724.39	1.98477
1724.64	11.6767
1724.9	-1.0097
1725.16	3.73526
1725.42	2.60104
1725.67	14.0901
1725.93	10.0502
1726.19	16.7322
1726.45	7.96204
1726.7	2.18423
1726.96	7.00204
1727.22	2.09781
1727.47	0.981964
1727.73	15.5041
1727.99	-2.79163
1728.24	2.03018
1728.5	-6.75381
1728.76	6.64682
1729.02	0.252197
1729.27	9.25262
1729.53	-2.56619
1729.79	6.3703
1730.05	-13.6813
1730.3	0.0128174
1730.56	6.517
1730.82	8.33466
1731.07	-5.21558
1731.33	5.89633
1731.59	3.0318
1731.84	6.91141
1732.1	7.87341
1732.36	11.7191
1732.61	10.7155
1732.87	3.91
1733.13	21.2394
1733.39	4.73026
1733.64	0.742584
1733.9	9.26508
1734.16	-4.4183
1734.41	16.6772
1734.67	3.0459
1734.93	-7.68915
1735.18	20.1224
1735.44	7.46402
1735.7	7.34756
1735.95	20.7411
1736.21	1.42648
1736.47	10.0551
1736.72	10.9787
1736.98	10.9265
1737.24	1.25137
1737.49	20.4352
1737.75	5.95251
1738.01	4.94208
1738.26	6.79556
1738.52	25.9378
1738.78	10.4693
1739.03	7.50085
1739.29	4.52066
1739.55	6.32291
1739.8	14.8077
1740.06	-9.37701
1740.32	7.71835
1740.57	15.231
1740.83	5.51276
1741.09	-9.9209
1741.34	12.0294
1741.6	9.06442
1741.86	11.8553
1742.11	4.12833
1742.37	25.154
1742.63	2.15579
1742.88	8.82944
1743.14	1.13239
1743.4	1.11188
1743.65	22.1645
1743.91	23.0833
1744.16	16.2999
1744.42	8.57584
1744.68	6.60452
1744.93	-9.68042
1745.19	9.45529
1745.45	-2.00891
1745.7	9.4761
1745.96	5.63412
1746.22	0.80484
1746.47	14.1118
1746.73	11.1367
1746.98	9.10092
1747.24	28.1143
1747.5	-5.43799
1747.75	11.6602
1748.01	-0.846375
1748.27	9.61182
1748.52	-2.80054
1748.78	9.62112
1749.03	0.0998535
1749.29	11.5919
1749.55	2.10168
1749.8	7.90829
1750.06	7.0459
1750.32	-7.17856
1750.57	6.30508
1750.83	4.49326
1751.08	10.2708
1751.34	8.4165
1751.6	17.9962
1751.85	23.6819
1752.11	7.31445
1752.36	27.2516
1752.62	1.36603
1752.88	-2.53781
1753.13	14.5581
1753.39	7.78506
1753.64	10.573
1753.9	17.1845
1754.15	-1.00537
1754.41	28.4745
1754.67	-2.13287
1754.92	28.3185
1755.18	12.0561
1755.43	22.4981
1755.69	14.824
1755.95	17.616
1756.2	11.8127
1756.46	2.18777
1756.71	-6.48953
1756.97	6.70837
1757.23	9.43198
1757.48	9.31311
1757.74	11.1697
1757.99	-2.19153
1758.25	10.2074
1758.5	16.0535
1758.76	10.3936
1759.02	4.70242
1759.27	17.0858
1759.53	23.7609
1759.78	-1.90231
1760.04	-4.75626
1760.3	21.863
1760.55	9.46338
1760.81	11.3325
1761.06	-6.78479
1761.32	-4.94223
1761.57	7.34296
1761.83	7.27344
1762.08	16.7342
1762.34	-6.10535
1762.6	18.5995
1762.85	8.22571
1763.11	16.8397
1763.36	-5.01218
1763.62	0.682434
1763.87	15.9175
1764.13	-5.91306
1764.38	4.6004
1764.64	18.9658
1764.89	13.4314
1765.15	21.123
1765.4	20.239
1765.66	13.6257
1765.92	-0.616302
1766.17	12.7363
1766.43	11.7937
1766.68	-3.44507
1766.94	32.7043
1767.19	17.4499
1767.45	16.4994
1767.7	12.6639
1767.96	10.708
1768.21	7.79532
1768.47	-0.809631
1768.73	7.72388
1768.98	9.60303
1769.24	17.0388
1769.49	-3.15619
1769.75	5.18222
1770	5.04202
1770.26	33.5501
1770.51	2.32373
1770.77	3.38965
1771.02	11.0066
1771.28	5.34592
1771.53	17.8257
1771.79	24.6499
1772.04	21.8638
1772.3	23.7991
1772.55	15.3224
1772.81	9.7135
1773.06	11.6926
1773.32	13.6581
1773.57	16.5733
1773.83	22.3393
1774.08	11.9199
1774.34	4.34775
1774.59	22.4699
1774.85	-0.349884
1775.1	6.38437
1775.36	34.9965
1775.61	6.51334
1775.87	1.00171
1776.12	24.9511
1776.38	15.4854
1776.63	19.3242
1776.89	-8.33371
1777.14	13.5453
1777.4	-9.39459
1777.65	10.5803
1777.91	18.1325
1778.16	13.2988
1778.42	30.3693
1778.67	0.776581
1778.93	16.8785
1779.18	5.3486
1779.44	-1.42389
1779.69	11.834
1779.95	12.787
1780.2	2.45398
1780.46	22.4794
1780.71	15.8586
1780.97	8.29153
1781.22	15.008
1781.47	4.55432
1781.73	-10.651
1781.98	12.2465
1782.24	6.60248
1782.49	10.4911
1782.75	15.3665
1783	14.4901
1783.26	5.97498
1783.51	23.1864
1783.77	0.37793
1784.02	5.20932
1784.28	10.0485
1784.53	20.6263
1784.79	19.796
1785.04	11.2885
1785.29	16.1046
1785.55	13.2511
1785.8	10.3747
1786.06	-3.01749
1786.31	15.0698
1786.57	12.2244
1786.82	-23.9805
1787.08	18.0758
1787.33	5.77356
1787.58	11.6298
1787.84	28.9944
1788.09	15.8996
1788.35	4.71899
1788.6	5.95941
1788.86	-9.16348
1789.11	2.40662
1789.37	8.26276
1789.62	-4.97675
1789.87	-3.90253
1790.13	3.82861
1790.38	4.85208
1790.64	8.75293
1790.89	3.97296
1791.15	14.5071
1791.4	10.583
1791.65	14.1558
1791.91	17
1792.16	8.34653
1792.42	13.1494
1792.67	12.2193
1792.93	1.71643
1793.18	9.44415
1793.43	-3.92181
1793.69	9.51062
1793.94	-0.0562744
1794.2	-6.698
1794.45	7.70093
1794.7	0.994476
1794.96	7.64453
1795.21	-4.6817
1795.47	11.9599
1795.72	6.4379
1795.97	19.0388
1796.23	6.63898
1796.48	-0.954468
1796.74	-6.62677
1796.99	-8.45569
1797.25	6.0502
1797.5	1.33578
1797.75	-1.46939
1798.01	-9.09406
1798.26	-1.34686
1798.51	0.624908
1798.77	17.9677
1799.02	9.32642
1799.28	1.61899
1799.53	4.46561
1799.78	15.9424
1800.04	-0.473938
1800.29	1.37943
1800.55	-0.594849
1800.8	3.2063
1801.05	17.5853
1801.31	2.19894
1801.56	6.99646
1801.81	-2.59979
1802.07	5.10852
1802.32	-2.53818
1802.58	23.4509
1802.83	10.0675
1803.08	7.2666
1803.34	14.0902
1803.59	13.2329
1803.84	20.0503
1804.1	8.56006
1804.35	15.3249
1804.61	6.73376
1804.86	18.369
1805.11	13.6493
1805.37	8.94418
1805.62	12.9129
1805.87	5.32568
1806.13	18.9121
1806.38	11.2936
1806.64	11.372
1806.89	-2.05066
1807.14	15.3429
1807.4	2.83786
1807.65	-0.0404358
1807.9	-0.993958
1808.16	7.69431
1808.41	-3.85513
1808.66	6.7666
1808.92	9.68048
1809.17	19.3448
1809.42	6.83936
1809.68	7.82718
1809.93	3.03436
1810.18	11.7383
1810.44	14.6545
1810.69	27.2021
1810.94	20.4397
1811.2	-5.60403
1811.45	2.11093
1811.7	-8.49438
1811.96	25.2501
1812.21	23.3359
1812.46	-15.1979
1812.72	7.99667
1812.97	5.17346
1813.22	5.25894
1813.48	10.1535
1813.73	-6.21222
1813.98	-1.31973
1814.24	-5.07687
1814.49	6.62915
1814.74	25.1065
1815	9.80853
1815.25	0.239899
1815.5	12.8778
1815.76	5.19226
1816.01	13.922
1816.26	16.8508
1816.52	4.31729
1816.77	14.9883
1817.02	18.8958
1817.27	1.47821
1817.53	5.29126
1817.78	-1.66382
1818.03	0.134003
1818.29	12.7188
1818.54	15.7039
1818.79	9.0683
1819.05	-3.418
1819.3	15.8963
1819.55	16.9037
1819.8	0.533569
1820.06	2.52609
1820.31	2.57364
1820.56	-3.16898
1820.82	9.46832
1821.07	18.229
1821.32	13.4432
1821.58	-11.6403
1821.83	2.94733
1822.08	12.6946
1822.33	10.8187
1822.59	7.96381
1822.84	5.09796
1823.09	17.7151
1823.34	20.6498
1823.6	13.8733
1823.85	18.6842
1824.1	-3.61374
1824.36	7.03006
1824.61	11.9128
1824.86	-3.52844
1825.11	21.688
1825.37	15.9315
1825.62	0.493958
1825.87	-2.3717
1826.12	29.6038
1826.38	1.52518
1826.63	-4.26904
1826.88	-0.375031
1827.14	12.2344
1827.39	1.61594
1827.64	-2.20978
1827.89	-0.216919
1828.15	20.1804
1828.4	8.56479
1828.65	5.64877
1828.9	5.61493
1829.16	-0.249817
1829.41	8.4357
1829.66	2.61621
1829.91	1.63931
1830.17	8.40186
1830.42	7.39105
1830.67	11.2231
1830.92	-0.432129
1831.18	11.195
1831.43	7.37891
1831.68	34.56
1831.93	1.70239
1832.19	20.1686
1832.44	0.858429
1832.69	17.3981
1832.94	5.86609
1833.2	11.7513
1833.45	-4.70944
1833.7	-9.53824
1833.95	7.95755
1834.2	7.98627
1834.46	9.96274
1834.71	-8.55698
1834.96	7.70148
1835.21	2.65524
1835.47	20.8556
1835.72	-2.48914
1835.97	8.04413
1836.22	11.9153
1836.48	0.218292
1836.73	21.3637
1836.98	7.72333
1837.23	-2.54401
1837.48	4.04785
1837.74	7.62631
1837.99	3.49454
1838.24	19.5055
1838.49	5.71512
1838.74	-1.09351
1839	19.9453
1839.25	16.4016
1839.5	17.5421
1839.75	12.7682
1840	13.8048
1840.26	15.8604
1840.51	14.4968
1840.76	10.3283
1841.01	15.8819
1841.27	-1.73306
1841.52	1.94128
1841.77	-5.00131
1842.02	-6.12759
1842.27	-15.9228
1842.53	-0.616913
1842.78	8.89545
1843.03	-2.59631
1843.28	10.873
1843.53	24.4352
1843.78	15.7546
1844.04	1.29321
1844.29	4.14966
1844.54	-0.667816
1844.79	-14.1125
1845.04	14.8438
1845.3	-2.58218
1845.55	11.9103
1845.8	-1.582
1846.05	1.495
1846.3	-1.20718
1846.55	20.214
1846.81	-8.46005
1847.06	3.87436
1847.31	15.8093
1847.56	-6.10577
1847.81	1.46509
1848.07	26.5095
1848.32	10.3716
1848.57	6.72672
1848.82	7.47745
1849.07	2.55627
1849.32	13.1686
1849.57	7.31488
1849.83	3.34967
1850.08	-0.624329
1850.33	1.18259
1850.58	-3.77576
1850.83	19.1761
1851.09	0.811371
1851.34	5.5314
1851.59	-1.26553
1851.84	7.32397
1852.09	2.48633
1852.34	3.43417
1852.59	13.0401
1852.84	12.0888
1853.1	1.53259
1853.35	0.56781
1853.6	-1.37167
1853.85	0.509735
1854.1	1.39465
1854.35	10.8802
1854.6	5.95074
1854.86	-3.7536
1855.11	1.94196
1855.36	2.84378
1855.61	-14.5241
1855.86	6.42834
1856.11	9.22958
1856.36	-7.08517
1856.61	-1.35236
1856.87	-3.26016
1857.12	-24.3269
1857.37	3.43835
1857.62	-0.422211
1857.87	14.8568
1858.12	11.9385
1858.37	0.390747
1858.63	7.013
1858.88	1.18161
1859.13	-0.822388
1859.38	9.60342
1859.63	8.54443
1859.88	2.74011
1860.13	-5.86655
1860.38	-14.461
1860.63	12.3426
1860.89	-17.212
1861.14	1.03894
1861.39	3.02249
1861.64	10.7646
1861.89	20.4109
1862.14	1.30301
1862.39	0.332062
1862.64	13.6716
1862.9	4.97653
1863.15	-1.81143
1863.4	-1.90369
1863.65	5.65482
1863.9	10.3491
1864.15	3.58405
1864.4	-0.307556
1864.65	9.17798
1864.9	7.19876
1865.15	9.02704
1865.4	6.06107
1865.66	9.75781
1865.91	-12.3198
1866.16	-0.0715942
1866.41	8.33862
1866.66	1.49234
1866.91	-3.43912
1867.16	-0.750366
1867.41	-0.915161
1867.66	-13.4326
1867.91	8.32733
1868.16	9.21106
1868.41	1.5647
1868.67	9.14841
1868.92	-7.9483
1869.17	7.29297
1869.42	0.642334
1869.67	-5.07584
1869.92	-5.09418
1870.17	-19.3685
1870.42	-1.32178
1870.67	-0.38446
1870.92	1.50735
1871.17	-5.14789
1871.42	10.0598
1871.67	2.43414
1871.92	3.34421
1872.17	-3.37094
1872.42	7.98596
1872.68	-0.597534
1872.93	4.08136
1873.18	15.3961
1873.43	12.4965
1873.68	13.4342
1873.93	-17.9173
1874.18	-6.5769
1874.43	2.84207
1874.68	2.75558
1874.93	1.7095
1875.18	7.29837
1875.43	10.9807
1875.68	-1.45285
1875.93	25.8789
1876.18	-3.71298
1876.43	-5.75195
1876.68	5.48358
1876.93	-10.6933
1877.18	8.17331
1877.43	1.34906
1877.68	-16.85
1877.93	2.51462
1878.18	17.9801
1878.44	9.15836
1878.69	8.56631
1878.93	8.38177
1879.19	5.4967
1879.44	11.5921
1879.69	8.95807
1879.94	12.6241
1880.19	9.65958
1880.44	-3.60886
1880.69	11.5193
1880.94	-0.685364
1881.19	-14.0259
1881.44	-0.784027
1881.69	12.298
1881.94	6.41663
1882.19	9.99197
1882.44	0.320587
1882.69	-3.69214
1882.94	-7.74957
1883.19	6.2919
1883.44	-1.55289
1883.69	-6.35376
1883.94	15.4812
1884.19	3.04129
1884.44	10.6226
1884.69	13.717
1884.94	-7.24164
1885.19	3.29419
1885.44	6.35236
1885.69	-2.06949
1885.94	20.6402
1886.19	12.3692
1886.44	5.86975
1886.69	18.2236
1886.94	-10.1435
1887.19	-15.0273
1887.44	1.87845
1887.69	-5.75992
1887.94	-0.193176
1888.19	4.42313
1888.44	10.9109
1888.69	-1.50189
1888.94	-0.697357
1889.19	-4.58951
1889.44	-0.0020752
1889.69	15.9392
1889.94	8.40182
1890.19	4.62509
1890.44	-15.0954
1890.69	1.9552
1890.94	-13.0071
1891.19	-5.43451
1891.43	9.62894
1891.68	12.4239
1891.94	14.3085
1892.18	2.04669
1892.43	2.97485
1892.68	-1.73965
1892.93	12.3314
1893.18	14.1334
1893.43	7.39996
1893.68	8.11084
1893.93	1.33044
1894.18	-6.23074
1894.43	-8.03415
1894.68	-10.0547
1894.93	-11.0586
1895.18	-10.1415
1895.43	1.15323
1895.68	-11.0199
1895.93	14.4023
1896.18	4.12613
1896.43	-3.32813
1896.68	8.03024
1896.93	1.54178
1897.18	-3.07806
1897.42	10.1537
1897.68	10.2043
1897.92	2.70862
1898.17	1.77576
1898.42	20.5718
1898.67	-5.80417
1898.92	6.35764
1899.17	7.21017
1899.42	7.11032
1899.67	1.40027
1899.92	6.06342
1900.17	14.4738
1900.42	-4.35916
1900.67	11.6053
1900.92	1.2959
1901.16	13.5621
1901.41	8.94635
1901.66	-3.17172
1901.91	3.50027
1902.16	-19.9088
1902.41	15.9333
1902.66	-15.9447
1902.91	6.64667
1903.16	14.1452
1903.41	3.7648
1903.66	-0.977814
1903.91	9.33893
1904.16	0.858856
1904.41	0.849335
1904.65	14.9494
1904.9	-9.4996
1905.15	-10.4517
1905.4	16.8042
1905.65	0.827271
1905.9	-15.1664
1906.15	-5.87253
1906.4	8.08676
1906.65	10.856
1906.9	7.05862
1907.14	-10.8171
1907.39	7.94449
1907.64	14.5331
1907.89	5.17838
1908.14	5.24478
1908.39	16.6088
1908.64	-0.254639
1908.89	11.0548
1909.14	-1.1044
1909.39	6.49155
1909.63	3.76895
1909.88	8.58844
1910.13	14.3712
1910.38	-8.05432
1910.63	2.45383
1910.88	11.069
1911.13	5.52768
1911.38	10.3151
1911.62	6.60138
1911.87	7.57196
1912.12	10.406
1912.37	4.73615
1912.62	5.66003
1912.87	12.255
1913.12	6.61423
1913.37	10.3945
1913.61	13.247
1913.86	4.84622
1914.11	6.86456
1914.36	-3.3576
1914.61	18.4364
1914.86	-0.321716
1915.11	15.8166
1915.36	-14.2759
1915.6	3.72198
1915.85	-8.50833
1916.1	5.64798
1916.35	-13.2464
1916.6	8.44394
1916.85	5.56467
1917.1	-3.94547
1917.34	-8.72183
1917.59	12.9162
1917.84	10.9977
1918.09	0.613342
1918.34	6.293
1918.59	3.53598
1918.83	3.64197
1919.08	6.59805
1919.33	4.85104
1919.58	1.22406
1919.83	14.6326
1920.08	-4.09503
1920.33	11.1147
1920.57	4.53229
1920.82	16.7782
1921.07	3.59167
1921.32	-7.62918
1921.57	-1.83554
1921.81	10.5331
1922.06	1.14896
1922.31	-3.52954
1922.56	-12.9741
1922.81	20.106
1923.06	-6.42419
1923.31	-1.7438
1923.55	-7.44342
1923.8	-2.73749
1924.05	0.0717468
1924.3	-2.80978
1924.55	10.3568
1924.79	3.70364
1925.04	-6.69214
1925.29	6.5643
1925.54	10.4125
1925.79	-2.71515
1926.04	-3.51999
1926.28	9.84793
1926.53	2.40442
1926.78	-8.82037
1927.03	14.9843
1927.28	-3.84583
1927.52	9.48654
1927.77	9.56018
1928.02	-9.31412
1928.27	-12.0949
1928.52	9.75098
1928.76	17.3741
1929.01	17.4449
1929.26	-0.490021
1929.51	-5.14828
1929.76	0.644928
1930	0.789246
1930.25	11.3445
1930.5	-2.74347
1930.75	-3.57773
1931	2.24377
1931.24	0.390961
1931.49	2.31549
1931.74	-5.29785
1931.99	1.30728
1932.24	10.7565
1932.48	-9.21918
1932.73	4.97165
1932.98	4.91992
1933.23	14.4022
1933.47	-6.51038
1933.72	-3.62454
1933.97	-4.43942
1934.22	11.9161
1934.46	4.61142
1934.71	-5.4588
1934.96	6.32861
1935.21	-5.72253
1935.46	-3.54919
1935.7	11.9247
1935.95	14.9453
1936.2	14.6734
1936.45	-0.60434
1936.69	1.28967
1936.94	11.7332
1937.19	4.99048
1937.44	4.90201
1937.68	1.97244
1937.93	21.8929
1938.18	-12.4411
1938.43	-4.89542
1938.68	-2.02869
1938.92	7.65118
1939.17	-9.42172
1939.42	-1.72525
1939.67	-9.26013
1939.91	9.86023
1940.16	8.9935
1940.41	8.07404
1940.66	17.7236
1940.9	-5.03326
1941.15	11.4716
1941.4	-10.2964
1941.64	7.85056
1941.89	10.6738
1942.14	2.90625
1942.39	-0.190002
1942.63	-3.83682
1942.88	-12.9433
1943.13	-6.14813
1943.38	-2.29584
1943.62	8.05151
1943.87	1.1976
1944.12	4.88416
1944.37	9.94
1944.61	1.45764
1944.86	3.4711
1945.11	-16.4707
1945.35	-10.6237
1945.6	-2.86298
1945.85	5.85681
1946.1	-13.1519
1946.34	4.1507
1946.59	8.05634
1946.84	-8.13797
1947.09	3.38083
1947.33	9.12729
1947.58	6.23822
1947.83	14.8175
1948.07	-11.9502
1948.32	6.23123
1948.57	-11.9236
1948.82	9.09601
1949.06	-9.99017
1949.31	5.4024
1949.56	-5.01712
1949.8	-17.3506
1950.05	4.77933
1950.3	3.9505
1950.54	1.27203
1950.79	1.48154
1951.04	-6.02008
1951.29	5.66394
1951.53	0.100189
1951.78	16.591
1952.03	4.26135
1952.27	7.2431
1952.52	-2.27759
1952.77	-7.95529
1953.01	-4.11157
1953.26	-2.09726
1953.51	-7.73892
1953.76	13.2979
1954	2.59079
1954.25	-0.539581
1954.49	-3.63156
1954.74	2.87808
1954.99	-1.12793
1955.24	-9.79111
1955.48	3.62418
1955.73	7.52496
1955.98	23.9501
1956.22	-10.3558
1956.47	4.34113
1956.72	-1.27927
1956.96	-2.08597
1957.21	-9.67664
1957.46	1.9632
1957.7	6.87344
1957.95	6.01215
1958.2	3.20892
1958.44	-6.33957
1958.69	-0.524261
1958.94	-11.0565
1959.18	-11.0704
1959.43	0.401489
1959.68	-8.26852
1959.92	-0.578278
1960.17	-11.1902
1960.42	8.93576
1960.66	-9.35651
1960.91	-0.764008
1961.16	3.97726
1961.4	1.04266
1961.65	0.998138
1961.9	1.93506
1962.14	4.84756
1962.39	12.5695
1962.63	-0.830902
1962.88	-3.67206
1963.13	-18.0326
1963.37	9.84076
1963.62	5.07626
1963.87	-6.40814
1964.11	8.03293
1964.36	8.10577
1964.61	3.37115
1964.85	7.22534
1965.1	-11.0311
1965.35	-1.40033
1965.59	-3.31573
1965.84	11.1166
1966.08	-18.5894
1966.33	8.40198
1966.58	-6.85358
1966.82	-8.66312
1967.07	9.68198
1967.32	-1.77713
1967.56	14.5713
1967.81	-1.74438
1968.05	-15.1449
1968.3	1.23471
1968.55	-3.53235
1968.79	-12.1716
1969.04	-7.38129
1969.29	-7.43182
1969.53	6.90186
1969.78	3.90784
1970.02	22.0411
1970.27	-11.6516
1970.52	19.9605
1970.76	4.56519
1971.01	10.2708
1971.25	1.59344
1971.5	-8.98489
1971.75	4.42606
1971.99	-2.29871
1972.24	1.59012
1972.48	-5.06256
1972.73	7.45261
1972.98	3.63269
1973.22	6.49622
1973.47	13.1618
1973.71	9.25369
1973.96	3.4454
1974.21	5.32932
1974.45	6.27423
1974.7	3.40497
1974.94	13.0144
1975.19	-5.15961
1975.44	0.648895
1975.68	2.6427
1975.93	17.1133
1976.17	1.84943
1976.42	-0.961975
1976.66	11.5579
1976.91	13.5151
1977.16	6.82587
1977.4	3.95868
1977.65	-5.63791
1977.89	-8.53796
1978.14	7.72363
1978.39	1.92554
1978.63	15.3129
1978.88	26.792
1979.12	-9.63422
1979.37	9.55801
1979.61	-2.86563
1979.86	12.4969
1980.1	16.3722
1980.35	4.90033
1980.6	16.3857
1980.84	12.4996
1981.09	7.66089
1981.33	-4.8067
1981.58	6.65457
1981.82	-2.94598
1982.07	5.67017
1982.31	-0.0672913
1982.56	8.56052
1982.81	2.77277
1983.05	-0.14505
1983.3	-5.96075
1983.54	5.42679
1983.79	17.7969
1984.03	14.9097
1984.28	6.29422
1984.52	10.1039
1984.77	-0.43512
1985.02	15.8113
1985.26	7.15891
1985.51	17.5892
1985.75	9.91412
1986	20.4547
1986.24	0.434418
1986.49	18.6803
1986.73	7.3046
1986.98	8.32193
1987.22	-6.01135
1987.47	-11.6933
1987.71	0.692871
1987.96	13.9792
1988.21	23.4175
1988.45	21.3687
1988.7	4.01782
1988.94	20.9291
1989.19	27.1847
1989.43	11.9301
1989.68	18.2028
1989.92	5.75879
1990.17	8.2092
1990.41	14.2072
1990.66	5.87741
1990.9	11.2
1991.15	10.1127
1991.39	10.4973
1991.64	19.6629
1991.88	19.6236
1992.13	21.5569
1992.37	13.8885
1992.62	9.84061
1992.86	25.1689
1993.11	15.958
1993.35	10.5132
1993.6	28.406
1993.84	6.92191
1994.09	6.21735
1994.33	12.1485
1994.58	17.614
1994.82	11.6105
1995.07	21.5421
1995.31	15.3228
1995.56	-5.76251
1995.8	16.821
1996.05	9.88275
1996.29	17.9784
1996.54	9.38965
1996.78	7.52167
1997.03	14.7241
1997.27	16.7045
1997.52	18.2291
1997.76	16.7294
1998.01	24.0589
1998.25	15.1903
1998.5	11.7388
1998.74	7.48312
1998.99	8.27213
1999.23	7.07532
1999.48	15.4616
1999.72	9.13699
1999.97	10.4465
2000.21	32.5494
2000.46	15.3709
2000.7	17.2849
2000.95	18.4492
2001.19	18.1035
2001.43	18.4284
2001.68	15.7944
2001.92	12.9444
2002.17	11.4225
2002.41	7.97665
2002.66	15.2253
2002.9	20.774
2003.15	18.6538
2003.39	17.2099
2003.64	11.0934
2003.88	12.7268
2004.13	17.6798
2004.37	10.4595
2004.61	7.25937
2004.86	8.77652
2005.1	14.7314
2005.35	11.6987
2005.59	13.5637
2005.84	22.5482
2006.08	18.8088
2006.33	23.8148
2006.57	24.3645
2006.81	14.1468
2007.06	7.87231
2007.3	8.92029
2007.55	12.4039
2007.79	16.433
2008.04	15.5012
2008.28	16.8778
2008.53	12.6322
2008.77	10.1068
2009.01	20.4681
2009.26	12.3599
2009.5	5.29626
2009.75	8.77838
2009.99	19.2021
2010.24	17.3072
2010.48	18.3268
2010.73	1.11005
2010.97	2.23987
2011.21	8.30069
2011.46	2.99036
2011.7	19.1417
2011.95	15.3017
2012.19	4.84247
2012.43	12.1504
2012.68	20.6133
2012.92	17.7802
2013.17	12.0636
2013.42	28.8716
2013.67	21.1411
2013.91	7.87128
2014.16	17.1335
2014.41	15.0807
2014.66	-2.03348
2014.9	23.1314
2015.15	15.5904
2015.4	24.0834
2015.64	14.7863
2015.89	29.9114
2016.14	22.4827
2016.39	32.7867
2016.63	5.70032
2016.88	10.7516
2017.13	12.7233
2017.37	8.9639
2017.62	7.04376
2017.87	5.08835
2018.11	8.73697
2018.36	11.4094
2018.61	-0.947968
2018.86	19.5579
2019.1	28.7961
2019.35	3.32968
2019.6	3.19748
2019.84	15.3194
2020.09	10.5998
2020.34	2.16354
2020.58	4.99158
2020.83	28.4127
2021.08	-3.41968
2021.33	-8.05011
2021.57	6.99124
2021.82	7.0217
2022.07	22.9516
2022.31	6.08008
2022.56	12.6008
2022.81	5.99066
2023.05	26.5034
2023.3	11.4301
2023.55	12.2988
2023.8	11.2935
2024.04	16.8353
2024.29	14.8958
2024.54	13.9027
2024.78	-3.03473
2025.03	-1.28665
2025.27	7.93561
2025.52	3.15771
2025.77	14.2557
2026.02	1.10162
2026.26	14.9671
2026.51	-1.74765
2026.76	-3.42276
2027	8.08463
2027.25	0.977234
2027.5	8.86325
2027.74	-6.77734
2027.99	1.61594
2028.23	6.04443
2028.48	23.4162
2028.73	-0.158997
2028.98	-12.9828
2029.22	16.7179
2029.47	14.9096
2029.72	17.2324
2029.96	10.8654
2030.21	-6.39899
2030.45	3.40527
2030.7	10.874
2030.95	1.22141
2031.19	-2.16119
2031.44	11.1909
2031.69	5.55624
2031.93	1.85831
2032.18	5.6348
2032.43	-1.67258
2032.67	9.70535
2032.92	4.2959
2033.17	19.4222
2033.41	-5.66296
2033.66	8.47919
2033.91	9.57709
2034.15	2.19089
2034.4	-4.54721
2034.64	15.7447
2034.89	9.71909
2035.14	8.70319
2035.38	0.524323
2035.63	-0.227875
2035.87	-1.81757
2036.12	16.291
2036.37	-1.21667
2036.61	-3.07339
2036.86	7.95291
2037.11	7.06393
2037.35	-2.14749
2037.6	16.5824
2037.84	6.30801
2038.09	12.8425
2038.34	16.5594
2038.58	4.37775
2038.83	-5.93747
2039.08	10.8459
2039.32	8.93964
2039.57	-7.91653
2039.81	1.38321
2040.06	5.05472
2040.31	-0.636566
2040.55	9.54272
2040.8	-5.46518
2041.04	15.9175
2041.29	23.3179
2041.54	1.82837
2041.78	7.42072
2042.03	-1.89468
2042.27	-1.9194
2042.52	5.51886
2042.77	-1.06143
2043.01	6.39227
2043.26	-11.2777
2043.5	18.6113
2043.75	16.9041
2044	15.2543
2044.24	2.41611
2044.49	4.3837
2044.73	9.995
2044.98	-4.06674
2045.23	-10.7513
2045.47	12.1941
2045.72	12.7746
2045.96	12.0148
2046.21	-5.06711
2046.45	13.4456
2046.7	0.0107422
2046.95	17.3762
2047.19	10.5467
2047.44	10.6007
2047.68	13.3047
2047.93	1.79544
2048.17	-0.125305
2048.42	-5.66415
2048.67	1.8508
2048.91	9.37469
2049.16	-11.0571
2049.4	-4.3826
2049.65	-8.91953
2049.89	14.5677
2050.14	-10.4372
2050.39	12.1248
2050.63	12.2878
2050.88	5.85583
2051.12	18.0606
2051.37	10.5955
2051.61	7.74051
2051.86	1.1124
2052.11	3.9465
2052.35	-9.07965
2052.6	12.5023
2052.84	-7.05365
2053.09	-6.03125
2053.33	2.483
2053.58	12.8858
2053.82	13.0381
2054.07	9.54681
2054.31	8.73264
2054.56	-8.94354
2054.8	13.5596
2055.05	-2.31473
2055.3	9.86102
2055.54	-13.5152
2055.79	3.25522
2056.03	1.37408
2056.28	7.9364
2056.52	9.80276
2056.77	6.98904
2057.01	-2.34784
2057.26	-5.11624
2057.5	7.09485
2057.75	-1.24548
2058	11.9365
2058.24	0.821838
2058.49	-20.5839
2058.73	-0.798065
2058.98	10.5675
2059.22	3.21191
2059.47	-10.7222
2059.71	-2.23138
2059.96	10.9385
2060.2	-2.11923
2060.45	3.48294
2060.69	-0.286774
2060.94	7.1933
2061.18	21.3252
2061.43	10.1975
2061.67	-4.69693
2061.92	9.40594
2062.16	9.45551
2062.41	12.3207
2062.65	-3.52597
2062.9	19.0358
2063.14	-16.4518
2063.39	5.21005
2063.63	10.9455
2063.88	-9.57086
2064.12	-0.111176
2064.37	0.903442
2064.61	16.9149
2064.86	8.57065
2065.1	9.61389
2065.35	3.19281
2065.59	-2.26337
2065.84	-2.10324
2066.08	0.858093
2066.33	0.0457153
2066.57	-9.24301
2066.82	12.4143
2067.06	-6.27948
2067.31	-4.31113
2067.55	8.91837
2067.8	4.32114
2068.04	6.31384
2068.29	9.23581
2068.53	4.62521
2068.78	-4.70615
2069.02	7.62103
2069.27	-1.73248
2069.51	9.5274
2069.76	-6.53104
2070	-5.73355
2070.25	8.32385
2070.49	-10.3771
2070.73	2.99506
2070.98	-8.96536
2071.22	-7.76468
2071.47	-10.5745
2071.71	-9.716
2071.96	-1.66226
2072.2	-2.38724
2072.45	18.3424
2072.69	-5.18842
2072.94	2.3739
2073.18	0.496643
2073.43	0.538605
2073.67	12.7975
2073.92	11.9189
2074.16	7.26917
2074.4	10.1628
2074.65	-5.75388
2074.89	0.0205688
2075.14	-3.59085
2075.38	-9.05508
2075.63	25.1205
2075.87	9.36597
2076.12	-2.7016
2076.36	-1.63492
2076.6	4.08334
2076.85	-19.4547
2077.09	16.4147
2077.34	7.87335
2077.58	-1.61749
2077.83	6.71786
2078.07	-2.71759
2078.31	3.97955
2078.56	-11.9192
2078.8	3.25659
2079.05	-3.26501
2079.29	-23.9197
2079.54	11.1442
2079.78	14.2281
2080.03	-20.5859
2080.27	-1.57639
2080.51	9.875
2080.76	-1.36282
2081	-6.98209
2081.25	2.46881
2081.49	-11.6893
2081.74	-8.8223
2081.98	9.16943
2082.22	10.143
2082.47	6.44281
2082.71	20.6951
2082.96	2.8111
2083.2	-10.365
2083.45	10.4633
2083.69	15.2154
2083.93	8.62851
2084.18	-9.27896
2084.42	4.94647
2084.67	5.93207
2084.91	10.7094
2085.15	1.31912
2085.4	4.20361
2085.64	-1.42212
2085.89	4.29575
2086.13	4.37204
2086.37	15.8729
2086.62	5.65848
2086.86	13.3718
2087.11	3.05606
2087.35	9.77771
2087.59	1.38007
2087.84	14.717
2088.08	13.8205
2088.32	-5.05365
2088.57	7.30771
2088.81	-0.197937
2089.06	-5.80783
2089.3	12.2439
2089.54	-2.78851
2089.79	4.90515
2090.03	-11.9822
2090.28	-0.52951
2090.52	-6.14453
2090.76	12.8801
2091.01	-12.6137
2091.25	-1.15002
2091.5	5.57825
2091.74	-16.1282
2091.98	-11.2353
2092.23	-5.37708
2092.47	8.08575
2092.72	2.57944
2092.96	15.1165
2093.2	11.4844
2093.45	9.7417
2093.69	0.400146
2093.93	1.50204
2094.18	10.1927
2094.42	7.47018
2094.66	-2.91473
2094.91	-0.966217
2095.15	-5.69229
2095.39	-4.72409
2095.64	4.75815
2095.88	12.3295
2096.13	13.2656
2096.37	8.51294
2096.61	4.72882
2096.86	-0.938873
2097.1	1.94186
2097.34	22.8281
2097.59	8.54324
2097.83	-2.88803
2098.07	10.416
2098.32	4.74509
2098.56	4.77228
2098.8	8.55542
2099.05	1.01147
2099.29	-5.59464
2099.53	0.123352
2099.78	-1.74506
2100.02	3.04089
2100.27	-5.44751
2100.51	7.90091
2100.75	8.92242
2101	-2.37582
2101.24	-1.2742
2101.48	-3.04218
2101.73	3.7077
2101.97	4.73337
2102.21	-5.66553
2102.45	4.82111
2102.7	1.07358
2102.94	7.74594
2103.18	-16.9641
2103.43	-4.65582
2103.67	2.94116
2103.92	0.130737
2104.16	-1.74255
2104.4	-2.63452
2104.64	5.99463
2104.89	4.21133
2105.13	18.5693
2105.37	-5.06357
2105.62	-6.84048
2105.86	-21.9
2106.1	8.6377
2106.35	-3.62091
2106.59	4.07578
2106.83	0.345459
2107.08	4.21646
2107.32	-1.39871
2107.56	10.0748
2107.8	5.3237
2108.05	-0.411285
2108.29	-21.3755
2108.53	6.11429
2108.78	-0.599518
2109.02	-10.1338
2109.26	4.12457
2109.51	12.7385
2109.75	11.9502
2109.99	-5.96036
2110.23	8.34412
2110.48	-1.10385
2110.72	-5.8042
2110.96	1.84509
2111.21	7.59641
2111.45	3.84277
2111.69	7.66397
2111.93	13.3544
2112.18	20.958
2112.42	-16.0536
2112.66	-22.6525
2112.91	7.8288
2113.15	0.325317
2113.39	-0.523865
2113.63	-7.97116
2113.88	18.7753
2114.12	-0.140839
2114.36	-9.61905
2114.61	8.45224
2114.85	4.69302
2115.09	4.76367
2115.33	-3.72879
2115.58	-4.6506
2115.82	-14.1382
2116.06	13.4374
2116.31	-8.40085
2116.55	-6.53265
2116.79	-2.76169
2117.03	-3.69876
2117.28	3.92801
2117.52	-15.0301
2117.76	10.6779
2118	-4.50699
2118.25	5.92255
2118.49	-2.63959
2118.73	9.63873
2118.97	-6.56406
2119.22	-4.70956
2119.46	-8.5387
2119.7	1.85541
2119.94	10.3516
2120.19	-3.89127
2120.43	-4.84744
2120.67	1.81509
2120.91	-6.64886
2121.16	-4.63351
2121.4	5.88315
2121.64	12.6663
2121.88	5.23804
2122.13	-2.2038
2122.37	-1.11655
2122.61	10.3994
2122.85	1.02707
2123.1	4.93231
2123.34	-14.9011
2123.58	-2.474
2123.82	8.98737
2124.07	0.462036
2124.31	13.7565
2124.55	-0.500549
2124.79	-4.35159
2125.03	-0.669312
2125.28	-17.8796
2125.52	-5.68588
2125.76	3.6976
2126	14.9841
2126.25	-7.80939
2126.49	1.60019
2126.73	5.34888
2126.97	-3.20172
2127.21	-11.7509
2127.46	-4.21814
2127.7	13.7627
2127.94	5.28375
2128.18	-5.08871
2128.43	-4.13477
2128.67	5.34421
2128.91	-12.5615
2129.15	-10.6162
2129.39	5.48901
2129.64	3.61752
2129.88	7.42203
2130.12	-8.61017
2130.36	-2.9072
2130.6	-3.82419
2130.85	4.70099
2131.09	-9.45923
2131.33	-1.89871
2131.57	8.48331
2131.81	3.74765
2132.06	4.68549
2132.3	9.41824
2132.54	0.926178
2132.78	12.224
2133.02	2.76089
2133.27	11.2661
2133.51	-8.50232
2133.75	11.3842
2133.99	0.129883
2134.23	9.62421
2134.48	-7.29086
2134.72	7.87552
2134.96	9.80527
2135.2	7.01498
2135.44	-10.8743
2135.68	-8.01035
2135.93	-0.449219
2136.17	7.0798
2136.41	-2.42664
2136.65	5.98843
2136.89	14.4641
2137.14	-13.7456
2137.38	-7.07608
2137.62	7.12738
2137.86	6.284
2138.1	3.59924
2138.34	10.222
2138.59	4.4978
2138.83	16.716
2139.07	16.8488
2139.31	-11.25
2139.55	3.04691
2139.79	5.72125
2140.03	-4.75134
2140.28	5.59634
2140.52	14.0656
2140.76	0.876556
2141	-8.53387
2141.24	-0.977264
2141.49	1.86896
2141.73	0.045105
2141.97	0.956726
2142.21	-4.73062
2142.45	-17.8906
2142.69	1.93079
2142.93	-17.7056
2143.18	5.00967
2143.42	7.29059
2143.66	-3.18481
2143.9	5.2402
2144.14	15.6282
2144.38	-2.09433
2144.62	-8.47723
2144.87	-11.1058
2145.11	6.90182
2145.35	1.07367
2145.59	18.0867
2145.83	-7.22714
2146.07	11.6089
2146.31	15.3883
2146.55	11.6454
2146.8	4.14511
2147.04	9.80545
2147.28	6.05804
2147.52	-3.34357
2147.76	-3.34445
2148	-3.34097
2148.24	-3.32932
2148.48	7.94824
2148.73	17.3447
2148.97	8.89191
2149.21	19.2089
2149.45	20.1136
2149.69	8.80374
2149.93	1.17789
2150.17	5.82639
2150.42	3.89151
2150.66	3.86169
2150.9	-4.56201
2151.14	-3.57834
2151.38	9.63379
2151.62	-0.55368
2151.86	8.91898
2152.1	-1.27618
2152.34	7.24692
2152.58	-4.83243
2152.83	-1.08725
2153.07	16.726
2153.31	11.0767
2153.55	-5.81189
2153.79	-1.10522
2154.03	-13.2721
2154.27	-0.16571
2154.51	11.0301
2154.75	-12.472
2154.99	13.6243
2155.24	-8.01169
2155.48	-12.8148
2155.72	-0.731903
2155.96	1.0697
2156.2	-9.25998
2156.44	-12.0846
2156.68	-2.72971
2156.92	7.5827
2157.16	-3.58286
2157.4	4.88116
2157.64	5.90057
2157.89	4.14471
2158.13	-7.87302
2158.37	9.07104
2158.61	-10.4852
2158.85	4.52237
2159.09	-3.85336
2159.33	-0.0955811
2159.57	2.71115
2159.81	1.7644
2160.05	-6.67078
2160.29	2.62387
2160.53	2.57547
2160.77	-4.92856
2161.01	-3.08612
2161.25	13.721
2161.5	6.28824
2161.74	7.23743
2161.98	9.11838
2162.22	9.15814
2162.46	-1.05045
2162.7	0.872101
2162.94	-0.0129089
2163.18	6.5361
2163.42	11.1996
2163.66	10.2757
2163.9	-3.6998
2164.14	19.6212
2164.38	0.979462
2164.62	2.81061
2164.86	2.75754
2165.11	8.33618
2165.35	0.953949
2165.59	-0.813721
2165.83	-3.54883
2166.07	11.4223
2166.31	-3.42813
2166.55	11.4879
2166.79	14.2926
2167.03	12.4215
2167.27	-0.646027
2167.51	2.1423
2167.75	6.75729
2167.99	2.96588
2168.23	13.054
2168.47	-18.6918
2168.71	-1.03363
2168.95	-2.84717
2169.19	5.59885
2169.43	11.2883
2169.67	3.98871
2169.91	9.74179
2170.15	-8.67157
2170.39	11.0894
2170.63	-5.52307
2170.87	12.2625
2171.11	13.2201
2171.35	3.88251
2171.59	10.4175
2171.83	3.79083
2172.07	2.62854
2172.31	6.25076
2172.56	-2.13693
2172.79	-1.22247
2173.04	3.42355
2173.28	-11.3982
2173.51	5.37427
2173.76	-4.79553
2174	5.50922
2174.24	4.68863
2174.48	15.0053
2174.72	14.1506
2174.96	4.91772
2175.2	17.9817
2175.44	5.01822
2175.68	3.18811
2175.92	0.429504
2176.16	0.471039
2176.4	-1.35321
2176.64	7.03076
2176.88	-0.410065
2177.12	-4.09607
2177.36	-3.11047
2177.6	6.24524
2177.84	12.8108
2178.08	-11.2948
2178.32	-1.93463
2178.55	-0.059845
2178.8	-6.61353
2179.03	14.7168
2179.28	-6.5925
2179.52	-3.73389
2179.75	-13.8856
2180	1.03058
2180.23	1.08459
2180.47	-8.14783
2180.71	2.10974
2180.95	3.99622
2181.19	12.3809
2181.43	8.71179
2181.67	2.24362
2181.91	-10.7436
2182.15	2.26044
2182.39	-6.98575
2182.63	3.22525
2182.87	8.80893
2183.11	13.4647
2183.35	1.3812
2183.59	-16.2738
2183.83	9.6268
2184.07	15.1561
2184.31	13.2921
2184.55	-17.2899
2184.79	-3.35397
2185.03	-12.5507
2185.27	-0.409698
2185.51	-25.3455
2185.75	-2.09
2185.99	11.9198
2186.23	3.70151
2186.47	11.2491
2186.7	-1.60599
2186.95	2.27545
2187.18	8.02115
2187.42	-5.72552
2187.66	8.37411
2187.9	-5.41208
2188.14	-3.4765
2188.38	-5.3205
2188.62	3.95273
2188.86	-1.64044
2189.1	2.97003
2189.34	5.71243
2189.58	1.94601
2189.82	4.65125
2190.06	9.23041
2190.3	2.74295
2190.54	-8.34125
2190.78	-1.78763
2191.01	-2.62436
2191.25	-10.8796
2191.49	-2.47873
2191.73	-10.7443
2191.97	15.3088
2192.21	0.564575
2192.45	12.7137
2192.69	-6.67493
2192.93	-3.79993
2193.17	-17.5944
2193.41	4.79977
2193.65	-8.99887
2193.89	5.99878
2194.13	-0.271912
2194.36	-3.7388
2194.6	11.3192
2194.84	8.65985
2195.08	5.90491
2195.32	-13.6067
2195.56	4.06955
2195.8	-6.15942
2196.04	-22.9117
2196.28	10.4753
2196.52	2.0321
2196.76	-0.825287
2197	-10.1472
2197.23	15.8128
2197.47	-2.7536
2197.71	0.0261841
2197.95	4.72232
2198.19	-16.5432
2198.43	-1.60294
2198.67	5.04376
2198.91	-9.64725
2199.15	4.45157
2199.38	1.8613
2199.62	-16.5452
2199.86	0.366028
2200.1	-1.30463
2200.34	12.895
2200.58	6.65796
2200.82	14.3522
2201.06	5.26312
2201.3	7.30307
2201.54	-6.51889
2201.77	-3.83026
2202.01	-6.96927
2202.25	3.40103
2202.49	-11.9544
2202.73	-0.517395
2202.97	3.9472
2203.21	-0.331696
2203.45	-9.68735
2203.68	-4.13315
2203.92	10.2255
2204.16	4.12851
2204.4	-0.0391235
2204.64	6.51334
2204.88	-2.68738
2205.12	7.35089
2205.36	3.32199
2205.59	11.4342
2205.83	11.2626
2206.07	-4.54745
2206.31	4.81506
2206.55	4.0343
2206.79	7.82446
2207.03	-5.28424
2207.26	10.6015
2207.5	6.06979
2207.74	-8.67847
2207.98	-0.169189
2208.22	-13.0529
2208.46	3.83752
2208.7	7.69934
2208.93	10.6225
2209.17	-3.22888
2209.41	5.25031
2209.65	14.6454
2209.89	0.735229
2210.13	-19.708
2210.36	10.1651
2210.6	1.89114
2210.84	1.07364
2211.08	-6.25916
2211.32	-3.34299
2211.56	6.09457
2211.8	-0.306244
2212.03	10.0933
2212.27	-1.88651
2212.51	5.69214
2212.75	15.108
2212.99	-0.720306
2213.23	8.62372
2213.46	9.57468
2213.7	5.83722
2213.94	-8.16129
2214.18	4.97055
2214.42	6.97202
2214.66	-2.13443
2214.89	-2.85831
2215.13	-1.82535
2215.37	8.53467
2215.61	-18.4556
2215.85	-10.9122
2216.08	-12.7126
2216.32	-17.322
2216.56	-6.99976
2216.8	5.18411
2217.04	-6.9137
2217.28	1.53018
2217.51	13.7231
2217.75	-3.94275
2217.99	0.800934
2218.23	12.9945
2218.47	-0.957855
2218.7	2.85129
2218.94	1.08066
2219.18	13.3345
2219.42	0.386871
2219.66	-6.95654
2219.9	-5.92166
2220.13	3.52957
2220.37	-8.52325
2220.61	-4.73669
2220.85	-9.36945
2221.09	0.0195618
2221.32	19.6601
2221.56	-7.47336
2221.8	-21.5293
2222.04	8.32681
2222.27	1.77255
2222.51	8.31439
2222.75	11.1608
2222.99	-2.75543
2223.23	-0.774292
2223.46	-9.06317
2223.7	-8.00647
2223.94	0.550781
2224.18	8.19968
2224.42	-13.1191
2224.65	8.55396
2224.89	5.90533
2225.13	-3.30487
2225.37	-15.3276
2225.6	6.35074
2225.84	3.71402
2226.08	14.1613
2226.32	15.2412
2226.56	6.01877
2226.79	16.4457
2227.03	23.1517
2227.27	-3.89523
2227.51	5.60031
2227.74	-9.29724
2227.98	19.8573
2228.22	14.2785
2228.46	0.240051
2228.69	20.8969
2228.93	4.05026
2229.17	2.21204
2229.41	10.6858
2229.64	-8.00677
2229.88	-6.00931
2230.12	0.714844
2230.36	7.43488
2230.6	-3.69519
2230.83	1.12961
2231.07	-5.30313
2231.31	17.3702
2231.55	4.37585
2231.78	0.772705
2232.02	13.1207
2232.26	-23.3904
2232.5	9.63791
2232.73	-5.26718
2232.97	-2.31784
2233.21	9.10007
2233.45	12.9931
2233.68	7.47995
2233.92	0.0848999
2234.16	3.96317
2234.39	9.7132
2234.63	9.74936
2234.87	-13.7542
2235.11	6.021
2235.34	2.24457
2235.58	4.04434
2235.82	-1.64026
2236.06	0.307129
2236.29	-4.3204
2236.53	-16.4669
2236.77	11.8278
2237	-4.08743
2237.24	14.804
2237.48	-4.79987
2237.72	-7.48331
2237.95	7.784
2238.19	-5.17731
2238.43	7.2764
2238.67	7.44464
2238.9	9.49286
2239.14	-1.64429
2239.38	-0.501556
2239.61	2.41385
2239.85	-27.7494
2240.09	-3.21609
2240.33	10.8794
2240.56	11.7837
2240.8	-6.11514
2241.04	2.59381
2241.27	2.80069
2241.51	8.5455
2241.75	-5.52338
2241.99	-3.54764
2242.22	-0.633881
2242.46	9.84052
2242.7	8.05505
2242.93	5.33121
2243.17	-9.70731
2243.41	12.0492
2243.64	-0.216034
2243.88	-0.215973
2244.12	9.24985
2244.36	7.40964
2244.59	6.53772
2244.83	-12.2215
2245.07	1.16605
2245.3	-6.17316
2245.54	3.47403
2245.78	-3.93707
2246.01	-0.966766
2246.25	-19.7368
2246.49	13.4972
2246.72	2.27365
2246.96	0.47937
2247.2	11.0045
2247.43	-10.6414
2247.67	-7.70441
2247.91	9.40787
2248.14	12.3007
2248.38	-3.75015
2248.62	-22.6419
2248.85	1.9978
2249.09	-0.803253
2249.33	5.85748
2249.56	-3.56161
2249.8	15.491
2250.04	-9.00885
2250.27	2.40341
2250.51	8.0918
2250.75	-8.01053
2250.98	-1.40775
2251.22	-8.06082
2251.46	-5.23422
2251.69	1.38828
2251.93	-5.19193
2252.17	-14.5729
2252.4	-5.01776
2252.64	17.7982
2252.88	-9.49271
2253.11	-16.8837
2253.35	7.04388
2253.59	-6.00693
2253.82	5.53448
2254.06	10.4249
2254.3	5.81781
2254.53	4.05716
2254.77	-9.10483
2255.01	7.08051
2255.24	8.05005
2255.48	0.543243
2255.72	1.55338
2255.95	-3.11371
2256.19	7.39264
2256.42	21.7457
2256.66	-1.83292
2256.9	-9.29745
2257.13	11.7
2257.37	-0.512207
2257.61	9.10275
2257.84	0.678986
2258.08	1.73019
2258.32	-16.2303
2258.55	-0.0108643
2258.79	-5.62387
2259.02	6.81949
2259.26	-14.9141
2259.5	-1.4971
2259.73	7.1514
2259.97	-0.358337
2260.2	-5.00644
2260.44	-11.56
2260.68	-1.00696
2260.91	-0.910645
2261.15	3.96301
2261.39	0.3414
2261.62	-1.41983
2261.86	5.31802
2262.1	-12.6768
2262.33	1.68793
2262.57	19.8633
2262.8	8.55832
2263.04	32.5026
2263.28	-5.43457
2263.51	8.06073
2263.75	2.52451
2263.98	9.39172
2264.22	-15.1852
2264.46	-2.58459
2264.69	0.47052
2264.93	-15.5854
2265.16	-0.15976
2265.4	12.3944
2265.64	9.65988
2265.87	4.95715
2266.11	8.85483
2266.34	6.01871
2266.58	4.08377
2266.81	16.4652
2267.05	12.6088
2267.29	1.13013
2267.52	-20.8189
2267.76	2.08472
2267.99	-11.2701
2268.23	0.152374
2268.47	-3.66602
2268.7	13.5339
2268.94	5.97958
2269.17	-5.35049
2269.41	-3.30164
2269.65	-3.14096
2269.88	-3.92657
2270.12	12.4769
2270.35	-17.8865
2270.59	10.9495
2270.82	12.9973
2271.06	-4.09433
2271.3	0.828461
2271.53	-14.3397
2271.77	4.89203
2272	-4.55566
2272.24	-4.42371
2272.47	-15.8033
2272.71	-13.8213
2272.95	2.52127
2273.18	7.38654
2273.42	10.3412
2273.65	-2.01666
2273.89	12.4193
2274.12	8.67419
2274.36	-5.60101
2274.6	-4.56519
2274.83	7.95898
2275.07	14.7428
2275.3	10.0455
2275.54	15.8729
2275.77	0.641052
2276.01	8.3494
2276.24	16.1293
2276.48	13.4119
2276.72	-12.2964
2276.95	7.97
2277.18	10.9851
2277.42	1.54773
2277.66	5.57077
2277.89	-3.81674
2278.13	-13.206
2278.36	2.37531
2278.6	8.25711
2278.83	10.2685
2279.07	7.45337
2279.3	8.46112
2279.54	-3.98727
2279.78	5.60886
2280.01	-4.1004
2280.24	-2.22943
2280.48	9.24149
2280.72	5.3765
2280.95	-4.22522
2281.19	8.24557
2281.42	-2.27576
2281.66	3.48907
2281.89	11.1819
2282.13	17.9966
2282.36	-1.08481
2282.6	-11.515
2282.83	-1.79105
2283.07	7.95157
2283.3	1.38647
2283.54	2.51642
2283.77	6.57004
2284.01	-2.79398
2284.24	-12.1832
2284.48	-0.411346
2284.71	5.52231
2284.95	-12.6452
2285.19	-6.72568
2285.42	6.89163
2285.65	-3.60266
2285.89	-8.34113
2286.12	-1.62289
2286.36	13.6862
2286.59	2.19431
2286.83	-4.44788
2287.06	-12.0208
2287.3	19.0125
2287.54	-9.65628
2287.77	-1.8345
2288	-4.62042
2288.24	-2.52878
2288.47	9.06705
2288.71	12.9242
2288.94	1.37106
2289.18	17.7352
2289.41	1.31256
2289.65	-3.57788
2289.88	1.16635
2290.12	-8.54355
2290.35	0.119354
2290.59	3.98911
2290.82	5.9761
2291.06	8.93094
2291.29	-1.52637
2291.53	-10.0206
2291.76	-3.10046
2292	4.74579
2292.23	-4.75018
2292.47	6.92926
2292.7	0.325928
2292.94	-1.44815
2293.17	6.40469
2293.41	1.71735
2293.64	8.58292
2293.88	2.90607
2294.11	8.77435
2294.34	7.84457
2294.58	-18.1572
2294.81	-6.58713
2295.05	9.78256
2295.28	1.12177
2295.52	-4.646
2295.75	-8.48761
2295.99	-0.773041
2296.22	-1.71747
2296.46	4.03305
2296.69	7.78973
2296.93	-1.78931
2297.16	-16.1274
2297.39	-18.9005
2297.63	-10.1092
2297.86	-13.8138
2298.1	8.49982
2298.33	-1.90268
2298.57	8.84146
2298.8	11.8506
2299.04	13.9187
2299.27	-0.379608
2299.51	-7.95016
2299.74	-6.85733
2299.97	-12.5457
2300.21	4.87564
2300.44	0.118042
2300.68	4.03058
2300.91	8.96204
2301.15	13.916
2301.38	9.2041
2301.61	1.58966
2301.85	-3.14722
2302.08	10.4387
2302.32	6.62909
2302.55	19.2055
2302.79	-8.74591
2303.02	-1.91766
2303.25	-10.5489
2303.49	3.97034
2303.72	-13.343
2303.96	5.06387
2304.19	-4.48727
2304.43	-5.32593
2304.66	17.0033
2304.89	17.1109
2305.13	11.4363
2305.36	-14.508
2305.6	2.01996
2305.83	-13.356
2306.07	0.264526
2306.3	-6.3887
2306.53	7.2511
2306.77	-2.33386
2307	-10.9619
2307.24	1.66223
2307.47	-0.219299
2307.7	-1.15604
2307.94	7.55811
2308.17	10.4921
2308.41	11.4867
2308.64	2.82318
2308.87	2.88623
2309.11	-2.82983
2309.34	2.12106
2309.58	1.28201
2309.81	-8.22824
2310.04	0.653778
2310.28	-5.00595
2310.51	9.60446
2310.75	-25.1476
2310.98	16.5037
2311.21	-9.59042
2311.45	-2.8414
2311.68	7.6434
2311.92	-14.7526
2312.15	2.56519
2312.38	5.43033
2312.62	-3.2478
2312.85	10.2611
2313.08	7.38025
2313.32	-7.99969
2313.55	-2.10364
2313.79	7.7254
2314.02	1.1767
2314.25	-26.6631
2314.49	-1.37497
2314.72	3.6347
2314.95	-8.73138
2315.19	-5.64355
2315.42	7.05984
2315.66	-5.54996
2315.89	-8.47839
2316.12	16.6485
2316.36	13.7085
2316.59	-0.927216
2316.82	-11.5919
2317.06	4.83585
2317.29	-2.83353
2317.52	3.04324
2317.76	3.12799
2317.99	3.29117
2318.23	10.1844
2318.46	9.15317
2318.69	-4.36542
2318.93	-4.3504
2319.16	-14.9639
2319.39	15.9272
2319.63	22.6892
2319.86	4.37497
2320.09	12.1304
2320.33	-9.03302
2320.56	-4.13492
2320.79	20.0497
2321.03	-7.83588
2321.26	-6.75327
2321.5	4.95496
2321.73	0.260468
2321.96	-10.2195
2322.2	3.47049
2322.43	4.61642
2322.66	9.61029
2322.9	15.5123
2323.13	-4.74271
2323.36	3.07114
2323.6	7.99612
2323.83	8.08121
2324.06	13.9722
2324.3	16.9483
2324.53	-5.24518
2324.76	14.1393
2325	17.0089
2325.23	7.28867
2325.46	13.9797
2325.7	11.0558
2325.93	25.5286
2326.16	26.479
2326.4	36.113
2326.63	27.4034
2326.86	35.0988
2327.09	49.5435
2327.33	56.2658
2327.56	90.9445
2327.79	129.502
2328.03	162.253
2328.26	143.944
2328.49	127.646
2328.73	107.471
2328.96	77.6649
2329.19	52.582
2329.43	52.5628
2329.66	12.056
2329.89	12.0822
2330.13	27.5374
2330.36	26.6881
2330.59	27.6852
2330.82	15.1938
2331.06	8.47897
2331.29	14.3054
2331.52	16.3196
2331.76	15.4746
2331.99	9.81943
2332.22	-13.1555
2332.46	-6.44733
2332.69	-9.3468
2332.92	5.1084
2333.16	-0.658875
2333.39	1.27936
2333.62	8.03265
2333.85	4.20218
2334.09	-4.43372
2334.32	-3.46051
2334.55	-11.158
2334.79	9.01132
2335.02	6.13028
2335.25	-0.579193
2335.48	-3.41614
2335.72	12.9716
2335.95	8.23874
2336.18	0.631348
2336.41	-19.5157
2336.65	-7.95258
2336.88	-4.06894
2337.11	-1.14001
2337.34	2.7518
2337.58	1.83212
2337.81	-7.73709
2338.04	-3.86206
2338.28	-12.4785
2338.51	-9.55136
2338.74	2.02515
2338.97	18.4134
2339.21	-6.50333
2339.44	4.13797
2339.67	4.19608
2339.91	7.12766
2340.14	-2.45428
2340.37	7.17032
2340.6	5.24493
2340.84	12.9261
2341.07	-1.50577
2341.3	-0.58783
2341.53	-5.44531
2341.77	1.19388
2342	-1.73053
2342.23	-4.6149
2342.46	15.5205
2342.7	-7.48938
2342.93	27.0409
2343.16	3.11005
2343.39	2.2023
2343.63	-19.7839
2343.86	-4.405
2344.09	5.22308
2344.32	-0.465332
2344.56	-6.13452
2344.79	-8.9404
2345.02	9.3205
2345.25	-8.85941
2345.49	7.45447
2345.72	1.70126
2345.95	5.49548
2346.18	0.694824
2346.41	-4.10556
2346.65	-8.86337
2346.88	0.74942
2347.11	-6.8728
2347.34	-9.72067
2347.58	-7.77753
2347.81	-1.02698
2348.04	-7.66528
2348.27	-17.1621
2348.5	-1.7435
2348.74	1.21371
2348.97	-4.47855
2349.2	14.6953
2349.43	5.11301
2349.67	5.96933
2349.9	-4.65601
2350.13	-1.9122
2350.36	9.39517
2350.59	6.31461
2350.83	4.93774
2351.06	-17.6702
2351.29	6.75522
2351.52	9.02576
2351.75	-1.069
2351.99	-1.75104
2352.22	-4.00735
2352.45	-10.6033
2352.68	-2.8703
2352.91	-2.0817
2353.15	23.379
2353.38	-4.46121
2353.61	-2.41217
2353.84	-9.05978
2354.07	-1.45575
2354.31	10.0308
2354.54	15.7827
2354.77	1.6377
2355	19.8807
2355.23	9.43835
2355.47	-1.9682
2355.7	-5.76028
2355.93	8.54657
2356.16	-14.307
2356.39	17.1117
2356.63	13.2327
2356.86	5.49228
2357.09	-4.10892
2357.32	0.62326
2357.55	4.41409
2357.79	-1.30099
2358.02	-0.354614
2358.25	6.29703
2358.48	-10.8002
2358.71	-17.4316
2358.94	-2.25534
2359.18	-3.19406
2359.41	2.52838
2359.64	5.40439
2359.87	6.35736
2360.1	-2.20499
2360.33	-7.93182
2360.57	3.4238
2360.8	-7.05276
2361.03	0.502411
2361.26	-17.559
2361.49	12.7497
2361.72	-3.4147
2361.96	-10.0938
2362.19	-0.663757
2362.42	-2.6142
2362.65	7.75381
2362.88	2.03397
2363.11	3.89856
2363.34	-3.69498
2363.58	1.97214
2363.81	4.81116
2364.04	1.97556
2364.27	1.97543
2364.5	10.4794
2364.73	5.73709
2364.97	0.996765
