#Acq. time (s)=	30
#Accumulations=	2
#Range (cm-¹)=	1200...2365
#Windows=	3
#Auto scanning=	Off
#Autofocus=	Off
#Macrospot=	Off
#AutoExposure=	Off
#Spike filter=	Multiple accum.
#Delay time (s)=	2
#Binning=	1
#Readout mode=	Signal
#DeNoise=	Off
#ICS correction=	On
#Dark correction=	Off
#Inst. Process=	Off
#Detector Gain=	Best Dynamic
#Detector ADC=	50 kHz HS
#Detector temperature (°C)=	-60.09
#Instrument=	LabRAM HR Evol
#Detector=	SIN-EM FIVIS
#Objective=	x100_VIS_LWD
#Grating=	1800 (450-850nm)
#ND Filter=	100%
#Laser=	532nm_Edge
#Hole=	49.98
#Temperature=	0
#Range=	Visible
#StageXY=	75x50mm Scan+
#StageZ=	Z motor
#X (µm)=	0
#Y (µm)=	0
#Z (µm)=	70.2
#Full time(mm:ss)=	3:18
#Project=	21_11_22
#Sample=	BU19w
#Site=	
#Title=	BU19w-D-FF2-FI09-V_1800 (450-850nm)_532nm_Edge_100%_x100_VIS_LWD_H50um_30sX2
#Remark=	
#Date=	22.11.2021 13:31
#Acquired=	22.11.2021 13:31:07
#Base:Fit=	16.12.2021 17:39:50
#Base:Fit=	16.12.2021 17:43:51
#Base:Sub=	16.12.2021 17:43:52
1202.84	7.31549
1203.12	9.37629
1203.4	12.5086
1203.67	1.70175
1203.95	9.12299
1204.23	7.9723
1204.51	5.75847
1204.78	6.76014
1205.06	14.1874
1205.34	6.62832
1205.62	-2.00046
1205.9	5.42081
1206.17	7.49313
1206.45	6.36317
1206.73	3.10044
1207.01	4.11365
1207.29	1.91552
1207.56	7.1902
1207.84	6.05223
1208.12	2.78387
1208.39	6.98785
1208.67	2.6568
1208.95	7.92493
1209.23	4.66052
1209.51	7.79794
1209.78	3.47621
1210.06	4.48301
1210.34	0.169083
1210.62	7.57347
1210.89	4.32658
1211.17	2.15585
1211.45	3.18061
1211.72	-1.11824
1212	3.09963
1212.28	-3.32941
1212.56	4.08163
1212.84	0.846886
1213.11	6.12001
1213.39	-0.317013
1213.67	0.691639
1213.94	-0.425068
1214.22	0.589203
1214.5	2.66702
1214.78	-4.81483
1215.05	-2.73362
1215.33	0.409058
1215.61	-7.06207
1215.89	3.51346
1216.16	1.35714
1216.44	3.44444
1216.72	-0.833965
1216.99	-2.99308
1217.27	-0.902378
1217.55	-4.11185
1217.83	-2.02046
1218.1	-7.35331
1218.38	-6.32611
1218.66	-2.11745
1218.93	-2.15396
1219.21	-1.13476
1219.49	1.99915
1219.77	-3.33912
1220.04	-2.32368
1220.32	-2.36459
1220.6	-1.34756
1220.88	-2.43977
1221.15	0.693192
1221.43	-0.394588
1221.71	-0.422531
1221.98	-2.5596
1222.26	-3.63561
1222.54	0.572479
1222.81	-3.66298
1223.09	-1.56347
1223.37	2.64239
1223.64	-0.544643
1223.92	-0.567593
1224.2	0.465183
1224.48	2.54025
1224.75	2.48495
1225.03	0.334339
1225.31	1.34878
1225.58	5.50314
1225.86	2.29951
1226.14	4.38145
1226.41	-2.89909
1226.69	5.62335
1226.97	5.58473
1227.24	1.31281
1227.52	10.7633
1227.8	8.6533
1228.07	8.62336
1228.35	10.6101
1228.63	17.9627
1228.9	10.5995
1229.18	11.6427
1229.46	22.1362
1229.73	26.3319
1230.01	15.8176
1230.29	31.5639
1230.56	36.8091
1230.84	37.8598
1231.12	29.4593
1231.39	41.0209
1231.67	32.6236
1231.95	33.6865
1232.22	39.9979
1232.5	47.3624
1232.78	47.3733
1233.05	44.2274
1233.33	50.5363
1233.61	53.6797
1233.88	46.3077
1234.16	63.1064
1234.43	42.0612
1234.71	44.1333
1234.99	49.3541
1235.26	47.2251
1235.54	36.7048
1235.82	34.5873
1236.09	30.3834
1236.37	30.3778
1236.65	29.3266
1236.92	28.2788
1237.2	24.0894
1237.47	25.1433
1237.75	16.766
1238.03	16.7761
1238.3	23.0761
1238.58	20.9834
1238.85	12.5953
1239.13	13.6447
1239.41	11.5577
1239.68	15.7629
1239.96	8.44265
1240.24	12.6542
1240.51	11.6164
1240.79	6.38547
1241.06	5.35159
1241.34	9.55687
1241.62	13.7584
1241.89	8.52464
1242.17	13.767
1242.45	8.52683
1242.72	7.47592
1243	10.6129
1243.27	3.28993
1243.55	11.6746
1243.83	10.6419
1244.1	6.46971
1244.38	9.62112
1244.65	11.7282
1244.93	15.9254
1245.2	13.8299
1245.48	15.9247
1245.76	16.984
1246.03	19.0958
1246.31	24.3482
1246.59	22.2713
1246.86	22.2865
1247.14	22.3055
1247.41	22.3132
1247.69	32.7698
1247.96	22.32
1248.24	28.5966
1248.51	34.8728
1248.79	35.9244
1249.07	24.4421
1249.34	29.6718
1249.62	35.9439
1249.89	30.7299
1250.17	31.7811
1250.45	39.0996
1250.72	33.9037
1251	32.8935
1251.27	27.7111
1251.55	35.0579
1251.82	38.222
1252.1	33.0258
1252.38	36.1881
1252.65	34.1245
1252.93	35.1897
1253.2	28.9519
1253.48	38.3812
1253.75	37.3742
1254.03	30.0928
1254.3	29.0716
1254.58	24.9099
1254.86	24.9302
1255.13	16.5982
1255.41	27.0613
1255.68	16.6423
1255.96	19.7855
1256.23	19.8101
1256.51	10.4516
1256.78	13.6154
1257.06	22.0287
1257.33	17.8636
1257.61	19.9672
1257.88	21.0165
1258.16	24.1597
1258.44	23.1349
1258.71	16.9073
1258.99	15.9434
1259.26	13.954
1259.54	12.9995
1259.81	12.9354
1260.09	7.68407
1260.36	11.8481
1260.64	10.8903
1260.91	13.0515
1261.19	12.0853
1261.46	22.6207
1261.74	18.4272
1262.01	17.3971
1262.29	25.79
1262.56	27.9101
1262.84	39.422
1263.11	47.8128
1263.39	57.2563
1263.66	56.2572
1263.94	61.535
1264.21	53.2285
1264.49	40.7388
1264.76	32.4282
1265.04	26.2081
1265.31	21.0374
1265.59	14.8135
1265.86	9.62271
1266.14	15.9524
1266.41	10.7563
1266.69	5.55199
1266.96	3.48289
1267.24	11.8836
1267.51	4.57874
1267.79	6.69805
1268.06	4.63254
1268.34	3.6192
1268.61	8.8825
1268.89	4.73588
1269.16	4.78294
1269.44	5.88001
1269.71	11.1709
1269.99	4.93771
1270.26	2.89182
1270.54	2.94121
1270.81	9.28141
1271.09	7.23565
1271.36	4.13578
1271.64	3.1283
1271.91	6.31259
1272.18	4.25337
1272.46	8.49291
1272.74	6.44154
1273.01	11.7356
1273.28	1.29119
1273.56	3.43839
1273.83	5.58636
1274.11	1.43224
1274.38	8.83469
1274.66	0.481575
1274.93	5.78636
1275.21	6.887
1275.48	5.88471
1275.76	6.99053
1276.03	4.93521
1276.3	2.88071
1276.58	6.07536
1276.85	4.0095
1277.13	7.20057
1277.4	8.29091
1277.68	8.33637
1277.95	12.5888
1278.23	12.6431
1278.5	10.5974
1278.77	12.7527
1279.05	18.056
1279.32	11.7866
1279.6	19.2066
1279.87	17.1356
1280.15	19.2593
1280.42	28.7094
1280.69	35.0267
1280.97	28.7671
1281.24	58.2471
1281.52	62.7372
1281.79	90.1948
1282.07	134.505
1282.34	176.594
1282.61	247.095
1282.89	352.415
1283.16	527.359
1283.44	738.053
1283.71	945.345
1283.99	1067.51
1284.26	911.684
1284.53	604.216
1284.81	343.126
1285.08	204.211
1285.36	134.796
1285.63	83.2785
1285.9	61.229
1286.18	43.3935
1286.45	35.0306
1286.73	22.4526
1287	24.6163
1287.28	18.3526
1287.55	20.5056
1287.82	20.544
1288.1	14.2658
1288.37	6.93753
1288.64	4.87564
1288.92	12.2919
1289.19	7.07086
1289.47	6.06597
1289.74	8.21627
1290.01	7.20452
1290.29	10.4109
1290.56	8.36331
1290.84	7.37414
1291.11	6.38435
1291.38	2.21961
1291.66	3.31962
1291.93	4.41781
1292.21	1.30523
1292.48	2.42161
1292.75	2.48886
1293.03	-4.83239
1293.3	-1.60024
1293.57	2.67831
1293.85	2.72578
1294.12	2.76841
1294.4	0.694595
1294.67	0.733292
1294.94	-2.39783
1295.22	3.97602
1295.49	4.02466
1295.76	1.95783
1296.04	-0.113922
1296.31	0.983387
1296.58	1.02396
1296.86	3.18059
1297.13	0.0660133
1297.4	-1.99459
1297.68	1.22081
1297.95	0.210102
1298.22	0.255577
1298.5	-0.752281
1298.77	-0.699837
1299.04	-2.7599
1299.32	0.459114
1299.59	0.507114
1299.87	-3.67142
1300.14	0.598488
1300.41	-1.47084
1300.69	3.85029
1300.96	-1.3846
1301.23	-5.56067
1301.51	-0.233936
1301.78	-1.24337
1302.05	-1.19992
1302.33	2.00814
1302.6	-1.11922
1302.87	1.03047
1303.15	-1.04109
1303.42	3.21764
1303.69	1.15152
1303.97	1.19821
1304.24	2.30322
1304.51	0.242393
1304.79	0.288891
1305.06	1.38993
1305.33	-4.88891
1305.6	4.64831
1305.88	-4.79594
1306.15	-4.74386
1306.42	2.69287
1306.7	0.6353
1306.97	-1.42463
1307.24	-1.37825
1307.52	-0.278065
1307.79	-3.39706
1308.06	2.98302
1308.34	0.921623
1308.61	0.970184
1308.88	-4.2576
1309.15	2.12854
1309.43	0.069458
1309.7	-1.99252
1309.97	1.22155
1310.25	-0.848831
1310.52	-0.80331
1310.79	-1.81466
1311.06	4.56285
1311.34	0.387547
1311.61	2.54732
1311.88	3.65329
1312.16	0.537567
1312.43	-3.63533
1312.7	-2.52861
1312.98	-5.64611
1313.25	-0.318985
1313.52	-1.33051
1313.79	3.99549
1314.07	-0.183201
1314.34	6.19965
1314.61	-1.14179
1314.89	-0.0355568
1315.16	-5.2687
1315.43	4.28724
1315.7	1.1653
1315.98	3.32495
1316.25	-2.96819
1316.52	-0.809828
1316.79	-0.76466
1317.07	0.339996
1317.34	-2.78207
1317.61	4.65771
1317.88	-2.69493
1318.16	1.56907
1318.43	-0.50543
1318.7	1.64116
1318.97	1.6813
1319.25	2.77259
1319.52	1.75899
1319.79	-3.47296
1320.06	3.95058
1320.34	8.20539
1320.61	-4.39632
1320.88	4.08634
1321.16	-3.2479
1321.43	-0.0399513
1321.7	-2.10228
1321.97	0.050766
1322.25	-2.00906
1322.52	0.13814
1322.79	2.27722
1323.06	0.197765
1323.33	0.219151
1323.61	-1.84963
1323.88	1.34832
1324.15	4.55954
1324.42	-2.74055
1324.7	-0.57832
1324.97	0.531412
1325.24	1.64305
1325.51	-0.407887
1325.79	0.702602
1326.06	6.02791
1326.33	-0.263037
1326.6	-0.214165
1326.87	1.93983
1327.15	3.03703
1327.42	5.18719
1327.69	1.00694
1327.96	-5.28217
1328.23	0.0255508
1328.51	1.11227
1328.78	3.24897
1329.05	1.17546
1329.32	-1.94674
1329.6	0.193699
1329.87	2.33125
1330.14	-0.790958
1330.41	2.39692
1330.68	1.38
1330.96	1.41512
1331.23	1.45015
1331.5	0.435635
1331.77	2.57133
1332.04	1.55855
1332.32	4.74431
1332.59	6.87956
1332.86	2.72083
1333.13	1.71007
1333.4	-1.39715
1333.67	3.88468
1333.95	1.82753
1334.22	-2.32527
1334.49	8.1972
1334.76	-2.24423
1335.03	1.9839
1335.3	2.01895
1335.58	5.19935
1335.85	1.04789
1336.12	0.0398197
1336.39	4.26983
1336.66	1.17214
1336.94	1.21648
1337.21	-2.92904
1337.48	-1.83853
1337.75	1.34699
1338.02	2.43614
1338.29	-0.664703
1338.57	-4.81312
1338.84	4.64974
1339.11	-0.547932
1339.38	5.76802
1339.65	2.66164
1339.93	0.60301
1340.2	2.73204
1340.47	4.86294
1340.74	2.81152
1341.01	-3.42234
1341.28	2.89458
1341.55	1.89017
1341.82	-2.25415
1342.1	4.05654
1342.37	3.04535
1342.64	0.986534
1342.91	-4.20428
1343.18	5.22874
1343.45	3.16537
1343.73	1.10795
1344	0.0964508
1344.27	3.25708
1344.54	6.41669
1344.81	0.195419
1345.08	3.35898
1345.35	4.43859
1345.63	-0.734314
1345.9	-0.698299
1346.17	4.54584
1346.44	2.49612
1346.71	2.53028
1346.98	4.64702
1347.25	5.72197
1347.52	1.59183
1347.8	4.74622
1348.07	5.81778
1348.34	1.69049
1348.61	5.88216
1348.88	1.75874
1349.15	1.79705
1349.42	7.03876
1349.69	-1.23642
1349.96	5.05347
1350.24	4.05548
1350.51	6.20236
1350.78	3.14985
1351.05	3.16265
1351.32	4.19437
1351.59	7.31323
1351.86	2.16007
1352.13	11.5544
1352.41	8.4631
1352.68	2.26095
1352.95	7.50208
1353.22	4.42832
1353.49	4.45855
1353.76	4.493
1354.03	5.56635
1354.3	4.56214
1354.57	6.67222
1354.84	7.74253
1355.11	4.65961
1355.39	5.72884
1355.66	10.9487
1355.93	1.64079
1356.2	5.82103
1356.47	4.81581
1356.74	1.73738
1357.01	2.80389
1357.28	8.01364
1357.55	3.89574
1357.82	9.10558
1358.09	9.13836
1358.36	5.0303
1358.63	2.99365
1358.9	9.24233
1359.18	9.27421
1359.45	6.1993
1359.72	9.33803
1359.99	5.23046
1360.26	4.23211
1360.53	10.4859
1360.8	5.3474
1361.07	8.49393
1361.34	9.56514
1361.61	8.56189
1361.88	7.55753
1362.15	9.65762
1362.42	10.7198
1362.69	12.8158
1362.97	12.8415
1363.24	9.7634
1363.51	12.8922
1363.78	10.8473
1364.05	16.0376
1364.32	11.93
1364.59	12.9936
1364.86	14.065
1365.13	13.0686
1365.4	16.2057
1365.67	10.0391
1365.94	13.1761
1366.21	14.2465
1366.48	10.1466
1366.75	15.3454
1367.02	13.3061
1367.29	13.3346
1367.56	18.5251
1367.83	16.485
1368.1	13.411
1368.37	19.63
1368.64	23.7776
1368.91	38.2398
1369.18	51.6595
1369.45	45.4769
1369.72	26.9313
1369.99	21.7997
1370.26	18.733
1370.54	16.6982
1370.81	19.8169
1371.08	12.6319
1371.34	9.56948
1371.62	12.6893
1371.89	15.8083
1372.16	15.8343
1372.43	14.8364
1372.7	18.9933
1372.97	15.9326
1373.24	23.1781
1373.51	18.0469
1373.78	23.2162
1374.05	26.3198
1374.32	19.1238
1374.59	20.1882
1374.86	14.0532
1375.13	18.2168
1375.4	27.5393
1375.67	23.4766
1375.94	21.4533
1376.21	27.6678
1376.48	28.7213
1376.75	29.7743
1377.02	30.8237
1377.29	31.8623
1377.56	28.7565
1377.83	33.9057
1378.09	35.9655
1378.36	33.9498
1378.64	44.2482
1378.91	37.0507
1379.18	34.9939
1379.44	44.2395
1379.71	43.217
1379.98	43.2188
1380.25	51.4356
1380.52	53.4918
1380.79	52.4809
1381.06	51.4713
1381.33	46.3753
1381.6	57.687
1381.87	61.8313
1382.14	67.009
1382.41	66.0473
1382.68	61.9923
1382.95	69.227
1383.22	65.1576
1383.49	69.3119
1383.76	75.5113
1384.03	74.511
1384.3	90.9002
1384.57	95.828
1384.84	92.5808
1385.11	118.066
1385.38	147.915
1385.65	196.374
1385.92	250.019
1386.19	395.013
1386.45	631.211
1386.72	1068.81
1386.99	1804.6
1387.26	2319.28
1387.53	1953.13
1387.8	1120.64
1388.07	563.601
1388.34	308.376
1388.61	186.427
1388.88	131.079
1389.15	102.384
1389.42	72.6825
1389.69	64.4996
1389.96	60.4172
1390.23	47.1248
1390.49	48.1657
1390.76	44.0897
1391.03	34.8983
1391.3	35.9416
1391.57	29.8226
1391.84	28.8212
1392.11	29.873
1392.38	22.7414
1392.65	23.7943
1392.92	25.8678
1393.19	27.9372
1393.46	20.7918
1393.73	23.8804
1393.99	18.781
1394.26	22.8892
1394.53	18.812
1394.8	21.899
1395.07	19.8754
1395.34	20.9236
1395.61	21.974
1395.88	17.9077
1396.15	16.9092
1396.42	16.9375
1396.68	22.0815
1396.95	13.9198
1397.22	17.0123
1397.49	18.0629
1397.76	17.0706
1398.03	19.1454
1398.3	15.0701
1398.57	14.0715
1398.84	15.1171
1399.11	15.15
1399.38	16.2167
1399.64	16.261
1399.91	19.378
1400.18	16.3334
1400.45	16.3605
1400.72	17.409
1400.99	15.3696
1401.26	15.3688
1401.53	13.3421
1401.79	11.3078
1402.06	14.4019
1402.33	11.3389
1402.6	15.4546
1402.87	20.5945
1403.14	14.4567
1403.41	15.4977
1403.68	11.4145
1403.94	13.4854
1404.21	14.5326
1404.48	16.6055
1404.75	17.6524
1405.02	13.573
1405.29	21.7969
1405.56	16.6915
1405.82	19.7897
1406.09	22.8892
1406.36	18.809
1406.63	31.1401
1406.9	34.2393
1407.17	35.2848
1407.44	43.4978
1407.7	59.9048
1407.97	67.073
1408.24	90.6412
1408.51	106.01
1408.78	108.06
1409.05	108.072
1409.31	80.4427
1409.58	59.9904
1409.85	46.7232
1410.12	33.476
1410.39	24.2861
1410.66	23.2467
1410.92	16.0221
1411.19	15.0206
1411.46	17.1139
1411.73	14.0712
1412	9.97889
1412.27	11.0237
1412.53	10.0139
1412.8	11.0581
1413.07	13.1308
1413.34	14.1774
1413.61	13.1702
1413.88	10.1088
1414.14	9.10143
1414.41	9.12123
1414.68	6.05812
1414.95	13.2686
1415.22	6.09216
1415.48	10.2194
1415.75	8.1815
1416.02	8.19734
1416.29	3.07509
1416.56	8.22632
1416.82	10.2912
1417.09	10.3002
1417.36	9.28258
1417.63	5.18419
1417.9	11.3534
1418.17	6.23
1418.43	9.32113
1418.7	8.31097
1418.97	8.33269
1419.24	7.33054
1419.5	4.27182
1419.77	6.35532
1420.04	11.5354
1420.31	8.49045
1420.58	4.33814
1420.84	9.41226
1421.11	8.41417
1421.38	9.42491
1421.65	8.41002
1421.92	5.36048
1422.18	4.36275
1422.45	5.41079
1422.72	6.442
1422.99	6.46657
1423.26	5.45213
1423.52	4.43544
1423.79	4.44215
1424.06	7.52385
1424.33	10.6032
1424.59	7.53062
1424.86	6.50956
1425.13	6.51783
1425.4	6.52853
1425.66	9.61312
1425.93	4.50754
1426.2	6.57006
1426.47	6.58551
1426.73	1.48025
1427	4.57071
1427.27	3.56451
1427.54	6.65703
1427.81	7.70209
1428.07	5.67446
1428.34	5.69568
1428.61	3.65939
1428.88	1.6187
1429.14	4.70516
1429.41	2.65874
1429.68	5.74396
1429.94	3.69683
1430.21	3.69909
1430.48	6.77443
1430.75	3.70176
1431.02	4.73071
1431.28	4.73888
1431.55	5.78435
1431.82	1.70316
1432.08	3.76419
1432.35	4.79982
1432.62	5.83456
1432.89	8.91788
1433.15	2.77886
1433.42	6.88581
1433.69	3.82021
1433.96	2.80372
1434.22	5.88469
1434.49	4.86959
1434.76	5.90121
1435.02	3.86135
1435.29	-0.224493
1435.56	-0.211802
1435.83	0.824165
1436.09	3.90787
1436.36	0.845093
1436.63	2.90697
1436.89	3.94629
1437.16	6.01272
1437.43	2.94942
1437.7	3.98548
1437.96	3.99508
1438.23	-0.0966778
1438.5	1.96181
1438.77	4.01775
1439.03	2.99901
1439.3	8.13918
1439.57	6.09788
1439.83	3.03481
1440.1	5.09178
1440.37	3.04528
1440.63	3.05031
1440.9	2.03109
1441.17	4.08854
1441.43	3.07271
1441.7	6.16376
1441.97	-2.02761
1442.24	3.11687
1442.5	2.09689
1442.77	0.0508499
1443.03	3.13431
1443.3	0.0629292
1443.57	-0.956627
1443.84	0.0750122
1444.1	3.15751
1444.37	1.11185
1444.64	-0.93405
1444.9	3.17195
1445.17	6.2543
1445.44	2.16442
1445.7	6.27907
1445.97	3.21083
1446.24	4.2433
1446.5	1.17148
1446.77	2.20111
1447.04	2.20432
1447.3	3.23246
1447.57	2.21207
1447.84	0.166971
1448.1	2.22169
1448.37	1.2015
1448.64	-1.8684
1448.9	2.23466
1449.17	3.26375
1449.44	1.21989
1449.7	2.25081
1449.97	1.23323
1450.24	0.2169
1450.5	2.27446
1450.77	2.28071
1451.04	0.235474
1451.3	2.28947
1451.57	0.245712
1451.83	4.3503
1452.1	5.38003
1452.37	1.28531
1452.63	4.36485
1452.9	1.29998
1453.17	2.33239
1453.43	1.31283
1453.7	-1.7582
1453.97	0.293388
1454.23	2.34427
1454.5	2.34765
1454.77	0.302425
1455.03	0.306456
1455.3	2.3602
1455.56	1.34108
1455.83	-1.72639
1456.1	-0.696262
1456.36	1.35813
1456.63	-0.685926
1456.9	0.342485
1457.16	0.345694
1457.43	2.39757
1457.69	4.44887
1457.96	0.353672
1458.23	5.47598
1458.49	1.38099
1458.76	0.358315
1459.02	2.40649
1459.29	-0.663977
1459.56	1.38286
1459.82	0.359219
1460.09	-0.66432
1460.36	2.40292
1460.62	1.37956
1460.89	0.359776
1461.15	1.39179
1461.42	2.42837
1461.69	-0.630716
1461.95	3.47715
1462.22	2.44407
1462.48	2.40594
1462.75	0.349607
1463.02	2.3907
1463.28	0.359409
1463.55	1.38219
1463.81	-0.664312
1464.08	-1.68459
1464.35	-0.659317
1464.61	1.38287
1464.88	4.44467
1465.14	0.36619
1465.41	2.40879
1465.67	-0.648989
1465.94	2.41269
1466.21	-1.66628
1466.47	1.39354
1466.74	1.39232
1467	1.38997
1467.27	2.40764
1467.54	2.40709
1467.8	1.38806
1468.07	3.42649
1468.33	-1.6676
1468.6	0.3682
1468.86	2.40438
1469.13	-3.70484
1469.39	0.369713
1469.66	0.371256
1469.93	2.40914
1470.19	5.46402
1470.46	0.372511
1470.72	2.40714
1470.99	-0.646805
1471.25	2.40657
1471.52	4.44351
1471.79	0.376312
1472.05	-0.63839
1472.32	0.381367
1472.58	0.382423
1472.85	-0.635445
1473.11	-0.636385
1473.38	0.38069
1473.64	1.39784
1473.91	-0.638435
1474.17	-1.65727
1474.44	3.42748
1474.71	1.394
1474.97	-1.65612
1475.24	1.39367
1475.5	1.39087
1475.77	3.42188
1476.03	2.40327
1476.3	-2.68025
1476.56	-1.66637
1476.83	4.4255
1477.09	1.37472
1477.36	-1.67728
1477.62	-1.68159
1477.89	0.345114
1478.15	-2.69993
1478.42	0.341448
1478.68	2.37275
1478.95	-1.68205
1479.22	0.351536
1479.48	-1.67407
1479.75	-0.655455
1480.01	1.3757
1480.28	4.42473
1480.54	1.38043
1480.81	0.365499
1481.07	-0.650173
1481.34	1.37309
1481.6	1.36223
1481.87	2.35439
1482.13	-0.711151
1482.4	0.291573
1482.66	1.2854
1482.93	-0.692707
1483.19	-0.686964
1483.46	2.36303
1483.72	-1.71213
1483.99	1.33665
1484.25	4.38052
1484.52	2.34717
1484.78	3.35484
1485.05	2.33883
1485.31	1.32263
1485.58	0.305569
1485.84	-1.7237
1486.11	2.32042
1486.37	-3.75323
1486.64	1.30379
1486.9	-0.721407
1487.17	6.35971
1487.43	-3.7575
1487.7	2.30945
1487.96	2.30468
1488.22	-0.733608
1488.49	1.28613
1488.75	-1.74841
1489.02	-1.74914
1489.28	-0.737881
1489.55	1.2829
1489.81	1.28111
1490.08	1.27965
1490.34	4.31176
1490.61	-0.745031
1490.87	3.29672
1491.14	-1.75806
1491.4	-1.75781
1491.67	-2.7681
1491.93	-2.76957
1492.19	0.259375
1492.46	3.28435
1492.72	-2.78579
1492.99	-0.771921
1493.25	-0.776379
1493.52	-1.78957
1493.78	0.22607
1494.05	-0.787149
1494.31	-1.79776
1494.58	-0.789755
1494.84	-4.82891
1495.1	3.24305
1495.37	-2.81322
1495.63	-1.80492
1495.9	1.22215
1496.16	-0.796904
1496.43	-0.797064
1496.69	-2.81571
1496.96	0.213001
1497.22	0.212347
1497.48	0.2108
1497.75	2.22777
1498.01	0.206625
1498.28	3.23149
1498.54	-0.811459
1498.81	-3.84169
1499.07	1.20197
1499.34	-0.818598
1499.6	3.21423
1499.86	-2.84494
1500.13	0.175802
1500.39	-0.836487
1500.66	1.17494
1500.92	0.164711
1501.18	1.17329
1501.45	-0.844374
1501.71	0.162497
1501.98	-1.85695
1502.24	-0.852198
1502.5	0.151371
1502.77	0.144262
1503.03	-3.89494
1503.3	1.13937
1503.56	3.15171
1503.83	1.13559
1504.09	-2.89367
1504.35	-0.879688
1504.62	0.126907
1504.88	2.14022
1505.15	0.121519
1505.41	0.118362
1505.67	-0.890917
1505.94	-0.892267
1506.2	1.12127
1506.47	-1.90401
1506.73	0.109037
1506.99	0.108923
1507.26	-1.90724
1507.52	-0.905113
1507.78	0.0966721
1508.05	2.1044
1508.31	0.0824242
1508.58	-1.9405
1508.84	1.06619
1509.1	-0.957788
1509.37	-1.97411
1509.63	1.02994
1509.9	-1.9907
1510.16	-0.992901
1510.42	0.00514603
1510.69	2.00872
1510.95	0.00289536
1511.21	2.01714
1511.48	0.00808334
1511.74	-1.00087
1512.01	1.0011
1512.27	-0.0107498
1512.53	-1.02172
1512.8	1.9805
1513.06	-2.04074
1513.32	0.961695
1513.59	3.96559
1513.85	-3.05774
1514.11	-0.0533581
1514.38	-1.05903
1514.64	-2.06387
1514.9	1.94568
1515.17	0.944098
1515.43	-0.060154
1515.7	-1.06433
1515.96	-2.06886
1516.22	0.939611
1516.49	-3.07433
1516.75	2.94373
1517.01	-1.07242
1517.28	1.93298
1517.54	0.925726
1517.8	-0.0789738
1518.07	0.923584
1518.33	1.9262
1518.59	-2.08928
1518.86	1.92093
1519.12	0.913124
1519.38	-0.0949421
1519.65	-1.10299
1519.91	2.90425
1520.17	2.89796
1520.44	-1.12137
1520.7	-1.13124
1520.96	-2.14077
1521.23	0.857733
1521.49	0.851471
1521.75	0.845516
1522.02	-0.156485
1522.28	1.84469
1522.54	-1.16178
1522.81	0.841389
1523.07	0.842426
1523.33	2.84928
1523.59	-1.15805
1523.86	-1.15925
1524.12	0.842422
1524.38	-1.16775
1524.65	-2.17389
1524.91	0.828159
1525.17	-2.18232
1525.44	1.82043
1525.7	2.81712
1525.96	0.808889
1526.23	-2.19992
1526.49	1.80353
1526.75	1.79941
1527.02	-1.21115
1527.28	-0.213495
1527.54	-1.21605
1527.8	-0.213482
1528.07	-1.21416
1528.33	-1.21409
1528.59	0.787674
1528.86	-4.22649
1529.12	-0.220726
1529.38	-1.22819
1529.64	0.775059
1529.91	1.77983
1530.17	0.782076
1530.43	0.785725
1530.69	1.78888
1530.96	0.784689
1531.22	-1.22461
1531.48	-0.225349
1531.75	0.773342
1532.01	-0.234581
1532.27	0.763725
1532.53	1.75995
1532.8	0.744146
1533.06	-0.26679
1533.32	-1.27555
1533.59	-1.28469
1533.85	0.707489
1534.11	0.697824
1534.37	-0.308218
1534.64	-0.315722
1534.9	2.68254
1535.16	-2.325
1535.42	1.66554
1535.69	-0.338684
1535.95	1.65545
1536.21	1.65819
1536.48	1.66748
1536.74	0.679201
1537	-2.31803
1537.26	0.692465
1537.53	0.698694
1537.79	-2.30673
1538.05	1.70423
1538.31	0.689846
1538.58	-2.32101
1538.84	0.677855
1539.1	-4.33943
1539.36	-0.339588
1539.62	0.6542
1539.89	2.64896
1540.15	1.64026
1540.41	-1.36987
1540.67	0.622255
1540.94	-1.3878
1541.2	-0.389666
1541.46	0.608778
1541.72	-1.39051
1541.98	-0.387009
1542.25	-0.385649
1542.51	0.620647
1542.77	0.622396
1543.03	8.63516
1543.3	-1.38153
1543.56	1.61961
1543.82	0.616131
1544.08	0.615732
1544.35	2.61931
1544.61	-0.387026
1544.87	0.608202
1545.13	-0.406805
1545.39	1.59319
1545.66	2.5925
1545.92	-2.41111
1546.18	-0.428051
1546.44	3.54788
1546.71	-2.45756
1546.97	1.5495
1547.23	0.567503
1547.49	1.59861
1547.75	-1.39192
1548.02	4.65284
1548.28	-2.39494
1548.54	-0.387514
1548.8	1.61406
1549.06	-2.41013
1549.33	-1.40103
1549.59	0.613214
1549.85	-0.396399
1550.11	-0.404087
1550.37	-0.421169
1550.64	0.576252
1550.9	1.57515
1551.16	1.56834
1551.42	-0.445498
1551.68	-1.45672
1551.94	1.53984
1552.21	-0.468996
1552.47	0.52891
1552.73	-2.4789
1552.99	2.52857
1553.25	-1.48066
1553.52	2.52052
1553.78	3.51994
1554.04	-0.487846
1554.3	0.512627
1554.56	1.51239
1554.82	-0.494659
1555.09	2.50416
1555.35	3.49589
1555.61	4.48881
1555.87	3.4775
1556.13	-0.533567
1556.39	-0.54108
1556.65	-2.54745
1556.92	-0.553474
1557.18	-1.55814
1557.44	-2.56186
1557.7	3.43074
1557.96	-4.56763
1558.22	4.42379
1558.49	-0.573809
1558.75	-0.572569
1559.01	3.42971
1559.27	0.434208
1559.53	0.432175
1559.79	-0.571127
1560.05	1.42506
1560.32	-1.57627
1560.58	-0.58028
1560.84	-1.58371
1561.1	2.42151
1561.36	3.42883
1561.62	1.42812
1561.88	-0.576761
1562.15	0.411142
1562.41	-1.62347
1562.67	2.31411
1562.93	-0.703016
1563.19	-0.624857
1563.45	0.397291
1563.71	0.384987
1563.98	2.36655
1564.24	3.38206
1564.5	3.40144
1564.76	0.393324
1565.02	2.37597
1565.28	3.37641
1565.54	1.37795
1565.8	1.37757
1566.07	1.37374
1566.33	0.364386
1566.59	1.35728
1566.85	1.3555
1567.11	-1.6428
1567.37	2.35334
1567.63	0.352976
1567.89	1.35012
1568.15	1.34735
1568.42	2.34289
1568.68	-1.65886
1568.94	-2.66292
1569.2	-0.66745
1569.46	3.32352
1569.72	0.32144
1569.98	-1.68017
1570.24	5.30364
1570.5	0.307018
1570.77	1.3004
1571.03	1.2991
1571.29	-3.68974
1571.55	1.30446
1571.81	4.30392
1572.07	-4.68178
1572.33	0.316027
1572.59	3.31619
1572.85	4.31516
1573.11	1.31387
1573.37	5.3091
1573.64	4.30557
1573.9	-0.697931
1574.16	3.28715
1574.42	-2.7116
1574.68	4.26546
1574.94	1.2638
1575.2	4.24752
1575.46	3.24454
1575.72	3.2417
1575.98	6.23084
1576.24	4.23537
1576.5	2.24033
1576.76	1.24322
1577.03	1.24497
1577.29	3.23959
1577.55	2.24151
1577.81	1.24212
1578.07	2.23547
1578.33	3.22758
1578.59	-0.763845
1578.85	1.22417
1579.11	4.20746
1579.37	1.21556
1579.63	4.20155
1579.89	-2.77458
1580.15	2.2037
1580.41	-0.786316
1580.67	-3.77604
1580.93	2.19681
1581.19	3.19154
1581.46	6.18054
1581.72	3.19296
1581.98	4.18899
1582.24	2.1955
1582.5	3.18928
1582.76	-0.796448
1583.02	6.17235
1583.28	0.191006
1583.54	4.16691
1583.8	1.17575
1584.06	3.1623
1584.32	1.16879
1584.58	-2.8138
1584.84	-2.81555
1585.1	0.168472
1585.36	2.15926
1585.62	-0.8244
1585.88	1.16814
1586.14	-1.81619
1586.4	1.17189
1586.66	1.17312
1586.92	1.17314
1587.18	3.16359
1587.44	1.17331
1587.7	3.16674
1587.96	5.16011
1588.22	3.16693
1588.48	5.15791
1588.74	2.16815
1589	3.16099
1589.26	2.15977
1589.52	0.161789
1589.78	-0.838493
1590.04	4.13207
1590.3	1.13941
1590.56	5.10668
1590.82	-1.85972
1591.08	-0.871527
1591.34	2.10512
1591.6	6.07762
1591.86	2.10682
1592.12	0.123804
1592.38	7.08195
1592.64	2.11337
1592.9	1.10954
1593.16	0.115528
1593.42	2.10162
1593.68	1.10828
1593.94	-0.877735
1594.2	0.116673
1594.46	3.09844
1594.72	2.10675
1594.98	0.119057
1595.24	2.1037
1595.5	1.10638
1595.76	5.07225
1596.02	3.08059
1596.28	0.0985985
1596.54	-0.89727
1596.8	1.08376
1597.06	4.05612
1597.32	2.06843
1597.58	3.05578
1597.84	-1.90699
1598.1	1.06072
1598.36	4.0261
1598.62	0.0564671
1598.88	-1.92932
1599.14	2.02696
1599.4	4.00236
1599.66	0.0389233
1599.92	3.99158
1600.18	2.00813
1600.44	2.99314
1600.7	-1.95373
1600.96	4.96615
1601.22	2.98834
1601.48	-0.965977
1601.73	4.96742
1601.99	2.99042
1602.25	2.00243
1602.51	2.00355
1602.77	5.9613
1603.03	5.96467
1603.29	0.0335503
1603.55	3.00439
1603.81	2.01783
1604.07	1.03069
1604.33	3.01071
1604.59	1.03193
1604.85	1.03162
1605.11	1.03181
1605.37	0.0426178
1605.63	1.03215
1605.89	3.00971
1606.14	1.0263
1606.4	1.02039
1606.66	1.01572
1606.92	1.01027
1607.18	1.99134
1607.44	1.95473
1607.7	1.0648
1607.96	2.96398
1608.22	2.99973
1608.48	3.83344
1608.74	1.96386
1609	1.89421
1609.26	-0.817299
1609.51	2.12325
1609.77	5.60043
1610.03	2.95221
1610.29	3.37638
1610.55	2.95612
1610.81	3.22103
1611.07	1.23699
1611.33	3.3129
1611.59	3.33189
1611.85	0.967901
1612.11	7.37363
1612.36	0.868362
1612.62	5.34457
1612.88	1.7407
1613.14	3.92034
1613.4	1.94562
1613.66	3.65315
1613.92	4.27224
1614.18	3.86111
1614.44	3.59253
1614.7	3.54544
1614.95	3.66527
1615.21	1.82939
1615.47	3.74081
1615.73	3.38578
1615.99	3.351
1616.25	4.38192
1616.51	2.87833
1616.77	3.90164
1617.03	5.26464
1617.28	2.55968
1617.54	1.9741
1617.8	2.41289
1618.06	1.01233
1618.32	3.89733
1618.58	3.98497
1618.84	5.23954
1619.1	3.70841
1619.35	5.79697
1619.61	4.8918
1619.87	2.75465
1620.13	6.60649
1620.39	2.49031
1620.65	4.10635
1620.91	5.45377
1621.17	4.37421
1621.42	5.89535
1621.68	5.76983
1621.94	2.48117
1622.2	4.78663
1622.46	2.28668
1622.72	2.42348
1622.98	3.63687
1623.23	6.7683
1623.49	4.80471
1623.75	2.54796
1624.01	2.94156
1624.27	2.33664
1624.53	3.25603
1624.79	1.77551
1625.04	3.73403
1625.3	4.56017
1625.56	3.98137
1625.82	4.09029
1626.08	3.09607
1626.34	5.76783
1626.59	3.7853
1626.85	5.17179
1627.11	6.27146
1627.37	4.11461
1627.63	6.85615
1627.89	1.81605
1628.14	5.35548
1628.4	4.64581
1628.66	5.72493
1628.92	4.30823
1629.18	4.83396
1629.44	3.91278
1629.69	2.32195
1629.95	2.96199
1630.21	0.644289
1630.47	7.62337
1630.73	6.27822
1630.99	0.1416
1631.24	3.03832
1631.29	3.92507
1631.55	3.92852
1631.81	5.90276
1632.07	5.90475
1632.33	5.9062
1632.59	5.90713
1632.86	5.90756
1633.12	2.95133
1633.38	5.90707
1633.64	5.90656
1633.9	5.9057
1634.16	2.94969
1634.42	3.93356
1634.68	1.96532
1634.95	0.982403
1635.21	4.92116
1635.47	5.90591
1635.73	3.93873
1635.99	3.94172
1636.25	1.97576
1636.51	7.88442
1636.77	4.93403
1637.03	4.93628
1637.3	2.96979
1637.56	0.0212994
1637.82	5.93488
1638.08	2.98656
1638.34	3.97436
1638.6	4.95992
1638.86	3.97605
1639.12	8.8998
1639.39	5.94822
1639.65	2.99696
1639.91	5.9521
1640.17	5.95425
1640.43	3.98834
1640.69	4.97466
1640.95	3.00729
1641.21	5.96007
1641.47	3.00718
1641.73	2.02452
1641.99	3.99455
1642.25	4.9846
1642.52	7.94209
1642.78	4.0112
1643.04	6.96593
1643.3	4.9984
1643.56	4.01498
1643.82	5.98347
1644.08	4.01804
1644.34	9.91986
1644.6	4.0196
1644.86	5.9875
1645.12	5.00772
1645.38	4.0285
1645.65	2.06922
1645.91	6.99604
1646.17	4.06189
1646.43	6.03376
1646.69	5.05085
1646.95	3.08254
1647.21	2.10274
1647.47	3.09873
1647.73	5.07557
1647.99	4.09886
1648.25	7.06236
1648.51	5.0979
1648.77	4.11686
1649.03	3.13488
1649.29	8.06585
1649.55	5.11427
1649.82	4.12891
1650.08	6.1006
1650.34	7.08854
1650.6	8.07784
1650.86	8.08304
1651.12	6.11884
1651.38	1.19635
1651.64	10.0706
1651.9	4.1629
1652.16	3.18411
1652.42	3.19261
1652.68	5.1757
1652.94	3.21449
1653.2	2.2359
1653.46	4.21658
1653.72	7.1834
1653.98	0.278091
1654.24	9.1649
1654.5	4.23112
1654.76	6.20647
1655.02	5.22192
1655.28	4.23711
1655.54	5.22502
1655.81	6.21207
1656.07	2.26694
1656.33	10.1576
1656.58	7.19909
1656.84	0.297405
1657.11	5.22762
1657.37	4.24795
1657.63	5.241
1657.89	3.27647
1658.15	7.22988
1658.41	6.25235
1658.67	4.28711
1658.93	3.30707
1659.19	3.30484
1659.45	7.25276
1659.71	5.32419
1659.97	2.37541
1660.23	8.30043
1660.49	3.36255
1660.75	7.29422
1661.01	3.32655
1661.27	4.33552
1661.53	5.33066
1661.79	4.35257
1662.05	2.39199
1662.31	3.38213
1662.57	3.35419
1662.83	3.36888
1663.09	1.43556
1663.35	4.40646
1663.61	4.41383
1663.87	6.31882
1664.13	3.35697
1664.39	4.38693
1664.65	3.39939
1664.91	6.36152
1665.17	2.41573
1665.43	2.41722
1665.69	3.41051
1665.95	7.37671
1666.21	2.45317
1666.47	2.45902
1666.72	2.46401
1666.99	6.42048
1667.25	2.46983
1667.51	4.45345
1667.76	5.45975
1668.02	7.44452
1668.28	2.50411
1668.54	4.48414
1668.8	3.4993
1669.06	8.44792
1669.32	1.5347
1669.58	4.50541
1669.84	4.50951
1670.1	2.53724
1670.36	4.51959
1670.62	4.52521
1670.88	4.53161
1671.14	8.49403
1671.4	5.53562
1671.66	4.55388
1671.92	4.56165
1672.18	2.59218
1672.44	0.620361
1672.7	-0.363192
1672.96	6.56876
1673.22	5.58345
1673.48	4.59977
1673.74	5.59535
1674	1.64154
1674.25	2.63546
1674.51	0.659498
1674.77	6.59982
1675.03	2.64307
1675.29	4.62201
1675.55	3.63285
1675.81	2.64517
1676.07	3.636
1676.33	2.64968
1676.59	2.65289
1676.85	3.64389
1677.11	4.63494
1677.37	3.64985
1677.63	1.6761
1677.89	5.63118
1678.15	1.68229
1678.4	4.65016
1678.66	1.69099
1678.92	2.68364
1679.18	1.70064
1679.44	4.66955
1679.7	3.68673
1679.96	1.71495
1680.22	1.71939
1680.48	1.72414
1680.74	3.70465
1681	0.745316
1681.25	3.71189
1681.51	5.68917
1681.77	4.70482
1682.03	6.68374
1682.29	1.75066
1682.55	3.73026
1682.81	0.772852
1683.07	1.76552
1683.33	5.72125
1683.59	0.790962
1683.84	1.78709
1684.1	-0.182028
1684.36	0.810822
1684.62	1.80205
1684.88	2.79252
1685.14	4.77056
1685.4	4.77344
1685.66	1.81381
1685.92	2.80276
1686.18	1.81678
1686.43	3.79224
1686.69	3.79351
1686.95	2.80768
1687.21	1.82215
1687.47	3.80132
1687.73	3.81048
1687.99	0.858263
1688.25	1.8516
1688.51	-0.115938
1688.76	4.82615
1689.02	0.884779
1689.28	4.83748
1689.54	-2.06707
1689.8	0.8955
1690.06	0.897142
1690.32	1.88417
1690.58	1.88393
1690.84	2.86889
1691.09	2.87085
1691.35	2.87166
1691.61	0.902443
1691.87	1.89036
1692.13	1.89609
1692.39	2.88778
1692.64	-1.04656
1692.9	1.91535
1693.16	-0.048563
1693.42	-0.0405121
1693.68	4.89358
1693.94	1.9416
1694.2	1.94463
1694.46	3.91616
1694.71	3.91568
1694.97	0.961481
1695.23	-1.00575
1695.49	3.91826
1695.75	2.936
1696.01	0.970776
1696.26	2.94295
1696.52	2.9481
1696.78	0.00259209
1697.04	2.96003
1697.3	3.94901
1697.56	-0.96862
1697.81	-0.963753
1698.07	1.99204
1698.33	-0.954918
1698.59	-0.951313
1698.85	0.034586
1699.11	2.98619
1699.37	4.9539
1699.62	0.0406723
1699.88	1.02611
1700.14	1.03059
1700.4	-1.91255
1700.66	0.0567818
1700.91	3.00802
1701.17	3.01304
1701.43	-0.909616
1701.69	1.06279
1701.95	4.01636
1702.21	-1.87505
1702.46	0.094799
1702.72	4.03059
1702.98	1.08747
1703.24	2.07206
1703.5	-1.85534
1703.75	2.07403
1704.01	2.07457
1704.27	1.09402
1704.53	4.03886
1704.79	1.09549
1705.04	1.0951
1705.3	1.09478
1705.56	2.07405
1705.82	0.113346
1706.08	-1.84501
1706.33	0.115473
1706.59	1.09773
1706.85	1.10217
1707.11	-2.80821
1707.37	3.07133
1707.62	-2.7965
1707.88	2.1062
1708.14	0.155695
1708.4	0.162775
1708.66	-0.809669
1708.91	3.11481
1709.17	0.181561
1709.43	-2.75359
1709.69	-0.794884
1709.95	0.182486
1710.2	1.15845
1710.46	0.179625
1710.72	-1.77683
1710.98	1.1553
1711.23	2.13473
1711.49	0.184238
1711.75	1.16509
1712.01	1.16962
1712.27	-2.7317
1712.52	1.18542
1712.78	-2.71509
1713.04	-1.733
1713.3	0.224943
1713.55	2.18122
1713.81	0.229099
1714.07	2.18197
1714.33	2.18037
1714.58	-3.67563
1714.84	0.22298
1715.1	1.19633
1715.36	-1.72804
1715.61	0.22084
1715.87	2.17039
1716.13	2.17403
1716.39	-1.71494
1716.64	0.237392
1716.9	0.241743
1717.16	-0.724072
1717.42	-1.69252
1717.68	-0.715368
1717.93	1.23361
1718.19	-0.712496
1718.45	1.23601
1718.71	-0.707811
1718.96	1.23885
1719.22	0.267494
1719.48	0.268543
1719.74	3.18485
1719.99	0.271198
1720.25	-0.698153
1720.51	1.24705
1720.76	0.27972
1721.02	-0.685616
1721.28	2.23085
1721.54	1.26467
1721.79	1.26645
1722.05	-0.674173
1722.31	-1.64543
1722.56	-1.64517
1722.82	-0.675991
1723.08	1.26444
1723.34	-0.669594
1723.59	-0.662834
1723.85	-0.659182
1724.11	1.28089
1724.37	2.24904
1724.62	2.25577
1724.88	0.32749
1725.14	1.2997
1725.39	1.30124
1725.65	2.26355
1725.91	0.307945
1726.17	-1.63933
1726.42	0.292152
1726.68	0.307833
1726.94	-0.644369
1727.19	-0.63689
1727.45	0.325529
1727.71	-0.638254
1727.96	-2.55991
1728.22	0.356503
1728.48	3.26224
1728.74	-0.598001
1728.99	-2.52593
1729.25	2.31028
1729.51	-0.584948
1729.76	1.35085
1730.02	-0.578686
1730.28	-1.54285
1730.53	0.388458
1730.79	-0.5783
1731.05	0.385761
1731.3	-1.5428
1731.56	-0.578087
1731.82	0.385857
1732.08	-0.577679
1732.33	-2.5036
1732.59	1.3497
1732.85	-0.573839
1733.1	-0.570543
1733.36	-0.566586
1733.62	-0.563072
1733.87	-0.559792
1734.13	0.405481
1734.39	0.408335
1734.64	-0.550249
1734.9	-0.547108
1735.16	-0.544788
1735.41	0.418468
1735.67	-1.50194
1735.93	-0.538897
1736.18	1.38379
1736.44	1.38368
1736.7	-1.49832
1736.95	3.29801
1737.21	-0.541445
1737.47	-1.50078
1737.72	1.37576
1737.98	0.418653
1738.24	-1.49605
1738.49	-0.536106
1738.75	0.423697
1739.01	0.426498
1739.26	-0.527161
1739.52	0.434778
1739.78	1.39569
1740.03	-0.515232
1740.29	1.40368
1740.54	0.451393
1740.8	-0.502678
1741.06	0.455776
1741.31	-0.498022
1741.57	1.41773
1741.83	1.4225
1742.08	-1.4417
1742.34	-1.43613
1742.6	0.482
1742.85	-1.42683
1743.11	3.35773
1743.36	-2.37798
1743.62	1.44673
1743.88	1.44641
1744.13	1.44811
1744.39	-0.462566
1744.65	-0.460339
1744.9	0.495407
1745.16	-1.40948
1745.42	-0.449909
1745.67	-0.444397
1745.93	1.47083
1746.18	1.47734
1746.44	-0.424767
1746.7	1.49314
1746.95	0.546833
1747.21	-0.399523
1747.46	-1.34627
1747.72	-0.382368
1747.98	2.49138
1748.23	-0.369293
1748.49	-0.364357
1748.74	-2.27372
1749	0.593674
1749.26	1.54909
1749.51	0.595285
1749.77	0.596737
1750.02	-1.31129
1750.28	-0.355011
1750.54	-1.3071
1750.79	0.603674
1751.05	-0.348122
1751.31	-0.346653
1751.56	0.608618
1751.82	0.611189
1752.07	-0.339258
1752.33	-1.28923
1752.59	-1.28625
1752.84	-1.28395
1753.1	-0.329645
1753.35	0.623745
1753.61	-0.32815
1753.86	-0.328276
1754.12	-1.27976
1754.38	0.62418
1754.63	-0.324091
1754.89	2.53301
1755.14	1.58929
1755.4	-2.20736
1755.66	0.653221
1755.91	-5.05083
1756.17	0.66361
1756.42	-1.23416
1756.68	-0.277155
1756.93	-0.2728
1757.19	-2.17216
1757.44	-1.21707
1757.7	-2.16501
1757.96	1.64299
1758.21	2.59581
1758.47	-1.20648
1758.72	-4.05623
1758.98	-0.250181
1759.23	0.703972
1759.49	1.66
1759.75	1.66765
1760	-1.17848
1760.26	-3.07543
1760.51	0.732368
1760.77	-0.212944
1761.02	-0.206856
1761.28	-2.10231
1761.53	0.760572
1761.79	-0.181322
1762.05	0.777689
1762.3	0.784462
1762.56	-1.11328
1762.81	1.7485
1763.07	0.801632
1763.32	-1.09787
1763.58	1.76223
1763.83	-0.138552
1764.09	-1.08634
1764.34	-1.08219
1764.6	-2.9825
1764.85	-0.125015
1765.11	0.829256
1765.37	-1.07124
1765.62	-1.0669
1765.88	-2.01604
1766.13	0.833729
1766.39	-2.02099
1766.64	-1.07425
1766.9	-1.07232
1767.15	0.832281
1767.41	1.79247
1767.66	-2.95089
1767.92	1.80441
1768.17	-1.98999
1768.43	-0.0793819
1768.68	2.78266
1768.94	-1.96632
1769.19	-1.00959
1769.45	0.900154
1769.7	-1.94595
1769.96	-0.0365543
1770.21	-1.9334
1770.47	2.83134
1770.72	0.934092
1770.98	-0.0118084
1771.23	-0.00616646
1771.49	-0.000843048
1771.74	-2.85178
1772	2.86814
1772.26	-0.935234
1772.51	-0.927224
1772.76	0.0371399
1773.02	-0.908476
1773.27	-1.85589
1773.53	0.0553513
1773.78	0.0586014
1774.04	0.0606823
1774.29	-1.84354
1774.55	1.97071
1774.8	2.92444
1775.06	1.02034
1775.31	-1.83553
1775.57	1.9749
1775.82	-0.88074
1776.08	-0.880497
1776.33	-1.83144
1776.59	1.0252
1776.84	-1.82364
1777.1	-1.81605
1777.35	1.99602
1777.61	0.0980301
1777.86	-0.848182
1778.12	2.01318
1778.37	-0.838158
1778.63	0.11895
1778.88	0.12479
1779.13	1.08359
1779.39	0.138435
1779.65	0.145945
1779.9	0.152349
1780.15	0.158331
1780.41	1.11739
1780.66	1.12377
1780.92	-0.77652
1781.17	-1.72361
1781.43	-2.67033
1781.68	0.198459
1781.94	2.1128
1782.19	-2.65265
1782.45	-0.740597
1782.7	-1.69164
1782.95	-0.735217
1783.21	1.17555
1783.46	-1.68159
1783.72	-0.721991
1783.97	1.19306
1784.23	1.20097
1784.48	1.20998
1784.74	0.266447
1784.99	2.19169
1785.24	-2.57466
1785.5	2.22182
1785.75	3.18897
1786.01	0.323868
1786.26	1.29031
1786.52	0.341924
1786.77	-1.5675
1787.03	-2.52031
1787.28	-1.556
1787.54	0.366552
1787.79	1.32879
1788.04	1.33205
1788.3	-0.588389
1788.55	0.367383
1788.81	1.32719
1789.06	1.32998
1789.31	-1.53882
1789.57	-1.53465
1789.82	0.386127
1790.08	-0.566288
1790.33	3.27079
1790.59	-4.38996
1790.84	-0.552825
1791.09	-1.50611
1791.35	-0.543327
1791.6	1.37506
1791.86	-0.53919
1792.11	0.431477
1792.36	-1.47213
1792.62	-0.502742
1792.87	1.42386
1793.13	1.43039
1793.38	2.39741
1793.64	0.483544
1793.89	-0.470271
1794.14	0.49719
1794.4	2.42575
1794.65	1.47088
1794.9	0.515244
1795.16	-0.440898
1795.41	0.525425
1795.67	-0.431843
1795.92	-1.39008
1796.17	0.535352
1796.43	0.536877
1796.68	-2.34607
1796.94	-1.3843
1797.19	0.538547
1797.44	-1.38171
1797.7	-0.419185
1797.95	-1.37757
1798.21	0.546138
1798.46	-1.37186
1798.71	0.55269
1798.97	4.39904
1799.22	0.56139
1799.47	-2.3158
1799.73	-1.3497
1799.98	-1.34387
1800.24	-0.376355
1800.49	-1.33124
1800.74	1.55914
1801	-0.359893
1801.25	1.56771
1801.5	-1.312
1801.76	0.618247
1802.01	-0.33791
1802.27	1.59409
1802.52	-0.323986
1802.77	0.645905
1803.03	-2.23734
1803.28	-1.26857
1803.53	-0.299634
1803.79	2.59654
1804.04	-0.290346
1804.29	-2.21453
1804.55	0.680068
1804.8	-0.280577
1805.05	0.686588
1805.31	-1.23771
1805.56	-0.270374
1805.81	-1.23073
1806.07	-2.19109
1806.32	0.704463
1806.58	-1.22003
1806.83	0.711811
1807.08	0.715466
1807.34	0.718951
1807.59	1.68607
1807.84	1.68801
1808.1	-0.237885
1808.35	-0.235085
1808.6	-0.232489
1808.86	-0.229656
1809.11	-0.226431
1809.36	-0.222495
1809.62	0.746433
1809.87	0.751833
1810.12	0.757591
1810.38	0.762105
1810.63	1.73111
1810.88	-1.15804
1811.14	0.77866
1811.39	0.785639
1811.64	-0.172077
1811.9	0.800896
1812.15	0.806737
1812.4	1.77794
1812.65	-1.11735
1812.91	0.819037
1813.16	1.78922
1813.41	-0.140531
1813.67	-0.136197
1813.92	0.833163
1814.17	1.8021
1814.43	0.833521
1814.68	-1.10356
1814.93	-1.10343
1815.19	0.832239
1815.44	0.838276
1815.69	0.845697
1815.95	-0.117723
1816.2	-2.04788
1816.45	-0.111156
1816.7	-1.07322
1816.96	-1.06924
1817.21	-0.0984735
1817.46	1.83991
1817.72	-3.95773
1817.97	-2.01983
1818.22	2.82047
1818.47	-0.0766001
1818.73	1.86348
1818.98	0.90059
1819.23	0.904799
1819.49	-1.02719
1819.74	4.78403
1819.99	-1.02067
1820.24	-1.01765
1820.5	1.8881
1820.75	-1.01489
1821	1.88954
1821.26	0.924495
1821.51	0.928326
1821.76	0.932073
1822.01	-1.00047
1822.27	-2.93319
1822.52	-0.0244188
1822.77	-0.0213251
1823.03	0.949527
1823.28	-0.985186
1823.53	-0.0139294
1823.78	1.92564
1824.04	-0.00868988
1824.29	2.90064
1824.54	-0.00147724
1824.79	0.971361
1825.05	1.94393
1825.3	-0.961182
1825.55	-0.959507
1825.8	0.00954342
1826.06	-0.95906
1826.31	0.0106335
1826.56	0.0123901
1826.81	0.0138035
1827.07	-0.953438
1827.32	1.95144
1827.57	0.983724
1827.82	-0.952169
1828.08	0.0189028
1828.33	0.99128
1828.58	3.90073
1828.83	0.031229
1829.09	1.00376
1829.34	1.97674
1829.59	-2.86356
1829.84	1.01791
1830.1	-0.916984
1830.35	-0.915223
1830.6	2.96457
1830.85	0.0602808
1831.11	1.03203
1831.36	0.0655165
1831.61	-0.90771
1831.86	1.99186
1832.12	0.0495033
1832.37	-0.923022
1832.62	1.01032
1832.87	-2.86084
1833.13	0.0432787
1833.38	-1.88746
1833.63	-0.851423
1833.88	1.06758
1834.13	0.0817347
1834.39	0.0785732
1834.64	0.0682783
1834.89	0.0603743
1835.14	-0.9201
1835.39	0.0416012
1835.65	1.01353
1835.9	1.04449
1836.15	2.99044
1836.4	1.06005
1836.65	-0.874541
1836.91	0.0986547
1837.16	-0.86846
1837.41	-0.881368
1837.66	0.0790281
1837.92	-2.82906
1838.17	0.0663548
1838.42	-0.905181
1838.67	-2.84109
1838.92	1.01708
1839.18	-0.917038
1839.43	2.93846
1839.68	0.0429993
1839.93	1.01128
1840.18	-0.917294
1840.43	1.97949
1840.69	-0.913195
1840.94	0.0525293
1841.19	0.052784
1841.44	-0.909743
1841.7	1.02246
1841.95	0.0587082
1842.2	0.0585232
1842.45	1.02504
1842.7	0.0639105
1842.95	-0.893307
1843.2	-0.885915
1843.46	1.0545
1843.71	0.0944271
1843.96	-2.81328
1844.21	-0.902472
1844.46	-0.918597
1844.72	1.00484
1844.97	0.0463457
1845.22	1.98184
1845.47	0.0586252
1845.72	-1.87256
1845.97	1.0151
1846.23	-2.83544
1846.48	-0.911762
1846.73	1.0099
1846.98	0.0443373
1847.23	-1.88282
1847.48	-0.924656
1847.74	-0.927464
1847.99	0.992045
1848.24	1.95053
1848.49	-0.932599
1848.74	0.0270348
1848.99	0.0269747
1849.25	0.987915
1849.5	0.989036
1849.75	0.990239
1850	0.0310411
1850.25	-2.84904
1850.5	0.0316029
1850.75	-0.92929
1851.01	0.0283985
1851.26	0.984556
1851.51	2.89861
1851.76	-0.940346
1852.01	0.0178709
1852.26	-1.90125
1852.51	2.88693
1852.76	0.966682
1853.02	0.00771332
1853.27	-0.950396
1853.52	0.965806
1853.77	0.967008
1854.02	0.967628
1854.27	0.0100393
1854.52	-2.86358
1854.78	-0.948926
1855.03	0.00766087
1855.28	-0.951238
1855.53	1.91788
1855.78	0.00120258
1856.03	-0.957933
1856.28	-0.00417233
1856.53	0.94901
1856.79	-0.964081
1857.04	1.9052
1857.29	1.9058
1857.54	1.9086
1857.79	-0.955864
1858.04	-0.953045
1858.29	2.87656
1858.54	-1.90316
1858.79	0.0132895
1859.04	0.97132
1859.3	0.0138941
1859.55	2.88215
1859.8	1.92239
1860.05	0.962806
1860.3	-1.90834
1860.55	-0.954719
1860.8	1.91005
1861.05	-0.958758
1861.3	0.950007
1861.56	-0.00712013
1861.81	-0.00914955
1862.06	0.943041
1862.31	-0.969596
1862.56	-0.0190411
1862.81	-0.97738
1863.06	-2.88928
1863.31	-1.94063
1863.56	2.81775
1863.81	-0.0457134
1864.06	-1.95512
1864.32	1.84626
1864.57	1.84072
1864.82	1.83698
1865.07	0.884615
1865.32	0.883564
1865.57	0.883351
1865.82	-0.0660009
1866.07	-0.0646353
1866.32	0.886051
1866.57	-0.064971
1866.82	1.83578
1867.07	-0.0656681
1867.32	0.884601
1867.57	0.884339
1867.83	0.884284
1868.08	-1.9667
1868.33	0.884659
1868.58	1.83393
1868.83	-0.0680265
1869.08	-1.97025
1869.33	-0.0712538
1869.58	-1.97204
1869.83	0.874493
1870.08	1.82131
1870.33	-0.0787048
1870.58	0.870528
1870.83	-1.02907
1871.08	0.867214
1871.33	0.864431
1871.58	-0.0874653
1871.84	1.80591
1872.08	0.853794
1872.33	-0.0980959
1872.59	0.845472
1872.84	-1.05505
1873.09	-2.00901
1873.34	0.82642
1873.59	0.822206
1873.84	0.81917
1874.09	-2.96666
1874.34	-1.08287
1874.59	0.796358
1874.84	0.784406
1875.09	1.75679
1875.34	-2.93672
1875.59	-0.119094
1875.84	3.66334
1876.09	0.827366
1876.34	-2.94641
1876.59	-0.101516
1876.84	-0.106804
1877.09	-0.110002
1877.34	1.7833
1877.59	1.78361
1877.84	-0.107907
1878.09	-0.11086
1878.34	-1.05925
1878.59	0.826836
1878.84	-2.0179
1879.09	-2.0243
1879.34	-1.08655
1879.59	-0.15079
1879.84	-0.159202
1880.1	-1.10816
1880.34	-0.143338
1880.59	2.75243
1880.84	-0.152342
1881.1	1.70728
1881.34	-4.88602
1881.59	2.65948
1881.84	-1.11556
1882.1	2.66269
1882.34	-0.160543
1882.59	0.785048
1882.85	0.789041
1883.1	-0.148738
1883.34	-1.08999
1883.59	3.63327
1883.85	0.796623
1884.09	1.73507
1884.34	-0.156094
1884.59	1.72739
1884.84	1.72323
1885.09	0.775862
1885.34	0.77078
1885.59	-1.11984
1885.84	-1.12446
1886.09	-3.01241
1886.34	-0.191225
1886.59	-1.13415
1886.84	-0.193654
1887.09	1.68892
1887.34	-1.13309
1887.59	0.753682
1887.84	-1.12745
1888.09	-0.185146
1888.34	1.69729
1888.59	0.754595
1888.84	3.57915
1889.09	-0.188985
1889.34	1.69382
1889.59	-1.13241
1889.84	-0.19329
1890.09	0.744304
1890.34	-1.14452
1890.59	0.728257
1890.84	0.721507
1891.09	-0.216421
1891.34	-0.218453
1891.59	0.716812
1891.84	0.714301
1892.09	-1.16527
1892.34	-1.16482
1892.59	0.715342
1892.83	-0.222823
1893.08	-1.16106
1893.33	0.720531
1893.58	-1.15706
1893.83	-0.214355
1894.08	-1.15273
1894.33	-1.15129
1894.58	2.61211
1894.83	-0.209584
1895.08	1.67113
1895.33	-0.211578
1895.58	-1.1543
1895.83	-0.216906
1896.08	-2.10089
1896.33	3.53457
1896.58	-0.227087
1896.83	1.65028
1897.08	-3.04971
1897.32	-0.232952
1897.57	-0.233473
1897.82	-0.232865
1898.07	0.708078
1898.32	-1.16851
1898.57	-3.04597
1898.82	-1.16366
1899.07	-0.221016
1899.32	-2.09837
1899.57	0.725126
1899.82	-3.0385
1900.07	-2.09926
1900.31	3.5416
1900.57	0.718182
1900.81	-2.10425
1901.06	-0.224908
1901.31	0.714361
1901.56	0.713562
1901.81	-3.04803
1902.06	-1.16895
1902.31	-1.16963
1902.56	0.709852
1902.81	-3.05177
1903.06	-0.238363
1903.31	1.63669
1903.55	0.694948
1903.8	0.692713
1904.05	-2.12631
1904.3	-0.249506
1904.55	0.690055
1904.8	0.690211
1905.05	-1.18557
1905.3	0.694863
1905.55	-0.244202
1905.79	-0.243644
1906.04	0.697483
1906.29	-1.17999
1906.54	-0.237377
1906.79	0.70649
1907.04	-0.229714
1907.29	0.715748
1907.54	-1.16177
1907.79	1.66629
1908.04	1.66916
1908.28	-2.09664
1908.53	-2.09609
1908.78	0.729623
1909.03	-0.213135
1909.28	1.66869
1909.53	-0.216191
1909.78	2.60861
1910.03	0.724496
1910.27	2.60771
1910.52	4.49207
1910.77	0.727158
1911.02	2.61662
1911.27	2.6214
1911.52	1.68136
1911.77	-0.201684
1912.02	1.68754
1912.26	0.746643
1912.51	-0.195687
1912.76	-3.02676
1913.01	-1.14072
1913.26	-2.08613
1913.51	2.63046
1913.76	0.739538
1914	-1.1504
1914.25	-0.210231
1914.5	-1.15566
1914.75	-0.214657
1915	2.61218
1915.25	-0.215495
1915.49	2.61538
1915.74	-0.210467
1915.99	-0.206915
1916.24	1.68457
1916.49	0.745353
1916.74	-1.13697
1916.99	1.7008
1917.23	-1.13228
1917.48	1.70184
1917.73	0.75355
1917.98	0.756121
1918.23	-0.185301
1918.48	-0.182175
1918.72	0.764258
1918.97	-0.179568
1919.22	3.60368
1919.47	-0.180463
1919.72	-0.182692
1919.97	-1.1314
1920.21	-0.1884
1920.46	1.70038
1920.71	2.64364
1920.96	-3.02966
1921.21	0.747743
1921.46	2.63382
1921.7	0.742154
1921.95	1.68605
1922.2	-1.14786
1922.45	-0.201308
1922.7	2.6371
1922.94	-0.19435
1923.19	2.64612
1923.44	0.758046
1923.69	-1.13071
1923.94	-1.12724
1924.19	-0.178771
1924.43	-0.17732
1924.68	-1.12301
1924.93	-0.174886
1925.18	0.773344
1925.43	-1.12047
1925.67	-0.172682
1925.92	1.72388
1926.17	-0.169991
1926.42	-0.168041
1926.66	0.783037
1926.91	2.68412
1927.16	-1.10676
1927.41	-1.10331
1927.66	-0.151576
1927.91	-2.99709
1928.15	-2.99741
1928.4	-1.09919
1928.65	4.59476
1928.9	-0.154746
1929.15	-2.05568
1929.39	-3.0072
1929.64	0.785732
1929.89	2.68037
1930.14	1.73011
1930.38	-1.11808
1930.63	-1.1168
1930.88	0.785638
1931.13	1.7432
1931.37	0.804243
1931.62	-1.08458
1931.87	2.73381
1932.12	-2.0177
1932.37	-2.96424
1932.61	-2.0062
1932.86	-1.05242
1933.11	2.75026
1933.36	-1.06287
1933.61	-0.111897
1933.85	-2.97341
1934.1	1.78625
1934.35	0.829111
1934.6	0.825125
1934.84	2.72519
1935.09	-0.134355
1935.34	-0.137412
1935.59	-1.08839
1935.83	2.72369
1936.08	0.820294
1936.33	0.822116
1936.58	0.82383
1936.82	2.73055
1937.07	-2.98463
1937.32	0.827147
1937.57	-0.122627
1937.81	2.74246
1938.06	-0.109697
1938.31	0.847497
1938.56	2.75422
1938.8	1.79576
1939.05	2.74127
1939.3	-0.125434
1939.55	-0.116874
1939.79	0.84939
1940.04	0.850462
1940.29	-0.106681
1940.54	0.840207
1940.78	2.7407
1941.03	-2.98429
1941.28	0.839586
1941.52	-1.06761
1941.77	0.844321
1942.02	-0.107822
1942.27	-0.104938
1942.51	-2.0132
1942.76	1.81223
1943.01	0.85897
1943.26	1.8171
1943.5	0.862302
1943.75	-0.0934095
1944	0.862693
1944.24	2.77395
1944.49	-1.05374
1944.74	-0.0994091
1944.99	1.812
1945.23	-0.101382
1945.48	-2.01506
1945.73	3.72055
1945.97	-1.05972
1946.22	-1.05786
1946.47	-1.0558
1946.71	3.73086
1946.96	1.82064
1947.21	0.86775
1947.46	-1.04184
1947.7	-0.0784702
1947.95	-0.0738487
1948.2	-1.98675
1948.44	2.81463
1948.69	0.900662
1948.94	1.86408
1949.19	1.8663
1949.43	1.8681
1949.68	0.908411
1949.93	-1.97324
1950.17	1.87138
1950.42	-1.01052
1950.67	-1.01584
1950.91	0.896713
1951.16	-1.03272
1951.41	2.79424
1951.65	1.82616
1951.9	-1.05466
1952.15	-0.0989418
1952.39	-1.05744
1952.64	3.73501
1952.89	-1.05208
1953.14	-1.04546
1953.38	-1.03856
1953.63	1.84422
1953.88	-0.0722342
1954.12	-1.03043
1954.37	0.892928
1954.62	0.895351
1954.86	2.81903
1955.11	-0.0625067
1955.36	-0.0619726
1955.6	3.78285
1955.85	-0.0626078
1956.1	-1.02634
1956.34	0.892413
1956.59	-0.0704536
1956.84	-1.99404
1957.08	-1.99689
1957.33	-0.0788145
1957.58	-2.00266
1957.82	-0.0854769
1958.07	0.870919
1958.31	1.82725
1958.56	-2.01467
1958.81	-2.01617
1959.05	-0.0970469
1959.3	-2.97639
1959.55	0.862445
1959.79	-1.05737
1960.04	-0.0977421
1960.29	-1.05793
1960.53	-1.05826
1960.78	0.861486
1961.03	0.861904
1961.27	0.863003
1961.52	1.82342
1961.77	-2.01907
1962.01	-1.0602
1962.26	-1.06109
1962.5	-2.98252
1962.75	-0.102036
1963	1.81993
1963.24	-0.0985918
1963.49	0.864771
1963.74	-1.05492
1963.98	0.868634
1964.23	-0.0923986
1964.48	-1.05469
1964.72	-0.0936556
1964.97	1.82931
1965.21	2.79027
1965.46	0.867433
1965.71	-1.05693
1965.95	-0.0982018
1966.2	0.858932
1966.44	-0.10699
1966.69	0.847672
1966.94	-0.118179
1967.18	1.79742
1967.43	-3.96525
1967.68	-0.128897
1967.92	-1.09202
1968.17	-0.135349
1968.41	-1.097
1968.66	-0.139948
1968.91	-1.10065
1969.15	1.77796
1969.4	-2.05882
1969.64	-0.140486
1969.89	-0.141887
1970.14	-1.10367
1970.38	-1.10721
1970.63	-1.11117
1970.87	0.803074
1971.12	-2.07526
1971.37	-0.159975
1971.61	0.797366
1971.86	-3.03719
1972.1	1.75538
1972.35	-0.161053
1972.6	-1.11854
1972.84	-0.158268
1973.09	-0.157261
1973.33	-1.11589
1973.58	1.76167
1973.82	-1.11645
1974.07	2.71962
1974.32	-0.159601
1974.56	0.797484
1974.81	-2.08243
1975.05	3.66772
1975.3	2.70526
1975.55	0.785041
1975.79	0.782707
1976.04	-1.1357
1976.28	1.73918
1976.53	-2.09516
1976.77	-1.13743
1977.02	-0.178965
1977.26	-0.179974
1977.51	1.73402
1977.76	-1.14478
1978	-0.189524
1978.25	-2.10754
1978.49	0.76324
1978.74	-0.196728
1978.98	2.67492
1979.23	-0.199638
1979.48	-2.11676
1979.72	0.752452
1979.97	-1.16573
1980.21	0.743934
1980.46	2.65214
1980.7	-1.17837
1980.95	-1.1801
1981.19	-0.225482
1981.44	-2.14072
1981.69	-2.14282
1981.93	1.68016
1982.18	1.67582
1982.42	2.62656
1982.67	-3.10981
1982.91	1.66878
1983.16	-1.19826
1983.4	-1.19681
1983.65	-0.239244
1983.89	2.6292
1984.14	-0.240971
1984.38	0.715631
1984.63	0.710418
1984.88	-3.11802
1985.12	-0.25688
1985.37	-0.263578
1985.61	-0.271752
1985.86	-0.284149
1986.1	-1.24756
1986.35	-1.25627
1986.59	1.5922
1986.84	1.58689
1987.08	-0.320153
1987.33	0.630933
1987.57	2.53645
1987.82	-1.2654
1988.06	1.59472
1988.31	0.645668
1988.55	0.650342
1988.8	0.661044
1989.04	1.60816
1989.29	1.58495
1989.53	-0.279123
1989.78	-0.324729
1990.02	1.50233
1990.27	-4.75062
1990.52	-2.10034
1990.76	-1.22378
1991.01	-0.369531
1991.25	-1.16994
1991.49	1.33959
1991.74	0.551031
1991.99	2.23086
1992.23	-0.25661
1992.47	0.238087
1992.72	0.215484
1992.97	-1.18812
1993.21	0.893882
1993.45	-1.34003
1993.7	0.426188
1993.95	0.694969
1994.19	-0.824591
1994.43	-2.53748
1994.68	-1.35465
1994.93	0.141695
1995.17	0.771359
1995.41	1.06269
1995.66	-1.83505
1995.9	0.0831699
1996.15	1.12672
1996.39	0.0684185
1996.64	1.60926
1996.88	-0.519878
1997.13	-0.0129461
1997.37	-0.461751
1997.62	0.783064
1997.86	1.58914
1998.11	-0.231779
1998.35	-1.08453
1998.6	-0.681213
1998.84	0.715391
1999.09	-0.53371
1999.33	0.710917
1999.57	-1.58286
1999.82	0.255824
2000.06	-0.17728
2000.31	0.30999
2000.55	-0.16159
2000.8	-1.07805
2001.04	0.765582
2001.29	0.734118
2001.53	-1.62484
2001.78	1.5703
2002.02	-0.885822
2002.27	-0.145996
2002.51	-1.30828
2002.75	0.103292
2003	0.757728
2003.24	-1.1284
2003.49	-2.52056
2003.73	1.96996
2003.98	-0.40398
2004.22	-0.729404
2004.47	-0.8485
2004.71	-0.602962
2004.95	-0.672423
2005.2	-1.1992
2005.44	1.31533
2005.69	-0.397421
2005.93	0.0244846
2006.18	-0.14125
2006.42	1.14416
2006.66	0.152827
2006.91	-0.5769
2007.15	0.0668259
2007.4	-0.184458
2007.64	-0.839787
2007.89	-1.14899
2008.13	-0.514174
2008.38	-0.0643435
2008.62	0.265097
2008.86	-0.431494
2009.11	-1.07825
2009.35	-0.911003
2009.6	0.37184
2009.84	-0.385083
2010.08	-0.725757
2010.33	-0.475003
2010.57	0.804506
2010.82	0.196525
2011.06	-1.82621
2011.3	-0.650204
2011.55	0.852146
2011.79	-0.253816
2012.04	-1.14018
2012.18	-0.0302172
2012.43	-0.0288181
2012.68	2.78975
2012.93	3.73048
2013.17	-0.964957
2013.42	-0.0258055
2013.67	-1.89306
2013.91	0.928618
2014.16	-0.0123777
2014.41	-2.83402
2014.66	3.73945
2014.9	0.915873
2015.15	-0.968143
2015.4	0.902635
2015.64	-0.0417871
2015.89	0.890304
2016.14	0.883646
2016.38	-1.93377
2016.63	0.873453
2016.88	-0.0657139
2017.13	1.80567
2017.37	-1.94151
2017.62	-0.0693359
2017.87	0.866148
2018.11	1.80291
2018.36	1.8037
2018.61	-1.00646
2018.86	0.865809
2019.1	-1.94557
2019.35	0.861535
2019.6	0.858247
2019.84	1.79014
2020.09	-0.0864105
2020.34	0.845397
2020.58	-1.02906
2020.83	-3.83792
2021.08	-0.101017
2021.32	0.830393
2021.57	-1.04366
2021.82	-1.983
2022.06	-0.120101
2022.31	0.808314
2022.56	1.7365
2022.8	-0.134433
2023.05	-1.07249
2023.3	-1.07252
2023.54	1.73077
2023.79	-0.126922
2024.04	-1.05059
2024.28	-0.104257
2024.53	1.77514
2024.78	-1.03282
2025.02	-0.10602
2025.27	0.814756
2025.52	-1.08829
2025.76	0.804917
2026.01	-1.94964
2026.26	-1.03295
2026.5	1.78667
2026.75	-0.109558
2027	-1.06065
2027.24	-0.145253
2027.49	-1.07869
2027.74	-2.02421
2027.98	-0.150864
2028.23	-1.07417
2028.48	0.789145
2028.72	2.655
2028.97	-2.9439
2029.22	-0.140996
2029.46	2.6642
2029.71	4.53824
2029.96	0.807189
2030.2	-0.123586
2030.45	-0.121141
2030.69	-0.117435
2030.94	2.69184
2031.19	-0.122226
2031.43	-1.99963
2031.68	-0.147888
2031.93	0.778657
2032.17	-1.08121
2032.42	-1.07726
2032.66	-0.136458
2032.91	1.74367
2033.16	-0.118269
2033.4	-1.05268
2033.65	-1.06119
2033.9	-2.93192
2034.14	0.811344
2034.39	-1.05932
2034.63	-0.125339
2034.88	1.74269
2035.13	-0.129421
2035.37	-0.131959
2035.62	1.73438
2035.87	-2.94071
2036.11	1.72812
2036.36	-2.01149
2036.6	2.65541
2036.85	-0.149895
2037.1	0.778962
2037.34	2.64053
2037.59	-5.76111
2037.83	-0.167444
2038.08	0.761459
2038.33	-0.174178
2038.57	0.756176
2038.82	-0.177398
2039.06	-1.11182
2039.31	0.749866
2039.56	2.61005
2039.8	-0.187557
2040.05	-0.188062
2040.3	0.744229
2040.54	-0.184457
2040.79	0.753138
2041.03	0.759138
2041.28	3.56064
2041.52	-0.172143
2041.77	-2.04127
2042.02	-0.182554
2042.26	-0.195116
2042.51	-0.182955
2042.75	0.757425
2043	1.70964
2043.25	1.73654
2043.49	0.79291
2043.74	-0.157849
2043.98	-0.169581
2044.23	-2.03786
2044.47	-1.1082
2044.72	0.746108
2044.97	-0.191343
2045.21	-0.191632
2045.46	0.740847
2045.7	-2.05568
2045.95	0.742322
2046.19	0.745714
2046.44	2.61414
2046.69	0.752209
2046.93	0.757232
2047.18	-0.172575
2047.42	1.69903
2047.67	1.70142
2047.91	-0.166573
2048.16	-1.10205
2048.41	-2.0392
2048.65	0.757921
2048.9	-2.04457
2049.14	0.75634
2049.39	1.69179
2049.63	0.75826
2049.88	-0.174641
2050.12	-0.172912
2050.37	1.69813
2050.62	0.767022
2050.86	-2.96652
2051.11	0.776546
2051.35	-0.157207
2051.6	1.71377
2051.84	0.777452
2052.09	-0.15934
2052.33	0.774693
2052.58	-0.164955
2052.82	-3.90741
2053.07	0.766354
2053.31	0.764307
2053.56	0.761912
2053.8	0.76018
2054.05	-2.04476
2054.3	-1.11007
2054.54	-2.97932
2054.79	-1.10868
2055.03	-2.04222
2055.28	-1.1059
2055.52	0.76788
2055.77	-0.164873
2056.01	-1.09824
2056.26	0.775573
2056.5	0.775953
2056.75	-0.160057
2056.99	-0.160005
2057.24	-1.09864
2057.48	0.770733
2057.73	-0.168056
2057.97	-0.167066
2058.22	0.770576
2058.46	-0.164558
2058.71	1.708
2058.95	-1.10115
2059.2	-0.165076
2059.45	-2.03752
2059.69	-2.97337
2059.94	0.774033
2060.18	4.52328
2060.43	-0.158768
2060.67	0.779646
2060.92	0.780762
2061.16	-0.155864
2061.4	1.71937
2061.65	-1.09195
2061.9	-0.152983
2062.14	1.7251
2062.39	0.7914
2062.63	0.795101
2062.88	0.798284
2063.12	-2.95457
2063.37	1.74134
2063.61	-0.136514
2063.86	-1.07513
2064.1	-1.07409
2064.34	-2.01302
2064.59	-1.07268
2064.83	-0.131569
2065.08	0.809593
2065.32	-0.129313
2065.57	0.810865
2065.81	1.75222
2066.06	-1.0681
2066.3	-2.01073
2066.55	-0.135473
2066.79	-1.08179
2067.04	2.67089
2067.28	0.792961
2067.53	-1.08102
2067.77	-2.01489
2068.02	-0.127956
2068.26	0.812085
2068.51	-0.133602
2068.75	-2.00305
2069	1.77054
2069.24	-0.114429
2069.48	1.76682
2069.73	0.823786
2069.97	0.821731
2070.22	-0.120875
2070.46	-1.06387
2070.71	0.818717
2070.95	2.70156
2071.2	1.76009
2071.44	4.58613
2071.69	-0.120618
2071.93	0.824471
2072.18	0.8289
2072.42	0.834919
2072.66	0.842272
2072.91	2.73489
2073.15	-1.03814
2073.4	2.73756
2073.64	0.849335
2073.89	-1.98489
2074.13	0.842987
2074.38	-0.104964
2074.62	3.65996
2074.87	-0.1158
2075.11	-0.115262
2075.35	0.83038
2075.6	-1.05585
2075.84	-0.112119
2076.09	-1.99827
2076.33	0.834854
2076.58	-0.102425
2076.82	-1.04484
2077.06	2.73535
2077.31	0.847607
2077.55	1.79389
2077.8	1.79344
2078.04	-0.0991535
2078.29	0.843596
2078.53	-1.99239
2078.77	-0.103784
2079.02	-0.105601
2079.26	2.72911
2079.51	1.78456
2079.75	0.839598
2080	-1.99609
2080.24	-4.83232
2080.48	-1.05387
2080.73	-1.05553
2080.97	-0.111681
2081.22	1.77748
2081.46	-0.1137
2081.7	-0.114563
2081.95	-0.115137
2082.19	-1.06101
2082.44	0.827831
2082.68	2.71697
2082.93	1.77159
2083.17	-0.115966
2083.41	-1.05791
2083.66	-1.05543
2083.9	0.836824
2084.14	0.83755
2084.39	0.839037
2084.63	0.8398
2084.88	-1.05397
2085.12	-2.00124
2085.36	-0.109234
2085.61	2.72968
2085.85	1.78298
2086.1	-2.95017
2086.34	1.78392
2086.58	1.78566
2086.83	-1.05263
2087.07	2.7369
2087.32	0.842045
2087.56	3.68409
2087.8	0.842259
2088.05	2.73793
2088.29	-0.104289
2088.54	0.843903
2088.78	1.79453
2089.02	-1.04666
2089.27	-1.04343
2089.51	2.75555
2089.75	1.81122
2090	0.865211
2090.24	0.867993
2090.48	-1.02923
2090.73	0.873522
2090.97	-0.0748577
2091.22	-1.02394
2091.46	1.82808
2091.7	0.876143
2091.95	-0.0765219
2092.19	-0.0788393
2092.43	-0.0824795
2092.68	1.81417
2092.92	4.66098
2093.17	2.75718
2093.41	1.80447
2093.65	-0.0974493
2093.9	-0.0993128
2094.14	0.847309
2094.38	1.79253
2094.63	0.838272
2094.87	-1.06324
2095.11	-1.06537
2095.36	2.72985
2095.6	0.827394
2095.84	1.77523
2096.09	-1.07382
2096.33	2.72018
2096.57	-2.02709
2096.82	-1.07977
2097.06	2.71496
2097.3	-0.133022
2097.55	-2.0318
2097.79	-2.03217
2098.03	2.71676
2098.28	-1.07949
2098.52	-0.129324
2098.76	0.820113
2099.01	1.7686
2099.25	1.76665
2099.5	-1.08404
2099.74	-0.136407
2099.98	1.7591
2100.22	1.75408
2100.47	-0.148141
2100.71	-0.14991
2100.95	0.796856
2101.2	-1.1029
2101.44	1.74461
2101.68	1.74572
2101.93	-0.152447
2102.17	0.797873
2102.41	0.799057
2102.66	0.801089
2102.9	-0.147494
2103.14	2.70398
2103.39	-0.147339
2103.63	-0.148011
2103.87	-2.05031
2104.12	-0.149204
2104.36	-0.149993
2104.6	0.797633
2104.85	-0.157413
2105.09	2.68812
2105.33	-1.11853
2105.57	2.67521
2105.82	-1.12863
2106.06	1.71689
2106.3	-1.13273
2106.55	-2.08087
2106.79	1.72048
2107.03	-0.180872
2107.27	-1.13244
2107.52	0.765878
2107.76	2.66416
2108	-1.13739
2108.25	3.61076
2108.49	-0.191725
2108.73	-1.14517
2108.98	-0.198706
2109.22	0.74836
2109.46	-0.203165
2109.7	3.59534
2109.95	-0.203601
2110.19	-0.203609
2110.43	-0.201872
2110.68	-0.200297
2110.92	-0.200434
2111.16	-1.15321
2111.4	0.744479
2111.65	0.742304
2111.89	1.69159
2112.13	-0.210477
2112.38	1.68783
2112.62	1.68464
2112.86	-1.16912
2113.1	-0.2219
2113.35	-1.17643
2113.59	-0.231203
2113.83	-0.234536
2114.07	1.66213
2114.32	0.710037
2114.56	1.65837
2114.8	-2.14301
2115.04	3.54957
2115.29	2.5954
2115.53	-1.20694
2115.77	-0.264143
2116.01	-1.218
2116.26	0.673794
2116.5	2.56481
2116.74	2.55929
2116.99	-0.289057
2117.23	-1.24074
2117.47	-2.19101
2117.71	1.59762
2117.96	-1.24481
2118.2	0.650333
2118.44	-0.296242
2118.68	-0.294499
2118.92	0.655404
2119.17	-2.18919
2119.41	-2.18864
2119.65	0.658488
2119.9	0.658731
2120.14	1.60794
2120.38	-2.18992
2120.62	-0.292474
2120.86	0.653862
2121.11	1.59943
2121.35	-0.303402
2121.59	0.639772
2121.83	-0.316792
2122.08	3.46612
2122.32	-1.28221
2122.56	-2.23628
2122.8	-0.348315
2123.04	1.53865
2123.29	1.53216
2123.53	-0.365849
2123.77	0.575027
2124.01	-0.376208
2124.26	-3.21835
2124.5	-0.384908
2124.74	0.557734
2124.98	0.554845
2125.22	0.551079
2125.47	2.4384
2125.71	-0.399405
2125.95	1.4892
2126.19	-0.403915
2126.44	2.42832
2126.68	-0.410331
2126.92	4.31222
2127.16	1.47414
2127.4	1.47106
2127.65	-1.36695
2127.89	0.519209
2128.13	-0.429483
2128.37	-3.26744
2128.61	0.506189
2128.86	2.39033
2129.1	0.498045
2129.34	2.38239
2129.58	0.489097
2129.82	-0.459831
2130.06	1.42374
2130.31	-0.465985
2130.55	0.476078
2130.79	-1.4128
2131.03	-0.471092
2131.27	1.41474
2131.52	1.41325
2131.76	2.3544
2132	-2.36695
2132.24	-1.42582
2132.48	-1.42866
2132.73	1.39852
2132.97	-0.493276
2133.21	-0.499814
2133.45	1.37908
2133.69	3.25953
2133.94	1.37233
2134.18	-0.514539
2134.42	1.36903
2134.66	1.36845
2134.9	0.426577
2135.14	-2.40535
2135.39	2.30271
2135.63	-1.47378
2135.87	-0.531459
2136.11	0.41417
2136.35	-1.4708
2136.59	-2.4216
2136.84	0.39787
2137.08	-2.43408
2137.32	-1.49622
2137.56	0.38377
2137.8	-2.44604
2138.04	-1.50756
2138.28	-1.51094
2138.53	-0.571432
2138.77	-0.576342
2139.01	1.30072
2139.25	-2.46848
2139.49	-0.588282
2139.74	-1.52949
2139.98	-1.52955
2140.22	0.363137
2140.46	0.356803
2140.7	-0.621974
2140.94	-1.56831
2141.18	0.312121
2141.43	1.25504
2141.67	3.13941
2141.91	-0.621685
2142.15	-1.57169
2142.39	1.24672
2142.63	-0.6352
2142.87	-0.638298
2143.12	2.17858
2143.36	0.294538
2143.6	-0.649151
2143.84	-0.652739
2144.08	1.2231
2144.32	1.2184
2144.56	-0.66543
2144.8	0.269799
2145.05	0.265715
2145.29	0.261477
2145.53	1.19638
2145.77	-0.686254
2146.01	-0.690935
2146.25	1.18109
2146.49	-0.702175
2146.73	2.10358
2146.98	1.1591
2147.22	1.15211
2147.46	-2.60343
2147.7	1.1419
2147.94	-0.73557
2148.18	-0.736898
2148.42	-0.736837
2148.66	2.07499
2148.9	0.199885
2149.15	2.07402
2149.39	-0.73947
2149.63	-0.744141
2149.87	0.189077
2150.11	0.183738
2150.35	1.1159
2150.59	-0.762609
2150.83	-4.51524
2151.07	2.03998
2151.31	-0.777191
2151.56	0.151917
2151.8	-0.793438
2152.04	-0.801612
2152.28	1.05968
2152.52	-0.818123
2152.76	-0.82509
2153	-1.76592
2153.24	1.03181
2153.48	1.02746
2153.72	0.0900326
2153.97	1.02125
2154.21	1.01871
2154.45	-2.71948
2154.69	0.0827198
2154.93	1.01759
2155.17	1.01791
2155.41	-1.78798
2155.65	1.94832
2155.89	-1.79365
2156.13	1.00648
2156.37	0.0674171
2156.61	-0.871954
2156.86	0.990918
2157.1	-0.883491
2157.34	0.97761
2157.58	-1.82901
2157.82	-0.90102
2158.06	-0.905293
2158.3	-0.908594
2158.54	0.0205898
2158.78	0.016489
2159.02	1.87916
2159.26	2.80947
2159.5	2.807
2159.74	0.00549126
2159.98	0.934533
2160.22	-0.00293922
2160.47	-0.0072279
2160.71	0.92115
2160.95	-0.0155964
2161.19	-0.0199823
2161.43	-1.88989
2161.67	0.899455
2161.91	1.82579
2162.15	-0.0398903
2162.39	1.82297
2162.63	-0.0430117
2162.87	0.886519
2163.11	-1.91145
2163.35	-1.91544
2163.59	-2.85118
2163.83	1.80207
2164.07	-0.0665827
2164.31	-1.00274
2164.55	-1.00854
2164.79	-1.01542
2165.03	-2.88537
2165.27	-2.8937
2165.51	-0.109448
2165.76	-1.04214
2166	1.7452
2166.24	-1.0446
2166.48	-0.114194
2166.72	-1.04275
2166.96	0.820928
2167.2	-1.03723
2167.44	-1.03626
2167.68	-1.03737
2167.92	-0.109513
2168.16	1.74719
2168.4	-0.119035
2168.64	0.803169
2168.88	0.789405
2169.12	-0.149228
2169.36	1.70397
2169.6	-0.160131
2169.84	0.764345
2170.08	-0.167885
2170.32	-0.170658
2170.56	0.755654
2170.8	-0.174895
2171.04	-1.10471
2171.28	0.752889
2171.52	-2.03699
2171.76	-0.180481
2172	1.67574
2172.24	0.743585
2172.48	0.740014
2172.72	-2.0514
2172.96	0.733373
2173.2	-1.12835
2173.44	-1.13195
2173.68	1.6501
2173.92	0.71752
2174.16	0.715034
2174.4	-1.14488
2174.64	-1.14704
2174.88	-0.22097
2175.12	-0.222718
2175.36	2.56026
2175.6	0.695525
2175.84	-1.16737
2176.08	1.61499
2176.32	-0.243603
2176.56	-1.1743
2176.8	0.680435
2177.04	1.60645
2177.28	-0.253095
2177.52	-0.255954
2177.76	-3.97305
2178	-0.262845
2178.24	-1.19401
2178.48	1.58759
2178.72	0.654938
2178.96	0.65055
2179.2	1.57542
2179.44	-2.1409
2179.68	0.638787
2179.92	-0.29271
2180.16	-1.2257
2180.4	-0.303877
2180.64	0.616227
2180.88	-0.316626
2181.12	0.605313
2181.35	0.60045
2181.59	1.52379
2181.83	0.595333
2182.07	1.52127
2182.31	-3.11343
2182.55	-1.2612
2182.79	0.592071
2183.03	-0.334651
2183.27	0.59319
2183.51	2.44847
2183.75	0.595933
2183.99	0.598611
2184.23	2.45768
2184.47	0.60366
2184.71	-0.32365
2184.95	-0.324861
2185.19	1.52875
2185.43	-1.26216
2185.67	1.51789
2185.91	2.44011
2186.15	0.577582
2186.38	-1.28453
2186.62	2.41813
2186.86	-0.37084
2187.1	1.4789
2187.34	1.47576
2187.58	0.547018
2187.82	1.47308
2188.06	-0.38173
2188.3	3.32463
2188.54	1.46912
2188.78	-1.3135
2189.02	0.54042
2189.26	0.539703
2189.5	1.46646
2189.74	0.538239
2189.97	0.538734
2190.21	-0.388389
2190.45	1.46819
2190.69	2.39825
2190.93	1.47492
2191.17	-2.23531
2191.41	1.48515
2191.65	-0.373037
2191.89	-0.375647
2192.13	1.47941
2192.37	-0.383241
2192.61	-0.38765
2192.85	2.39435
2193.08	1.45838
2193.32	3.30743
2193.56	2.37089
2193.8	2.36432
2194.04	-0.424644
2194.28	0.498413
2194.52	4.20405
2194.76	0.491874
2195	1.41802
2195.24	1.41777
2195.47	0.491997
2195.71	-1.36195
2195.95	1.42558
2196.19	1.42964
2196.43	0.503919
2196.67	0.507354
2196.91	-0.418669
2197.15	2.37689
2197.39	-2.26793
2197.63	2.39175
2197.86	0.534632
2198.1	2.40122
2198.34	1.47201
2198.58	3.32713
2198.82	0.514111
2199.06	-1.37885
2199.3	-0.475135
2199.54	-0.469057
2199.78	1.41497
2200.01	0.497968
2200.25	4.21146
2200.49	0.486325
2200.73	0.494413
2200.97	2.41887
2201.21	-1.33674
2201.45	1.45709
2201.69	2.39199
2201.92	0.514252
2202.16	1.42889
2202.4	-1.37785
2202.64	1.40156
2202.88	1.3972
2203.12	3.25516
2203.36	3.25797
2203.59	0.467896
2203.83	-2.32919
2204.07	-1.40029
2204.31	1.38982
2204.55	-1.39854
2204.79	1.39359
2205.03	0.465435
2205.27	1.39811
2205.5	-1.39224
2205.74	1.40195
2205.98	6.05874
2206.22	1.40351
2206.46	0.471935
2206.7	0.470707
2206.93	-0.462474
2207.17	3.26191
2207.41	2.33158
2207.65	1.40127
2207.89	-0.460731
2208.13	1.40426
2208.37	-0.458475
2208.6	-0.457174
2208.84	-0.455148
2209.08	3.27755
2209.32	-0.451884
2209.56	-0.451753
2209.8	0.478807
2210.03	1.40868
2210.27	-1.3921
2210.51	3.26704
2210.75	-1.39937
2210.99	2.32959
2211.23	0.466919
2211.47	0.472324
2211.7	0.478022
2211.94	1.41217
2212.18	-0.454379
2212.42	2.34634
2212.66	-2.32196
2212.89	3.27932
2213.13	1.41111
2213.37	-0.457421
2213.61	1.40847
2213.85	2.34035
2214.09	2.33866
2214.32	-0.463031
2214.56	2.33744
2214.8	-1.39719
2215.04	-1.39807
2215.28	2.33546
2215.51	2.33538
2215.75	-0.465027
2215.99	1.40417
2216.23	1.40645
2216.47	2.34323
2216.71	3.27903
2216.94	0.477093
2217.18	0.478128
2217.42	0.477127
2217.66	0.475668
2217.9	0.474422
2218.13	-2.33117
2218.37	0.467751
2218.61	0.46266
2218.85	1.39217
2219.08	2.32186
2219.32	1.38541
2219.56	2.31775
2219.8	0.451401
2220.04	0.453222
2220.27	-0.478626
2220.51	-2.34446
2220.75	0.460892
2220.99	2.33423
2221.23	3.27428
2221.46	0.474297
2221.7	0.478048
2221.94	0.481363
2222.18	0.484594
2222.42	1.42429
2222.65	1.42894
2222.89	1.43265
2223.13	-1.37393
2223.37	3.31333
2223.6	0.505135
2223.84	1.4456
2224.08	1.44888
2224.32	0.513981
2224.55	1.45356
2224.79	1.45466
2225.03	0.516439
2225.27	2.3905
2225.5	2.38908
2225.74	1.4502
2225.98	0.511713
2226.22	-1.36414
2226.46	-1.36421
2226.69	0.513414
2226.93	0.517763
2227.17	2.39813
2227.41	0.524975
2227.64	2.40521
2227.88	0.531757
2228.12	-2.28121
2228.36	0.53949
2228.59	1.48307
2228.83	-1.3319
2229.07	1.49047
2229.31	1.49418
2229.54	1.49793
2229.78	1.50149
2230.02	0.564665
2230.26	3.39002
2230.49	1.51227
2230.73	0.574938
2230.97	3.40125
2231.21	-2.2438
2231.44	0.579742
2231.68	1.52005
2231.92	0.57741
2232.16	-1.30682
2232.39	2.45095
2232.63	-0.37434
2232.87	-0.37361
2233.11	-0.372348
2233.34	3.39098
2233.58	0.571188
2233.82	1.51311
2234.05	0.574125
2234.29	0.578642
2234.53	1.52398
2234.77	0.589983
2235	-0.34417
2235.24	0.604836
2235.48	1.55281
2235.72	1.55832
2235.95	0.621538
2236.19	1.57177
2236.43	1.57421
2236.66	2.5171
2236.9	0.629059
2237.14	-1.2604
2237.37	-0.320361
2237.61	0.621487
2237.85	-0.314038
2238.09	-2.19334
2238.32	0.639133
2238.56	0.641363
2238.8	3.47476
2239.04	2.53353
2239.27	1.59252
2239.51	-1.23603
2239.75	-0.288911
2239.98	3.48909
2240.22	-0.286509
2240.46	3.48853
2240.69	2.54313
2240.93	-1.2318
2241.17	-0.287164
2241.4	-0.285268
2241.64	1.60624
2241.88	-2.16377
2242.11	0.676858
2242.35	-0.26033
2242.59	-0.254981
2242.83	-0.250316
2243.06	3.53671
2243.3	-0.240554
2243.54	-0.236193
2243.77	1.6591
2244.01	-0.228876
2244.25	-1.17104
2244.48	1.6715
2244.72	-0.218816
2244.96	1.67574
2245.19	4.51594
2245.43	-0.215264
2245.67	-3.0533
2245.91	-0.213328
2246.14	0.73394
2246.38	0.735196
2246.61	0.73992
2246.85	-0.202374
2247.09	-1.14694
2247.32	1.69242
2247.56	-0.201241
2247.8	-0.202378
2248.03	0.74181
2248.27	1.68647
2248.51	-0.20482
2248.74	0.741893
2248.98	2.63566
2249.22	-0.196791
2249.45	-0.192062
2249.69	-0.18658
2249.93	-1.12553
2250.16	1.72493
2250.4	2.68144
2250.64	-1.10026
2250.87	-0.146612
2251.11	0.806664
2251.35	2.70842
2251.58	-0.130922
2251.82	0.820208
2252.06	-2.02309
2252.29	-1.07174
2252.53	-1.06898
2252.77	-2.96221
2253	-0.114194
2253.24	-1.0573
2253.48	0.845476
2253.71	0.851203
2253.95	0.856703
2254.18	-1.98494
2254.42	-0.0813198
2254.66	-0.0759649
2254.89	0.878273
2255.13	0.882192
2255.37	-1.96305
2255.6	-3.85862
2255.84	-1.00501
2256.08	-1.94983
2256.31	-1.9447
2256.55	0.910419
2256.78	0.914935
2257.02	1.87046
2257.26	0.925029
2257.49	0.929889
2257.73	-1.91743
2257.96	-0.010334
2258.2	-0.00205326
2258.44	0.956048
2258.67	0.960307
2258.91	-2.84135
2259.15	0.0179043
2259.38	-0.928987
2259.62	0.0283604
2259.85	0.0351791
2260.09	-0.910069
2260.33	0.0499458
2260.56	2.91684
2260.8	1.97382
2261.03	1.98448
2261.27	-2.77471
2261.51	-1.81226
2261.74	1.05914
2261.98	-0.842587
2262.21	-1.79074
2262.45	0.125897
2262.69	1.08552
2262.92	-0.82045
2263.16	0.137478
2263.39	-1.77203
2263.63	3.00247
2263.87	1.09272
2264.1	1.09298
2264.34	0.140001
2264.57	-2.72047
2264.81	0.143232
2265.05	2.05121
2265.28	-0.808336
2265.52	1.10183
2265.75	-0.80056
2265.99	-2.70161
2266.22	0.166895
2266.46	1.12952
2266.7	1.13855
2266.93	-1.71616
2267.17	-1.70702
2267.4	2.12324
2267.64	-1.69111
2267.87	0.226355
2268.11	0.234299
2268.35	0.241632
2268.58	-0.708007
2268.82	0.254918
2269.05	1.21909
2269.29	0.268789
2269.53	-1.63958
2269.76	-1.63433
2270	-1.62891
2270.23	1.2471
2270.47	0.295848
2270.7	-0.655522
2270.94	-0.649926
2271.18	0.312696
2271.41	-0.638902
2271.65	1.28113
2271.88	-2.54206
2272.12	1.29307
2272.35	0.341545
2272.59	0.347594
2272.82	-0.605441
2273.06	-1.55587
2273.3	-1.54746
2273.53	0.377151
2273.77	0.385815
2274	0.394125
2274.24	-0.55587
2274.47	2.33128
2274.71	-0.535057
2274.94	-1.48372
2275.18	1.40822
2275.41	0.455737
2275.65	-1.45866
2275.88	0.467742
2276.12	-0.48792
2276.36	-1.4439
2276.59	-1.44093
2276.83	-0.482125
2277.06	0.478419
2277.3	1.43883
2277.53	2.39939
2277.77	-0.475132
2278	-1.43052
2278.24	-0.467714
2278.47	1.453
2278.71	0.498487
2278.94	1.46443
2279.18	-2.36312
2279.41	0.520658
2279.65	1.48853
2279.89	-0.420176
2280.12	-1.37042
2280.36	-1.36061
2280.59	0.570837
2280.83	-2.2975
2281.06	-0.364171
2281.3	1.57162
2281.53	1.58215
2281.77	2.55191
2282	0.637889
2282.24	0.6475
2282.47	-0.307589
2282.71	-1.26348
2282.94	-2.2226
2283.18	1.62573
2283.41	0.669426
2283.65	-3.17083
2283.88	-1.23868
2284.12	-4.11349
2284.35	1.67442
2284.59	2.6463
2284.82	3.61758
2285.06	-0.224625
2285.29	0.743962
2285.53	-0.215425
2285.76	0.751704
2286	-0.207758
2286.23	1.7193
2286.47	1.71928
2286.7	-2.12793
2286.94	-0.203935
2287.17	0.761754
2287.41	-1.15613
2287.64	0.773047
2287.88	-1.14286
2288.11	-0.172817
2288.35	-2.08591
2288.58	-0.150736
2288.82	1.78392
2289.05	0.830945
2289.28	-1.08506
2289.52	0.850041
2289.75	0.860478
2289.99	0.870706
2290.22	2.80723
2290.46	0.889346
2290.69	0.897845
2290.93	1.86939
2291.16	0.911077
2291.4	-2.93874
2291.63	-1.00679
2291.87	-0.0393505
2292.1	-2.92438
2292.34	-0.0299311
2292.57	-0.0252447
2292.81	-3.87184
2293.04	5.76092
2293.28	-0.0120029
2293.51	-0.011301
2293.74	-0.00527763
2293.98	0.002882
2294.21	0.0119562
2294.45	0.0217628
2294.68	0.032115
2294.92	-0.919664
2295.15	-2.83448
2295.39	-0.897699
2295.62	-2.81598
2295.86	1.04901
2296.09	-1.83225
2296.32	0.106386
2296.56	-2.77748
2296.79	3.98342
2297.03	-0.832944
2297.26	0.13891
2297.5	-1.78363
2297.73	-2.73973
2297.97	4.02405
2298.2	-0.791607
2298.43	1.14752
2298.67	2.12108
2298.9	1.1634
2299.14	1.17012
2299.37	0.210773
2299.61	0.216959
2299.84	3.11998
2300.07	0.23147
2300.31	-0.727201
2300.54	0.244887
2300.78	-1.6777
2301.01	-0.703948
2301.25	0.271117
2301.48	3.17741
2301.71	1.25547
2301.95	-0.666472
2302.18	0.309491
2302.42	-0.647528
2302.65	-1.60559
2302.89	-2.56343
2303.12	0.344559
2303.35	1.32029
2303.59	-0.604735
2303.82	3.2692
2304.05	2.30977
2304.29	-1.54956
2304.52	1.35602
2304.76	-1.53766
2304.99	2.33381
2305.23	0.407255
2305.46	1.37946
2305.69	-1.51153
2305.93	1.39494
2306.16	0.438437
2306.4	-0.518096
2306.63	1.4263
2306.86	-0.495239
2307.1	4.35157
2307.33	-0.476055
2307.57	-1.43567
2307.8	1.4735
2308.03	1.4792
2308.27	-0.451283
2308.5	-0.451935
2308.74	-0.453722
2308.97	-1.41691
2309.2	-0.44757
2309.44	-1.40745
2309.67	-0.437408
2309.91	1.49792
2310.14	1.50505
2310.37	-3.31072
2310.61	1.52654
2310.84	-0.391229
2311.07	-0.379718
2311.31	-0.368215
2311.54	1.57659
2311.78	1.58996
2312.01	-0.331846
2312.24	0.645355
2312.48	0.648643
2312.71	2.58609
2312.94	-1.27719
2313.18	-0.306961
2313.41	0.658565
2313.65	0.661499
2313.88	1.63218
2314.11	-1.25767
2314.35	-0.284145
2314.58	1.65523
2314.81	0.700766
2315.05	-0.255493
2315.28	-0.253142
2315.51	0.717303
2315.75	-2.17416
2315.98	-0.238232
2316.22	3.62739
2316.45	-0.228518
2316.68	0.741975
2316.92	2.67775
2317.15	1.71994
2317.38	0.762451
2317.62	1.73429
2317.85	2.70789
2318.08	1.75221
2318.32	3.69259
2318.55	1.77178
2318.78	3.71375
2319.02	2.75971
2319.25	1.80554
2319.48	2.78322
2319.72	2.79177
2319.95	0.864404
2320.19	3.7721
2320.42	-2.02073
2320.65	1.85425
2320.89	1.86207
2321.12	3.80323
2321.35	1.87514
2321.58	1.88101
2321.82	1.88367
2322.05	-0.0475349
2322.28	5.75019
2322.52	5.75204
2322.75	2.85769
2322.98	2.86077
2323.22	2.86367
2323.45	5.76149
2323.68	7.69319
2323.92	10.5886
2324.15	8.6607
2324.38	9.62602
2324.62	12.5209
2324.85	7.7031
2325.08	9.63437
2325.32	12.5332
2325.55	17.3588
2325.78	15.438
2326.02	24.1113
2326.25	23.1464
2326.48	37.5912
2326.71	43.3714
2326.95	62.6375
2327.18	84.8088
2327.41	131.041
2327.65	179.192
2327.88	220.591
2328.11	201.329
2328.35	162.827
2328.58	106.029
2328.81	73.3
2329.05	42.491
2329.28	31.8836
2329.51	20.3219
2329.75	17.4331
2329.98	14.5454
2330.21	8.77008
2330.44	10.6977
2330.68	5.88728
2330.91	1.0781
2331.14	4.93038
2331.38	4.93215
2331.61	3.00824
2331.84	4.9341
2332.07	2.05185
2332.31	-0.828975
2332.54	1.09818
2332.77	0.141729
2333	1.10897
2333.24	1.11298
2333.47	3.03903
2333.7	1.11924
2333.94	2.0844
2334.17	0.165092
2334.4	3.05284
2334.63	1.13348
2334.87	-0.786363
2335.1	3.06172
2335.33	0.181268
2335.56	-0.776746
2335.8	0.187807
2336.03	3.07563
2336.26	0.196079
2336.5	1.16083
2336.73	1.16386
2336.96	2.1272
2337.19	0.206621
2337.43	0.207537
2337.66	3.09037
2337.89	3.08975
2338.12	1.16772
2338.36	-0.753887
2338.59	-0.755945
2338.82	2.12088
2339.05	-1.71551
2339.29	1.16188
2339.52	0.203449
2339.75	0.204411
2339.98	2.12325
2340.22	2.12532
2340.45	0.210565
2340.68	1.17066
2340.91	1.17217
2341.15	0.215874
2341.38	0.218771
2341.61	-0.737542
2341.84	0.222472
2342.08	1.18181
2342.31	0.223322
2342.54	5.01414
2342.77	0.220243
2343.01	0.21898
2343.24	0.217547
2343.47	0.21767
2343.7	1.17551
2343.93	5.00594
2344.17	2.13267
2344.4	-2.6549
2344.63	0.217679
2344.86	0.218522
2345.1	1.17731
2345.33	3.09466
2345.56	-0.734517
2345.79	1.18089
2346.03	0.221871
2346.26	1.17686
2346.49	-0.743835
2346.72	1.1635
2346.95	-0.756735
2347.19	0.1905
2347.42	0.179616
2347.65	2.0678
2347.88	1.08154
2348.12	1.10502
2348.35	2.11178
2348.58	2.12636
2348.81	0.180894
2349.04	-0.790242
2349.28	0.164011
2349.51	0.16401
2349.74	0.153481
2349.97	-0.814378
2350.2	0.126783
2350.44	0.128418
2350.67	2.98261
2350.9	0.119549
2351.13	1.06968
2351.36	1.06635
2351.6	2.01998
2351.83	0.114841
2352.06	1.06413
2352.29	1.05992
2352.52	0.102429
2352.76	2.00285
2352.99	-0.860298
2353.22	-0.866435
2353.45	1.02957
2353.68	1.96996
2353.92	1.00851
2354.15	-0.90102
2354.38	-0.907825
2354.61	-0.914618
2354.84	1.93045
2355.07	3.82418
2355.31	-4.73627
2355.54	0.00920296
2355.77	0.950942
2356	-2.85627
2356.23	0.93699
2356.46	-1.9195
2356.7	1.87209
2356.93	-0.0360937
2357.16	0.90389
2357.39	-1.00449
2357.62	0.883715
2357.86	-1.02416
2358.09	-0.0857067
2358.32	2.7486
2358.55	0.840913
2358.78	-0.118254
2359.01	0.81801
2359.25	1.75324
2359.48	1.74094
2359.71	-3.00519
2359.94	0.770834
2360.17	1.70611
2360.4	-0.197878
2360.63	-0.20848
2360.87	0.726941
2361.1	-0.230186
2361.33	-2.13358
2361.56	3.52954
2361.79	-2.1568
2362.02	-0.27705
2362.26	-0.289987
2362.49	0.641881
2362.72	3.45839
2362.95	-1.28388
2363.18	-2.24475
2363.41	1.51683
2363.64	0.561042
2363.88	1.4941
2364.11	-2.28709
2364.34	0.541848
2364.57	-2.29901
2364.8	0.522299
