#Acq. time (s)=	30
#Accumulations=	2
#Range (cm-¹)=	1200...2400
#Windows=	4
#Auto scanning=	Off
#Autofocus=	Off
#Macrospot=	Off
#AutoExposure=	Off
#Spike filter=	Multiple accum.
#Delay time (s)=	2
#Binning=	1
#Readout mode=	Signal
#DeNoise=	Off
#ICS correction=	On
#Dark correction=	Off
#Inst. Process=	Off
#Detector Gain=	Best Dynamic
#Detector ADC=	50 kHz HS
#Detector temperature (°C)=	-60.09
#Instrument=	LabRAM HR Evol
#Detector=	SIN-EM FIVIS
#Objective=	x100_VIS
#Grating=	1800 (450-850nm)
#ND Filter=	100%
#Laser=	532nm_Edge
#Hole=	49.98
#Temperature=	0
#Range=	Visible
#StageXY=	75x50mm Scan+
#StageZ=	Z motor
#X (µm)=	0
#Y (µm)=	0
#Z (µm)=	-245.5
#Full time(mm:ss)=	4:27
#Project=	21_11_04
#Sample=	BU19w
#Site=	
#Title=	BU19w-E-FF11b-FI06-V_1800 (450-850nm)_532nm_Edge_100%_x100_VIS_H50um_30sX2
#Remark=	
#Date=	04.11.2021 18:08
#Acquired=	04.11.2021 18:08:13
#Base:Fit=	16.12.2021 17:39:50
#Base:Fit=	16.12.2021 17:47:31
#Base:Sub=	16.12.2021 17:47:32
1200.19	3.2349
1200.46	1.0437
1200.74	0.997728
1201.02	3.0968
1201.3	-1.25542
1201.57	0.851065
1201.85	-4.55389
1202.13	2.96605
1202.41	-1.31966
1202.69	-0.294556
1202.96	1.81754
1203.24	-3.62054
1203.52	3.87361
1203.8	-0.473093
1204.08	2.73429
1204.35	3.77695
1204.63	0.514574
1204.91	-0.60169
1205.19	-0.642216
1205.47	1.46178
1205.74	1.41903
1206.02	-0.768171
1206.3	2.40588
1206.58	-1.92174
1206.85	4.46707
1207.13	0.14847
1207.41	1.18462
1207.69	0.082058
1207.97	-2.09253
1208.24	-1.05824
1208.52	2.11584
1208.8	1.01289
1209.08	2.05288
1209.36	-0.113697
1209.63	0.924944
1209.91	5.16487
1210.19	-1.28497
1210.46	-1.32106
1210.74	1.84626
1211.02	0.742773
1211.3	2.84097
1211.57	-1.46212
1211.85	-0.430656
1212.13	3.79882
1212.41	1.63376
1212.69	-2.65898
1212.96	0.506691
1213.24	3.67159
1213.52	-2.74341
1213.79	-0.637064
1214.07	-0.660122
1214.35	-3.87763
1214.63	-2.83702
1214.9	1.3969
1215.18	-2.88606
1215.46	0.279797
1215.74	-0.815754
1216.01	-0.849476
1216.29	-0.883875
1216.57	-0.916201
1216.85	0.11586
1217.12	-2.03904
1217.4	-3.12983
1217.68	-1.03401
1217.95	-2.12329
1218.23	3.15699
1218.51	-2.17267
1218.79	3.10939
1219.06	0.963793
1219.34	-3.30534
1219.62	-3.32865
1219.89	3.01517
1220.17	4.05465
1220.45	2.97242
1220.73	0.826681
1221	-0.257982
1221.28	0.776123
1221.56	-1.37256
1221.84	2.83337
1222.11	0.681597
1222.39	3.82191
1222.67	3.78882
1222.94	1.63987
1223.22	3.72472
1223.5	1.58103
1223.77	0.497311
1224.05	1.52956
1224.33	1.50583
1224.61	-0.625273
1224.88	-1.69795
1225.16	-2.76593
1225.44	-1.72422
1225.71	5.65273
1225.99	2.46584
1226.27	4.55736
1226.54	1.36799
1226.82	1.34288
1227.1	3.41439
1227.37	2.31701
1227.65	3.3358
1227.93	7.50553
1228.21	1.14944
1228.48	3.22091
1228.76	0.0818729
1229.03	1.19244
1229.31	3.31528
1229.59	9.59433
1229.86	4.28492
1230.14	3.21267
1230.42	-1.01826
1230.69	3.1385
1230.97	0.989792
1231.25	3.08096
1231.52	2.01624
1231.8	3.05135
1232.08	4.08665
1232.35	0.920862
1232.63	6.15843
1232.91	1.94164
1233.18	5.08108
1233.46	0.86936
1233.74	-2.29166
1234.01	-0.198647
1234.29	0.845779
1234.57	2.94024
1234.84	2.93164
1235.12	7.12927
1235.4	1.86559
1235.67	2.90775
1235.95	1.84342
1236.23	-3.42764
1236.5	3.9149
1236.78	2.84437
1237.06	4.92354
1237.33	2.80107
1237.61	1.73015
1237.88	0.659519
1238.16	-2.50711
1238.44	-0.425217
1238.71	0.609489
1238.99	0.596701
1239.27	1.63344
1239.54	-3.61782
1239.82	5.80675
1240.1	-1.53857
1240.37	2.64738
1240.65	-4.6967
1240.92	0.537392
1241.2	1.57252
1241.48	2.60755
1241.75	1.54987
1242.03	0.497276
1242.3	1.53928
1242.58	-4.74987
1242.86	-0.562029
1243.13	0.477942
1243.41	0.473204
1243.68	1.51741
1243.96	-3.73247
1244.24	6.74219
1244.51	-2.70121
1244.79	0.428925
1245.06	1.46334
1245.34	1.44492
1245.62	6.66507
1245.89	-2.76358
1246.17	0.36945
1246.44	-4.86789
1246.72	-3.82734
1247	-2.78762
1247.27	0.347422
1247.55	-2.80199
1247.82	4.50463
1248.1	0.313801
1248.38	-3.8738
1248.65	2.40041
1248.93	-2.83182
1249.2	-0.745855
1249.48	-2.84115
1249.75	-0.753796
1250.03	2.37217
1250.31	-0.774855
1250.58	3.39649
1250.86	6.52223
1251.13	-1.8443
1251.41	2.32644
1251.69	0.229525
1251.96	0.221756
1252.24	3.3457
1252.51	1.2495
1252.79	1.24289
1253.06	-2.93445
1253.34	1.24027
1253.61	-1.88667
1253.89	-0.838076
1254.17	4.38654
1254.44	1.25492
1254.72	4.38791
1254.99	-2.92088
1255.27	1.25504
1255.54	2.29863
1255.82	5.43324
1256.09	1.25953
1256.37	2.30758
1256.65	-0.825512
1256.92	0.216408
1257.2	0.213215
1257.47	5.43237
1257.75	2.29781
1258.02	3.33994
1258.3	8.55388
1258.57	6.46162
1258.85	0.20225
1259.13	4.38131
1259.4	3.35139
1259.67	3.35532
1259.95	1.26123
1260.23	3.34033
1260.5	7.5054
1260.78	1.2404
1261.05	9.58269
1261.33	8.56143
1261.6	7.55889
1261.88	6.57488
1262.15	10.7294
1262.43	5.45589
1262.7	10.6281
1262.98	11.6932
1263.25	7.55655
1263.53	11.7672
1263.8	16.0049
1264.08	15.9929
1264.35	7.61292
1264.63	3.43179
1264.9	10.7532
1265.18	6.56816
1265.45	8.65878
1265.73	2.39479
1266	1.35728
1266.28	5.54731
1266.55	6.60457
1266.83	4.52713
1267.1	6.63354
1267.38	5.60321
1267.66	4.57425
1267.93	7.7386
1268.2	8.80054
1268.48	13.003
1268.75	10.9197
1269.03	6.73814
1269.31	6.73707
1269.58	10.923
1269.85	7.7753
1270.13	4.63302
1270.4	10.9106
1270.68	6.72538
1270.95	9.86819
1271.23	4.63934
1271.5	7.79058
1271.78	11.994
1272.05	3.63741
1272.33	6.79861
1272.6	8.91002
1272.88	12.0715
1273.15	6.84844
1273.43	2.67105
1273.7	7.92995
1273.98	10.0397
1274.25	3.75387
1274.53	6.90721
1274.8	12.1612
1275.07	7.97825
1275.35	9.04183
1275.62	4.85964
1275.9	8.02448
1276.17	8.03966
1276.45	11.2047
1276.72	10.1703
1277	1.78419
1277.27	7.05446
1277.54	8.12228
1277.82	10.2407
1278.1	11.3105
1278.37	6.0702
1278.64	6.08548
1278.92	8.20089
1279.19	7.15564
1279.47	13.4719
1279.74	10.322
1280.02	12.4355
1280.29	10.3443
1280.56	15.6202
1280.84	15.6433
1281.11	24.0847
1281.39	28.3076
1281.66	28.3188
1281.94	43.0757
1282.21	53.6134
1282.49	68.3374
1282.76	92.4644
1283.03	107.103
1283.31	111.301
1283.58	117.586
1283.86	119.967
1284.13	91.6817
1284.41	57.9933
1284.68	37.9623
1284.95	28.4639
1285.23	23.1989
1285.5	13.7416
1285.78	12.7073
1286.05	11.6577
1286.32	6.40132
1286.6	7.46459
1286.87	8.52507
1287.15	4.31945
1287.42	7.4826
1287.69	6.43946
1287.97	3.29455
1288.24	2.25473
1288.52	2.27002
1288.79	6.49806
1289.06	2.30489
1289.34	3.37605
1289.61	6.55532
1289.89	0.251499
1290.16	1.31393
1290.43	3.42978
1290.71	5.54754
1290.98	4.50635
1291.26	1.35872
1291.53	-0.73683
1291.8	0.330551
1292.08	0.345139
1292.35	5.61929
1292.62	2.47156
1292.9	2.48771
1293.17	-1.69934
1293.45	3.59472
1293.72	-1.65061
1293.99	4.68752
1294.27	2.59279
1294.54	2.6026
1294.82	0.517248
1295.09	1.60003
1295.36	-3.64769
1295.64	-2.55905
1295.91	1.68894
1296.18	2.76054
1296.46	0.660166
1296.73	1.72582
1297.01	0.67717
1297.28	0.684406
1297.55	3.85958
1297.83	1.75519
1298.1	0.71776
1298.37	3.89486
1298.65	-3.48716
1298.92	1.80171
1299.19	-0.299248
1299.47	0.7724
1299.74	-4.48716
1300.02	-0.247709
1300.29	-0.233484
1300.56	0.835165
1300.84	-2.31812
1301.11	0.866545
1301.38	-1.2259
1301.65	-2.26401
1301.93	-0.135202
1302.2	-0.120184
1302.47	-2.21913
1302.75	0.962021
1303.02	2.02871
1303.29	3.0954
1303.57	3.10993
1303.84	-1.09853
1304.12	4.19609
1304.39	-2.12618
1304.66	-1.05931
1304.94	3.17243
1305.21	-1.04095
1305.48	1.0778
1305.75	0.0312653
1306.03	-5.23138
1306.3	4.27399
1306.57	2.18119
1306.85	1.14388
1307.12	-0.949965
1307.39	-3.04453
1307.67	-1.97356
1307.94	-1.95829
1308.21	-2.99806
1308.49	2.29441
1308.76	1.25953
1309.03	7.61041
1309.31	-2.92208
1309.58	-1.85004
1309.85	-1.83579
1310.13	3.45527
1310.4	-3.91538
1310.67	1.37837
1310.94	-1.77058
1311.22	-0.698067
1311.49	2.48824
1311.76	1.45363
1312.04	-0.638838
1312.31	1.49036
1312.58	-1.66481
1312.85	-0.596373
1313.13	2.58587
1313.4	1.54327
1313.67	0.502323
1313.95	2.63017
1314.22	0.537508
1314.49	-1.55466
1314.76	-0.479284
1315.04	-1.51561
1315.31	2.72874
1315.58	0.634855
1315.86	1.70555
1316.13	2.77623
1316.4	0.679226
1316.67	-0.360954
1316.95	1.76898
1317.22	4.95811
1317.49	-0.304504
1317.77	-0.286491
1318.04	-3.4385
1318.31	0.804167
1318.58	-2.34892
1318.86	0.835941
1319.13	0.851274
1319.4	-4.41409
1319.67	-1.22703
1319.95	0.902014
1320.22	0.91597
1320.49	-0.128691
1320.76	3.04881
1321.04	2.00047
1321.31	-2.21188
1321.58	2.01926
1321.85	-1.13529
1322.13	3.09653
1322.4	0.999762
1322.67	2.06548
1322.94	-4.24537
1323.22	-2.11786
1323.49	1.06314
1323.76	3.18856
1324.03	-2.06702
1324.31	0.058054
1324.58	1.13045
1324.85	0.0909042
1325.12	0.0982494
1325.4	0.101645
1325.67	1.1521
1325.94	0.101458
1326.21	0.111994
1326.48	-0.921616
1326.76	2.26787
1327.03	0.193319
1327.3	3.3805
1327.57	-0.807037
1327.85	2.38362
1328.12	-0.752926
1328.39	-1.78372
1328.66	-1.76931
1328.93	-0.696392
1329.21	1.43132
1329.48	-1.71843
1329.75	1.46056
1330.02	-1.69114
1330.3	0.429623
1330.57	0.43923
1330.84	1.50106
1331.11	0.451921
1331.38	-3.75474
1331.66	2.5714
1331.93	1.52736
1332.2	2.58715
1332.47	-4.76878
1332.74	-3.70822
1333.01	1.55617
1333.29	-1.58746
1333.56	-2.62838
1333.83	0.532265
1334.1	4.7414
1334.37	1.60196
1334.65	-1.53512
1334.92	1.62445
1335.19	2.68507
1335.46	0.599079
1335.73	0.611382
1336.01	-0.424215
1336.28	3.78267
1336.55	0.651367
1336.82	-2.47884
1337.09	-0.367821
1337.37	0.693518
1337.64	-0.346231
1337.91	-2.42892
1338.18	1.7739
1338.45	2.83248
1338.72	0.753248
1339	2.86396
1339.27	1.83552
1339.54	-0.240784
1339.81	3.96495
1340.08	2.93606
1340.35	-1.23587
1340.63	2.96878
1340.9	0.889593
1341.17	-0.143124
1341.44	3.01105
1341.71	-3.25843
1341.98	-0.107672
1342.26	-2.19091
1342.53	-0.0880585
1342.8	2.01784
1343.07	-0.0590649
1343.34	1.0028
1343.61	4.15686
1343.88	-3.14701
1344.16	2.0982
1344.43	-1.02599
1344.7	-2.05979
1344.97	0.0409584
1345.24	4.22882
1345.51	0.0586185
1345.79	2.15302
1346.06	-0.975187
1346.33	5.29459
1346.6	1.12874
1346.87	1.13678
1347.14	-4.06653
1347.41	2.20074
1347.68	3.25616
1347.95	1.18565
1348.23	3.28344
1348.5	3.29473
1348.77	0.180128
1349.04	-0.850264
1349.31	1.24402
1349.58	-0.827053
1349.86	1.26654
1350.13	5.44013
1350.4	0.245813
1350.67	4.4173
1350.94	3.38721
1351.21	4.43761
1351.48	2.3723
1351.75	1.3494
1352.02	2.40964
1352.3	3.47322
1352.57	0.374271
1352.84	1.44253
1353.11	2.52644
1353.38	3.58981
1353.65	1.48874
1353.92	0.427801
1354.19	2.50715
1354.46	3.56557
1354.73	5.65664
1355.01	3.58199
1355.28	10.87
1355.55	4.66874
1355.82	1.56026
1356.09	3.64989
1356.36	5.7401
1356.63	3.67594
1356.9	0.572912
1357.17	5.77626
1357.44	5.78665
1357.71	5.79656
1357.99	5.80629
1358.26	4.77907
1358.53	4.78744
1358.8	6.87215
1359.07	1.69795
1359.34	8.9684
1359.61	3.7891
1359.88	5.86897
1360.15	1.73128
1360.42	5.88642
1360.69	3.8284
1360.96	9.02279
1361.23	1.78544
1361.5	5.94176
1361.78	5.95231
1362.05	3.89359
1362.32	7.01199
1362.59	7.02708
1362.86	7.04534
1363.13	7.06658
1363.4	5.0131
1363.67	10.211
1363.94	7.11602
1364.21	10.2357
1364.48	7.13895
1364.75	8.18259
1365.02	8.18958
1365.29	7.16137
1365.56	10.273
1365.83	7.17606
1366.11	7.18254
1366.38	8.22093
1366.65	7.19154
1366.92	8.23605
1367.19	9.28253
1367.46	11.3695
1367.73	13.4534
1368	10.3689
1368.27	10.3854
1368.54	13.5037
1368.81	15.5891
1369.08	16.6377
1369.35	10.4433
1369.62	13.5546
1369.89	11.4956
1370.16	11.5012
1370.43	10.4771
1370.7	8.41751
1370.97	9.45409
1371.24	18.7463
1371.51	16.6793
1371.78	15.6463
1372.05	15.6473
1372.32	16.6828
1372.59	15.6594
1372.86	9.48392
1373.13	18.7684
1373.4	17.7475
1373.67	19.8184
1373.94	17.7684
1374.21	18.8092
1374.48	16.7582
1374.75	22.9494
1375.02	23.9967
1375.29	21.9528
1375.56	32.2692
1375.83	28.1581
1376.1	31.248
1376.37	32.2755
1376.64	38.4421
1376.91	24.0365
1377.18	31.2625
1377.45	42.6176
1377.72	36.4799
1377.99	38.5872
1378.26	40.6871
1378.53	45.8609
1378.8	37.6209
1379.07	45.8721
1379.34	46.9043
1379.61	59.2628
1379.88	53.0443
1380.15	58.1528
1380.42	54.0107
1380.69	54.0171
1380.96	57.1145
1381.23	66.3518
1381.5	62.2098
1381.77	61.1545
1382.04	66.2681
1382.31	54.9552
1382.58	56.9941
1382.85	50.8272
1383.12	59.0261
1383.39	50.8202
1383.66	50.8283
1383.93	58.0206
1384.2	50.8659
1384.47	57.0459
1384.74	49.9063
1385.01	60.2049
1385.28	63.3203
1385.55	65.3979
1385.82	91.1011
1386.09	108.592
1386.36	150.727
1386.62	201.054
1386.89	286.88
1387.16	293.477
1387.43	247.001
1387.7	161.207
1387.97	96.9947
1388.24	63.3377
1388.51	49.0802
1388.78	36.7844
1389.05	33.7295
1389.32	28.6033
1389.59	26.5363
1389.86	25.4738
1390.13	20.3667
1390.4	22.409
1390.67	23.4338
1390.94	13.1952
1391.21	15.2495
1391.47	16.2751
1391.74	13.2032
1392.01	13.2068
1392.28	14.2358
1392.55	12.1943
1392.82	13.2249
1393.09	13.232
1393.36	13.2395
1393.63	17.3406
1393.9	13.2556
1394.17	8.14787
1394.44	5.08809
1394.71	11.2445
1394.97	12.2835
1395.24	13.3215
1395.51	12.3087
1395.78	11.2934
1396.05	9.25326
1396.32	11.306
1396.59	7.21878
1396.86	8.24543
1397.13	11.3192
1397.4	12.3499
1397.66	8.26937
1397.93	6.23631
1398.2	13.4108
1398.47	7.28445
1398.74	7.29702
1399.01	6.28843
1399.28	8.34826
1399.55	7.33639
1399.82	8.37084
1400.09	7.36269
1400.35	9.4267
1400.62	3.29415
1400.89	7.40026
1401.16	7.41224
1401.43	6.40107
1401.7	4.37373
1401.97	2.34896
1402.24	8.52781
1402.5	10.6023
1402.77	3.43476
1403.04	9.60653
1403.31	7.5604
1403.58	4.47987
1403.85	8.58461
1404.12	9.62154
1404.39	6.54959
1404.65	7.58009
1404.92	10.6601
1405.19	5.53582
1405.46	2.46402
1405.73	9.64469
1406	7.60019
1406.27	4.53308
1406.54	7.61836
1406.8	6.60437
1407.07	11.741
1407.34	14.8275
1407.61	10.737
1407.88	14.8489
1408.15	11.7834
1408.42	16.9223
1408.68	18.9855
1408.95	15.9201
1409.22	9.77653
1409.49	9.78635
1409.76	10.8177
1410.03	10.818
1410.29	5.68984
1410.56	9.78949
1410.83	3.64217
1411.1	6.71952
1411.37	3.65078
1411.64	6.7331
1411.9	2.64771
1412.17	4.7149
1412.44	2.69663
1412.71	0.678173
1412.98	3.77032
1413.25	2.71732
1413.51	2.70837
1413.78	5.80459
1414.05	2.7524
1414.32	3.79108
1414.59	-1.33496
1414.86	1.75281
1415.12	3.8136
1415.39	1.76892
1415.66	1.77825
1415.93	3.8417
1416.2	4.8785
1416.47	0.780163
1416.73	1.8173
1417	4.90963
1417.27	5.94662
1417.54	2.87202
1417.81	2.87933
1418.07	1.86034
1418.34	-1.21572
1418.61	2.90302
1418.88	-0.1742
1419.15	3.93941
1419.41	-2.22357
1419.68	7.02357
1419.95	0.862558
1420.22	1.89067
1420.49	2.91843
1420.75	-1.18503
1421.02	1.89963
1421.29	4.9882
1421.56	0.897478
1421.83	3.99132
1422.09	2.9817
1422.36	1.97475
1422.63	0.978214
1422.9	4.09032
1423.17	-1.15409
1423.43	0.912971
1423.7	6.03068
1423.97	2.93564
1424.24	2.95997
1424.5	5.0102
1424.77	6.08199
1425.04	5.03566
1425.31	0.955399
1425.58	4.03909
1425.84	0.96546
1426.11	1.99065
1426.38	-0.0607052
1426.65	4.03824
1426.91	0.961668
1427.18	1.97991
1427.45	3.0036
1427.72	-2.11379
1427.98	3.01021
1428.25	-0.0552273
1428.52	3.02353
1428.79	4.05519
1429.06	2.0154
1429.32	5.09797
1429.59	3.06052
1429.86	4.09776
1430.12	4.10752
1430.39	0.0205784
1430.66	2.0883
1430.93	3.12632
1431.2	1.08127
1431.46	4.1637
1431.73	0.0574799
1432	2.10876
1432.26	5.18747
1432.53	-0.970837
1432.8	1.07551
1433.07	3.11865
1433.33	1.06549
1433.6	3.11359
1433.87	4.14217
1434.14	1.08866
1434.4	4.16843
1434.67	2.12419
1434.94	1.1036
1435.21	0.0823879
1435.47	2.1347
1435.74	-0.936552
1436.01	2.13953
1436.28	-0.932093
1436.54	2.14291
1436.81	2.14513
1437.08	2.14829
1437.34	1.12523
1437.61	1.1288
1437.88	3.18346
1438.15	1.14211
1438.41	1.14758
1438.68	3.20124
1438.95	3.20727
1439.21	2.19092
1439.48	1.17567
1439.75	-4.96686
1440.01	0.165409
1440.28	-0.855465
1440.55	0.174194
1440.82	0.177874
1441.08	-5.97349
1441.35	0.179016
1441.62	0.182867
1441.88	2.24018
1442.15	1.22028
1442.42	2.2511
1442.69	3.27622
1442.95	5.32587
1443.22	0.199518
1443.49	-4.92474
1443.75	-0.821337
1444.02	3.28601
1444.29	3.29604
1444.55	1.25476
1444.82	0.235601
1445.09	1.26243
1445.35	2.28898
1445.62	1.26394
1445.89	2.2905
1446.15	3.31698
1446.42	2.29218
1446.69	0.241808
1446.95	3.31798
1447.22	3.3175
1447.49	-6.93351
1447.76	1.27192
1448.02	3.33026
1448.29	-1.79116
1448.56	2.3147
1448.82	1.29049
1449.09	-2.81168
1449.35	3.3402
1449.62	0.262434
1449.89	4.36211
1450.15	-0.762941
1450.42	3.33734
1450.69	2.31258
1450.96	1.28767
1451.22	3.33676
1451.49	-0.761885
1451.75	3.33683
1452.02	-1.78424
1452.29	1.29185
1452.55	-0.753588
1452.82	4.37459
1453.09	1.30382
1453.35	3.35464
1453.62	0.280451
1453.89	-0.743156
1454.15	2.33283
1454.42	1.30974
1454.68	3.35957
1454.95	1.31061
1455.22	0.290018
1455.48	3.36971
1455.75	0.297937
1456.02	2.34874
1456.28	1.32243
1456.55	1.31959
1456.82	2.34271
1457.08	3.36684
1457.35	-2.77971
1457.61	0.294422
1457.88	0.295938
1458.15	2.34706
1458.41	2.34979
1458.68	2.35198
1458.95	2.35423
1459.21	0.306177
1459.48	1.33072
1459.74	4.4037
1460.01	4.40282
1460.28	2.35287
1460.54	0.302515
1460.81	1.32468
1461.08	1.32256
1461.34	-1.75156
1461.61	0.293055
1461.87	-0.733831
1462.14	0.285782
1462.41	-0.741461
1462.67	-0.745741
1462.94	1.29486
1463.2	0.268883
1463.47	-2.79596
1463.74	1.30518
1464	0.292162
1464.27	0.300835
1464.53	1.33847
1464.8	1.29509
1465.07	2.28534
1465.33	0.229198
1465.6	4.3178
1465.86	-2.82179
1466.13	-0.786093
1466.39	2.26453
1466.66	-1.81303
1466.93	3.28839
1467.19	-1.81387
1467.46	1.24532
1467.72	-0.795153
1467.99	1.24491
1468.26	3.28456
1468.52	-0.796959
1468.79	3.28024
1469.05	-2.84115
1469.32	-0.806601
1469.58	0.207834
1469.85	1.22329
1470.12	0.201483
1470.38	2.23666
1470.65	3.25436
1470.91	1.21206
1471.18	1.2077
1471.44	1.20505
1471.71	-3.8876
1471.97	-3.88828
1472.24	-0.834194
1472.51	2.21957
1472.77	2.21697
1473.04	1.19469
1473.3	4.2447
1473.57	-2.88231
1473.83	-2.8835
1474.1	0.169645
1474.36	-1.86333
1474.63	0.172686
1474.9	-2.88102
1475.16	0.170994
1475.43	-0.849575
1475.69	0.164423
1475.96	0.162384
1476.22	-1.87494
1476.49	1.17218
1476.75	3.2023
1477.02	-0.867393
1477.29	-0.868507
1477.55	2.18111
1477.81	-0.873621
1478.08	1.15482
1478.34	0.134413
1478.61	4.19544
1478.88	2.15791
1479.14	-0.895332
1479.41	2.14645
1479.67	-0.906879
1479.94	-2.94514
1480.2	1.10849
1480.47	-1.9401
1480.73	-1.94322
1481	0.0832348
1481.26	0.0851231
1481.53	0.088131
1481.79	-0.923351
1482.06	-0.92009
1482.32	-1.93401
1482.59	4.15782
1482.85	5.17511
1483.12	1.11358
1483.38	3.14337
1483.65	-3.96886
1483.92	4.14046
1484.18	-1.96462
1484.44	3.07484
1484.71	0.0115871
1484.97	2.01897
1485.24	-2.01973
1485.5	1.05134
1485.77	-4.0094
1486.03	0.0399036
1486.3	3.06664
1486.56	-5.03092
1486.83	0.0341644
1487.09	-3.01224
1487.36	1.03405
1487.62	2.04213
1487.89	-3.02604
1488.15	3.04189
1488.42	-4.04939
1488.68	4.04156
1488.95	2.01403
1489.21	2.01077
1489.48	2.00838
1489.74	-3.05136
1490.01	-4.06529
1490.27	-0.0235577
1490.54	0.981802
1490.8	-2.05661
1491.07	-1.04853
1491.33	0.971413
1491.6	4.00356
1491.86	1.98049
1492.12	-2.0659
1492.39	2.98644
1492.65	3.99553
1492.92	-1.06125
1493.18	0.957684
1493.45	0.955734
1493.71	-0.0558567
1493.98	-3.08833
1494.24	0.954929
1494.51	-1.07027
1494.77	2.96653
1495.04	1.94631
1495.3	-3.11374
1495.56	0.919088
1495.83	1.92325
1496.09	-0.10046
1496.36	-0.105236
1496.62	-0.108713
1496.89	-3.13823
1497.15	-1.12197
1497.42	0.893826
1497.68	1.90114
1497.94	0.890612
1498.21	1.89882
1498.47	1.89805
1498.74	-3.14903
1499	-3.14925
1499.27	-0.120636
1499.53	-1.13036
1499.8	0.88756
1500.06	-1.13379
1500.32	-0.126562
1500.59	0.880175
1500.85	2.89321
1501.12	0.869547
1501.38	-1.15159
1501.64	-1.15402
1501.91	-1.15681
1502.17	-1.16169
1502.44	-1.16834
1502.7	-0.164516
1502.97	0.838224
1503.23	-1.18294
1503.5	2.84974
1503.76	-2.19222
1504.02	-3.20179
1504.29	1.83843
1504.55	-0.181805
1504.81	2.83851
1505.08	1.82417
1505.34	3.82843
1505.61	1.80576
1505.87	0.795317
1506.13	-2.2296
1506.4	2.80879
1506.66	-1.22141
1506.93	0.793137
1507.19	1.79969
1507.46	-0.21839
1507.72	-1.22964
1507.98	-1.232
1508.25	-0.225607
1508.51	-3.24974
1508.77	0.779049
1509.04	-0.231031
1509.3	0.775154
1509.57	-0.230473
1509.83	-0.234224
1510.09	-2.25535
1510.36	-0.246895
1510.62	0.752974
1510.89	-1.26983
1511.15	2.74374
1511.41	-1.29527
1511.68	-2.31302
1511.94	3.70354
1512.21	1.68371
1512.47	-2.34121
1512.73	-1.34364
1513	-0.345495
1513.26	3.66751
1513.52	0.663307
1513.79	2.67733
1514.05	0.666138
1514.31	1.66525
1514.58	3.66469
1514.84	-1.36278
1515.1	0.6364
1515.37	0.627296
1515.63	-0.38451
1515.9	5.62724
1516.16	1.61179
1516.42	0.605207
1516.69	-0.400682
1516.95	-0.402889
1517.21	1.60118
1517.48	1.60209
1517.74	-4.41383
1518	-0.402878
1518.27	2.60584
1518.53	0.59938
1518.79	-0.403753
1519.06	6.61874
1519.32	-1.40881
1519.58	-1.41174
1519.85	2.59715
1520.11	-0.414951
1520.37	1.59119
1520.64	-0.415009
1520.9	-0.415319
1521.16	0.586359
1521.43	-2.42693
1521.69	-1.42761
1521.95	-2.43513
1522.22	-0.433327
1522.48	2.57067
1522.75	-0.444695
1523.01	0.548344
1523.27	-1.46586
1523.53	-3.47655
1523.8	-2.48075
1524.06	1.51957
1524.32	1.51606
1524.59	-3.49082
1524.85	-1.4889
1525.11	2.51703
1525.38	0.515738
1525.64	1.52081
1525.9	4.53146
1526.17	-1.48002
1526.43	-2.4833
1526.69	-2.48648
1526.95	0.515944
1527.22	-2.494
1527.48	6.52102
1527.74	0.504557
1528.01	0.50005
1528.27	2.49934
1528.53	-2.51284
1528.8	0.489492
1529.06	-1.51632
1529.32	-1.52031
1529.58	4.48368
1529.85	0.476315
1530.11	-0.523951
1530.37	1.48232
1530.64	0.483217
1530.9	1.48601
1531.16	1.48394
1531.42	-1.52448
1531.69	-0.52508
1531.95	3.47983
1532.21	-1.5279
1532.48	0.481543
1532.74	2.49342
1533	0.492065
1533.27	-3.51923
1533.53	0.49267
1533.79	1.49351
1534.05	0.487228
1534.32	2.48943
1534.58	2.48531
1534.84	1.47797
1535.1	2.47124
1535.37	-0.547487
1535.63	1.44845
1535.89	-1.56429
1536.15	-3.57582
1536.42	1.41949
1536.68	0.411238
1536.94	1.40562
1537.2	0.400646
1537.47	-1.6028
1537.73	0.39002
1537.99	-0.616634
1538.25	-2.61999
1538.52	0.377909
1538.78	-0.61487
1539.04	-3.60396
1539.31	-1.59035
1539.57	0.421642
1539.83	0.430374
1540.09	-0.564882
1540.36	3.45049
1540.62	-0.564915
1540.88	0.43034
1541.14	-1.57893
1541.41	-0.583971
1541.67	1.41262
1541.93	2.40665
1542.19	-0.604868
1542.45	3.39298
1542.72	1.38384
1542.98	0.375345
1543.24	0.365482
1543.5	-2.64029
1543.77	2.35964
1544.03	-0.639519
1544.29	2.36628
1544.55	-1.63153
1544.81	-1.6263
1545.08	-0.619158
1545.34	2.38816
1545.6	2.39046
1545.86	1.38832
1546.13	2.38823
1546.39	-0.616344
1546.65	-1.61692
1546.91	1.3908
1547.17	0.388073
1547.44	6.38718
1547.7	3.37348
1547.96	1.36863
1548.22	2.37598
1548.49	2.37014
1548.75	-0.658367
1549.01	2.32215
1549.27	-0.676092
1549.53	1.33874
1549.79	2.37113
1550.06	1.39953
1550.32	-0.578442
1550.58	4.4458
1550.84	2.42818
1551.1	6.44389
1551.37	5.42888
1551.63	2.41668
1551.89	-0.58403
1552.15	0.423132
1552.41	1.42409
1552.68	6.42819
1552.94	-0.610012
1553.2	4.40233
1553.46	2.39203
1553.72	-3.63156
1553.99	3.37942
1554.25	0.362267
1554.51	4.36281
1554.77	-0.64967
1555.03	-2.65496
1555.3	-0.651888
1555.56	1.35274
1555.82	4.35498
1556.08	3.35024
1556.34	2.34882
1556.6	3.35152
1556.87	0.346777
1557.13	0.345968
1557.39	4.3503
1557.65	4.34238
1557.91	5.33569
1558.17	1.32318
1558.43	2.31516
1558.7	4.30765
1558.96	4.30029
1559.22	4.29422
1559.48	0.290546
1559.74	3.2856
1560	1.28376
1560.26	1.28138
1560.53	5.27713
1560.79	4.27756
1561.05	3.28082
1561.31	1.28647
1561.57	0.29389
1561.83	3.29821
1562.1	-0.702957
1562.36	2.29544
1562.62	3.29445
1562.88	2.29397
1563.14	2.29115
1563.4	-1.70709
1563.66	6.30389
1563.93	6.31238
1564.19	4.31263
1564.45	6.30818
1564.71	3.2808
1564.97	3.22755
1565.23	7.1503
1565.49	6.17816
1565.76	4.27088
1566.02	2.28706
1566.28	5.26872
1566.54	3.26672
1566.8	3.29018
1567.06	1.3023
1567.32	7.29192
1567.58	4.28082
1567.84	3.28458
1568.11	2.28788
1568.37	5.28836
1568.63	3.28323
1568.89	2.27543
1569.15	-1.72509
1569.41	4.27181
1569.67	6.27233
1569.93	2.27548
1570.19	3.27514
1570.45	3.27463
1570.72	1.27465
1570.98	7.26744
1571.24	5.26437
1571.5	3.26343
1571.76	5.25981
1572.02	3.25836
1572.28	2.25547
1572.54	8.24257
1572.8	2.24876
1573.07	3.24309
1573.33	3.24116
1573.59	5.23977
1573.85	5.24586
1574.11	3.25588
1574.37	4.26154
1574.63	9.26382
1574.89	4.2755
1575.15	8.2773
1575.41	6.27911
1575.67	4.27967
1575.94	4.27909
1576.2	7.27191
1576.46	5.26475
1576.72	5.25483
1576.98	5.24541
1577.24	6.23432
1577.5	0.241512
1577.76	5.22172
1578.02	4.22153
1578.28	2.22732
1578.54	3.22479
1578.8	5.21935
1579.06	7.21465
1579.32	2.23318
1579.58	5.22857
1579.85	8.22267
1580.11	0.245909
1580.37	3.23674
1580.63	5.22821
1580.89	6.22202
1581.15	8.21191
1581.41	7.20969
1581.67	5.21319
1581.93	3.21968
1582.19	8.1998
1582.45	6.20639
1582.71	3.21784
1582.97	9.19477
1583.23	5.20997
1583.49	6.20512
1583.75	6.20731
1584.01	6.21087
1584.27	6.21385
1584.53	5.21973
1584.79	6.21624
1585.06	4.22426
1585.32	4.22444
1585.58	10.197
1585.84	8.19907
1586.1	6.20268
1586.36	8.18983
1586.62	5.20202
1586.88	4.2056
1587.14	6.19493
1587.4	8.18529
1587.66	8.18787
1587.92	3.21702
1588.18	11.1833
1588.44	8.2036
1588.7	3.23202
1588.96	9.20997
1589.22	9.21403
1589.48	6.22924
1589.74	7.22735
1590	6.23614
1590.26	5.2455
1590.52	9.23203
1590.78	8.23744
1591.04	8.23831
1591.3	3.25892
1591.56	11.2223
1591.82	10.2197
1592.08	5.2363
1592.34	5.23311
1592.6	7.21774
1592.86	10.1914
1593.12	10.1796
1593.38	11.1632
1593.64	8.17774
1593.9	4.20402
1594.16	10.1667
1594.42	8.18719
1594.68	5.21385
1594.94	3.23244
1595.2	7.20267
1595.46	10.1761
1595.72	10.1778
1595.98	6.20712
1596.24	11.176
1596.5	9.19336
1596.76	9.198
1597.02	7.21652
1597.28	8.21378
1597.54	14.1754
1597.8	13.18
1598.06	8.20895
1598.32	12.1745
1598.58	12.1692
1598.84	9.18797
1599.1	6.20816
1599.36	14.1427
1599.62	10.1712
1599.88	10.1681
1600.14	9.17221
1600.4	4.20957
1600.66	8.16764
1600.92	10.1413
1601.17	6.1723
1601.43	11.1185
1601.69	6.16465
1601.95	13.0897
1602.21	14.069
1602.47	11.1288
1602.73	11.0799
1602.99	10.1241
1603.25	11.1349
1603.51	10.2599
1603.77	9.55173
1604.03	10.3792
1604.29	11.0207
1604.55	7.50541
1604.81	11.9244
1605.07	12.4004
1605.33	13.3031
1605.59	10.3693
1605.85	11.2551
1606.11	11.1586
1606.37	11.352
1606.63	9.21777
1606.88	15.4379
1607.14	9.61662
1607.4	13.4886
1607.66	13.922
1607.92	9.58868
1608.18	12.3291
1608.44	13.2703
1608.7	10.5296
1608.96	10.7477
1609.22	14.076
1609.48	14.2655
1609.74	12.4077
1610	11.6047
1610.26	12.0844
1610.51	11.6336
1610.77	9.95932
1611.03	9.52877
1611.29	11.8493
1611.55	11.4596
1611.81	12.9092
1612.07	15.2479
1612.33	11.4622
1612.59	12.6044
1612.85	12.4868
1613.11	12.5497
1613.37	15.4226
1613.62	15.7941
1613.88	15.7635
1614.14	14.2176
1614.4	11.0936
1614.66	16.6412
1614.92	12.2698
1615.18	13.1787
1615.44	16.0414
1615.7	16.4592
1615.96	12.8514
1616.21	13.6392
1616.47	13.8682
1616.73	12.55
1616.99	14.997
1617.25	16.8546
1617.51	11.6992
1617.77	14.3301
1618.03	15.145
1618.28	13.9639
1618.54	17.1982
1618.8	16.0653
1619.06	13.2335
1619.32	12.1502
1619.58	13.8912
1619.84	15.7292
1620.1	17.1533
1620.35	15.9791
1620.61	15.6364
1620.87	17.176
1621.13	18.0341
1621.39	15.9236
1621.65	16.1228
1621.91	18.0166
1622.17	15.8615
1622.42	16.1288
1622.68	15.9746
1622.94	18.8692
1623.2	17.6826
1623.46	17.8183
1623.72	17.9163
1623.98	14.3887
1624.23	14.0366
1624.49	15.4262
1624.75	16.3399
1625.01	17.6852
1625.27	17.2055
1625.53	17.1678
1625.79	15.3282
1626.04	17.5453
1626.3	18.6656
1626.56	14.6837
1626.82	15.4463
1627.08	16.4452
1627.34	14.3251
1627.59	15.5353
1627.85	14.4339
1628.11	12.4151
1628.37	14.948
1628.63	16.9093
1628.81	18.2622
1629.07	11.3667
1629.33	20.2367
1629.59	14.3289
1629.85	18.2727
1630.12	17.29
1630.38	15.3197
1630.64	15.3254
1630.9	16.3189
1631.16	14.3608
1631.42	12.4024
1631.68	18.3256
1631.95	17.3451
1632.21	22.2949
1632.47	18.3709
1632.73	19.3426
1632.99	14.4034
1633.25	17.3641
1633.51	18.3616
1633.78	17.3871
1634.04	14.4374
1634.3	21.3435
1634.56	15.4342
1634.82	14.4525
1635.08	18.398
1635.34	18.4002
1635.6	21.3576
1635.87	18.4022
1636.13	21.3581
1636.39	18.4026
1636.65	16.4317
1636.91	13.4774
1637.17	17.4192
1637.43	15.4539
1637.69	22.3475
1637.95	20.3802
1638.21	23.3372
1638.48	18.422
1638.74	18.4279
1639	20.4023
1639.26	19.4238
1639.52	16.4758
1639.78	15.4964
1640.04	17.4751
1640.3	10.5964
1640.57	16.5144
1640.83	16.5207
1641.09	21.4464
1641.35	22.433
1641.61	19.4828
1641.87	17.5183
1642.13	19.4915
1642.39	14.5744
1642.65	14.5794
1642.91	20.4911
1643.17	14.5899
1643.44	17.5453
1643.7	21.4833
1643.96	20.4978
1644.22	15.5817
1644.48	19.5221
1644.74	16.583
1645	18.561
1645.26	16.6031
1645.52	24.4807
1645.78	16.6102
1646.04	19.5637
1646.31	17.5985
1646.57	18.5869
1646.83	20.555
1647.09	18.5909
1647.35	19.5769
1647.61	18.601
1647.87	21.5598
1648.13	17.6414
1648.39	17.6563
1648.65	15.7203
1648.91	16.7091
1649.17	17.6975
1649.43	15.7301
1649.69	19.6766
1649.95	18.7158
1650.21	27.5931
1650.47	19.7298
1650.74	19.7445
1651	18.7706
1651.26	22.7208
1651.52	18.7857
1651.78	13.8657
1652.04	15.8456
1652.3	22.744
1652.56	18.8052
1652.82	18.811
1653.08	20.7893
1653.34	16.8577
1653.6	18.84
1653.86	21.8058
1654.12	18.8582
1654.38	17.8832
1654.64	18.8821
1654.9	16.9268
1655.16	17.9327
1655.42	23.8741
1655.68	18.9566
1655.94	19.9566
1656.21	24.9026
1656.47	19.9756
1656.73	18.9938
1656.99	16.0361
1657.25	19.9872
1657.51	20.9786
1657.77	22.9559
1658.03	20.9847
1658.29	18.0263
1658.55	18.0278
1658.81	19.0154
1659.07	23.9471
1659.33	20.989
1659.59	15.0761
1659.85	16.0732
1660.11	20.03
1660.37	17.0859
1660.63	16.1143
1660.89	19.0891
1661.15	15.1566
1661.41	11.2216
1661.67	16.1499
1661.93	19.118
1662.19	19.1959
1662.45	14.2807
1662.71	16.2494
1662.97	18.2337
1663.23	19.1835
1663.49	19.1533
1663.75	12.2842
1664.01	16.2463
1664.27	16.2632
1664.53	13.326
1664.79	17.2804
1665.05	17.2269
1665.31	12.3267
1665.57	12.3951
1665.83	18.3351
1666.09	15.3828
1666.35	13.293
1666.61	18.2266
1666.87	16.3264
1667.13	16.3259
1667.39	15.3425
1667.65	15.3449
1667.91	19.2939
1668.17	17.3336
1668.43	17.366
1668.69	17.3891
1668.95	15.4242
1669.21	21.3599
1669.47	16.4306
1669.72	12.4806
1669.98	15.4587
1670.24	19.4432
1670.51	13.5249
1670.76	12.5407
1671.02	12.5469
1671.28	11.5651
1671.54	12.5649
1671.8	14.5521
1672.06	15.5499
1672.32	17.5343
1672.58	14.5773
1672.84	15.5753
1673.1	11.6308
1673.36	8.6757
1673.62	15.6091
1673.88	15.6228
1674.14	11.679
1674.4	12.6812
1674.66	14.6757
1674.92	5.78255
1675.18	12.7204
1675.44	9.75947
1675.69	13.7258
1675.95	6.80834
1676.21	11.7668
1676.47	5.83728
1676.73	16.7319
1676.99	15.748
1677.25	12.784
1677.51	9.8187
1677.77	12.7882
1678.03	9.82212
1678.29	13.7806
1678.55	10.8183
1678.81	7.85727
1679.07	10.8289
1679.33	11.8223
1679.59	15.7808
1679.84	11.8335
1680.1	7.88587
1680.36	12.8317
1680.62	12.8374
1680.88	17.7843
1681.14	12.8527
1681.4	12.8611
1681.66	13.8576
1681.92	9.91491
1682.18	9.92374
1682.44	10.9189
1682.7	12.9025
1682.95	12.9108
1683.21	7.97984
1683.47	6.99953
1683.73	12.9321
1683.99	10.9609
1684.25	8.99203
1684.51	12.9493
1684.77	11.9695
1685.03	10.0027
1685.29	12.9737
1685.55	11.9954
1685.8	11.0178
1686.06	7.07999
1686.32	7.09373
1686.58	7.1048
1686.84	10.077
1687.1	7.11957
1687.36	10.0881
1687.62	13.0562
1687.88	7.13669
1688.14	5.16744
1688.39	10.1076
1688.65	11.0972
1688.91	10.1137
1689.17	8.14353
1689.43	11.1056
1689.69	6.1762
1689.95	11.1188
1690.2	4.22808
1690.46	6.2132
1690.72	2.27737
1690.98	7.22103
1691.24	5.2601
1691.5	6.25742
1691.76	10.2137
1692.02	9.2335
1692.28	9.23699
1692.53	10.2266
1692.79	10.2279
1693.05	10.228
1693.31	7.27025
1693.57	9.24578
1693.83	7.27751
1694.09	9.2509
1694.34	7.28607
1694.6	4.34071
1694.86	8.29186
1695.12	4.36169
1695.38	9.29826
1695.64	2.41241
1695.89	7.35241
1696.15	7.36335
1696.41	10.3278
1696.67	9.34779
1696.93	1.46905
1697.19	4.42672
1697.45	1.47525
1697.7	2.4643
1697.96	7.39087
1698.22	6.41122
1698.48	5.43289
1698.74	4.45649
1699	8.40114
1699.26	3.49185
1699.51	7.43707
1699.77	3.50958
1700.03	4.49812
1700.29	4.50646
1700.55	3.53055
1700.81	3.53806
1701.06	8.46245
1701.32	7.48298
1701.58	3.55365
1701.84	6.50741
1702.1	5.52834
1702.35	4.55079
1702.61	6.52397
1702.87	2.6016
1703.13	9.48675
1703.39	4.58095
1703.65	9.5018
1703.9	3.61883
1704.16	3.63055
1704.42	3.63985
1704.68	1.68246
1704.94	3.65573
1705.19	7.59528
1705.45	1.70798
1705.71	1.71328
1705.97	2.69965
1706.23	6.63085
1706.48	3.68814
1706.74	5.65444
1707	1.73276
1707.26	7.62114
1707.52	3.69889
1707.77	4.68074
1708.03	3.70147
1708.29	5.66119
1708.55	3.70389
1708.81	5.66627
1709.06	1.75613
1709.32	1.76408
1709.58	-0.184776
1709.84	3.74069
1710.1	5.70879
1710.35	3.76277
1710.61	4.75437
1710.87	2.80715
1711.13	3.79781
1711.39	-0.109371
1711.64	3.81746
1711.9	0.884958
1712.16	5.78213
1712.42	2.84475
1712.67	4.79996
1712.93	0.888922
1713.19	1.86681
1713.45	3.82339
1713.71	3.82864
1713.96	2.85805
1714.22	4.81889
1714.48	3.85005
1714.74	-1.02426
1714.99	0.943861
1715.25	1.93298
1715.51	2.91854
1715.77	4.87939
1716.02	2.93088
1716.28	0.00495911
1716.54	3.91324
1716.8	-1.94206
1717.05	5.86297
1717.31	1.95881
1717.57	3.90851
1717.83	6.83079
1718.08	4.88417
1718.34	2.9409
1718.6	1.00051
1718.86	5.87809
1719.12	1.9921
1719.37	-1.89447
1719.63	2.98562
1719.89	4.94193
1720.14	0.0801353
1720.4	3.0054
1720.66	2.03459
1720.92	3.98571
1721.17	2.04429
1721.43	0.103418
1721.69	2.05189
1721.95	1.08335
1722.2	3.03062
1722.46	3.03443
1722.72	5.95265
1722.98	4.0154
1723.23	3.05112
1723.49	4.03167
1723.75	-0.816677
1724	2.10442
1724.26	2.10911
1724.52	2.11189
1724.78	0.171762
1725.03	2.11339
1725.29	-0.793667
1725.55	-0.788511
1725.8	0.188133
1726.06	1.16803
1726.32	3.11278
1726.58	5.05531
1726.83	1.18215
1727.09	-0.744684
1727.35	1.20596
1727.6	2.18134
1727.86	-0.719645
1728.12	1.21387
1728.38	4.09136
1728.63	0.207888
1728.89	-1.71812
1729.15	2.16353
1729.4	0.251438
1729.66	2.19561
1729.92	3.15835
1730.18	3.16214
1730.43	4.14191
1730.69	-1.62701
1730.95	1.28237
1731.2	3.22453
1731.46	4.19929
1731.72	-0.625248
1731.97	-1.58436
1732.23	3.25327
1732.49	2.29253
1732.74	3.26211
1733	0.367228
1733.26	1.33293
1733.51	1.33398
1733.77	2.30093
1734.03	1.3389
1734.29	3.2686
1734.54	2.30672
1734.8	-0.580656
1735.06	1.34916
1735.31	0.39123
1735.57	1.36012
1735.82	-0.55784
1736.08	0.411304
1736.34	5.22883
1736.6	3.31008
1736.85	1.39165
1737.11	2.3598
1737.37	1.40399
1737.62	0.447353
1737.88	-0.509346
1738.14	3.34012
1738.39	3.3441
1738.65	1.42588
1738.91	3.3492
1739.16	3.34876
1739.42	1.42819
1739.67	0.469234
1739.93	2.38838
1740.19	1.43227
1740.44	-1.43867
1740.7	0.482203
1740.96	-2.38694
1741.21	1.44918
1741.47	-0.46023
1741.73	-0.453218
1741.98	-1.40277
1742.24	1.47614
1742.5	1.48284
1742.75	2.44772
1743.01	-1.37265
1743.26	-0.40933
1743.52	-0.404837
1743.78	0.557777
1744.03	1.51987
1744.29	-0.385151
1744.55	0.580061
1744.8	-0.367382
1745.06	-2.27191
1745.32	1.56139
1745.57	1.56702
1745.83	-3.2094
1746.09	3.48577
1746.34	-0.334824
1746.6	2.53605
1746.85	-0.327459
1747.11	-2.23221
1747.37	-0.318686
1747.62	0.64319
1747.88	2.56063
1748.13	1.61503
1748.39	-2.19389
1748.65	0.679935
1748.9	0.691046
1749.16	-3.11701
1749.42	2.62594
1749.67	-0.226789
1749.93	-1.16958
1750.18	0.754232
1750.44	-3.0599
1750.7	-0.181362
1750.95	0.782932
1751.21	0.788029
1751.46	-0.165279
1751.72	-0.16247
1751.98	2.70708
1752.23	0.80105
1752.49	-0.149717
1752.74	0.808964
1753	-0.140581
1753.26	-1.08947
1753.51	2.73154
1753.77	1.78125
1754.02	-2.02889
1754.28	-1.06971
1754.53	0.842701
1754.79	-1.05762
1755.05	-1.05177
1755.3	-0.0938873
1755.56	-1.04247
1755.81	-0.0863113
1756.07	2.77299
1756.33	-0.0812416
1756.58	-1.03047
1756.84	0.875822
1757.09	-1.97191
1757.35	-0.0629292
1757.6	0.898684
1757.86	1.8632
1758.12	1.87288
1758.37	-0.0217094
1758.63	0.93821
1758.88	-0.00482559
1759.14	0.00393486
1759.39	0.962978
1759.65	-1.88511
1759.91	0.0243549
1760.16	-1.87222
1760.42	0.0361156
1760.67	3.84517
1760.93	-0.905727
1761.18	1.95148
1761.44	1.95719
1761.69	2.91404
1761.95	0.070715
1762.21	0.0816479
1762.46	1.04205
1762.72	-1.8026
1762.97	-0.84429
1763.23	0.115145
1763.48	-1.77737
1763.74	0.134485
1763.99	-3.65772
1764.25	0.161104
1764.5	0.171762
1764.76	0.181898
1765.02	0.191301
1765.27	-2.65592
1765.53	1.16056
1765.78	4.02438
1766.04	1.17501
1766.29	-0.722908
1766.55	0.235909
1766.8	2.14668
1767.06	2.15241
1767.31	-0.698086
1767.57	-0.692745
1767.82	-1.63898
1768.08	1.22219
1768.33	4.08036
1768.59	2.17541
1768.84	1.22191
1769.1	-1.63041
1769.36	0.27265
1769.61	0.281076
1769.86	-0.655407
1770.12	-0.645201
1770.38	2.21291
1770.63	4.12262
1770.89	0.335751
1771.14	-0.601559
1771.4	-0.593136
1771.65	-0.584318
1771.91	-1.52474
1772.16	-0.562464
1772.42	1.35029
1772.67	1.35994
1772.93	-1.48565
1773.18	0.427046
1773.44	-1.46778
1773.69	1.3967
1773.95	1.40498
1774.2	0.461205
1774.46	3.32808
1774.71	0.479841
1774.97	-1.41391
1775.22	0.507383
1775.48	-1.38794
1775.73	-1.37902
1775.99	0.53503
1776.24	-0.412401
1776.5	1.49846
1776.75	-2.30975
1777.01	-0.398703
1777.26	0.557695
1777.51	-1.34376
1777.77	-2.29226
1778.03	0.568365
1778.28	-1.33285
1778.53	1.5247
1778.79	-1.32792
1779.04	2.4822
1779.3	1.53874
1779.55	0.598974
1779.81	-2.24811
1780.06	0.615326
1780.32	-1.27993
1780.57	1.58421
1780.83	-3.16848
1781.08	2.55144
1781.34	0.655972
1781.59	-0.286903
1781.85	1.62797
1782.1	-0.266438
1782.36	1.64855
1782.61	1.65752
1782.86	-4.05198
1783.12	-3.09035
1783.37	-0.221739
1783.63	0.741053
1783.88	-1.15597
1784.14	-0.191496
1784.39	4.5878
1784.65	1.73343
1784.9	-2.07674
1785.15	-0.163204
1785.41	2.70316
1785.66	2.70802
1785.92	0.807276
1786.17	-1.09234
1786.43	-2.03721
1786.68	0.836037
1786.94	2.75731
1787.19	0.862461
1787.44	-0.0754719
1787.7	2.81156
1787.95	0.916376
1788.21	0.929342
1788.46	0.93903
1788.72	-0.00712204
1788.97	3.83773
1789.23	-1.90112
1789.48	-1.89294
1789.73	4.82543
1789.99	-1.87679
1790.24	2.9225
1790.5	1.9692
1790.75	-1.86574
1791	1.00663
1791.26	-0.904711
1791.51	1.97316
1791.77	1.022
1792.02	1.02858
1792.28	-0.87949
1792.53	0.0863457
1792.78	-0.864265
1793.04	0.0994835
1793.29	-0.85145
1793.55	2.03054
1793.8	1.07924
1794.05	0.125322
1794.31	1.08704
1794.56	2.0606
1794.82	2.08079
1795.07	0.176172
1795.32	-0.774044
1795.58	0.19458
1795.83	1.16383
1796.09	0.212669
1796.34	-1.69928
1796.6	3.11379
1796.85	2.16221
1797.1	0.248541
1797.36	-0.704916
1797.61	1.22534
1797.86	-1.65201
1798.12	-1.64568
1798.37	-0.678738
1798.63	-1.63597
1798.88	-0.671045
1799.13	1.25397
1799.39	1.25553
1799.64	0.296824
1799.9	1.26041
1800.15	-0.657652
1800.4	1.26736
1800.66	-3.53094
1800.91	-3.52606
1801.16	-1.5997
1801.42	0.327335
1801.67	-1.58738
1801.93	1.30168
1802.18	-1.57311
1802.43	2.27905
1802.69	0.36578
1802.94	0.374815
1803.19	-0.578909
1803.45	0.389107
1803.7	0.395117
1803.95	0.402935
1804.21	0.411415
1804.46	0.419695
1804.71	1.39147
1804.97	0.438423
1805.22	4.29979
1805.48	0.456366
1805.73	0.464317
1805.98	1.43556
1806.24	-0.484491
1806.49	-0.478386
1806.74	1.45439
1807	-1.4321
1807.25	1.4641
1807.5	-0.458529
1807.76	-0.453503
1808.01	0.515472
1808.26	-1.40711
1808.52	0.526052
1808.77	0.531391
1809.02	1.50063
1809.28	1.50609
1809.53	-2.34508
1809.79	-0.411743
1810.04	0.557003
1810.29	2.4886
1810.55	1.52809
1810.8	-2.3239
1811.05	0.572283
1811.3	2.50462
1811.56	1.5453
1811.81	-0.377392
1812.06	-1.33535
1812.32	0.600203
1812.57	0.607727
1812.82	0.614075
1813.08	-0.345045
1813.33	-1.30307
1813.58	1.60048
1813.84	0.644222
1814.09	1.61977
1814.34	3.56151
1814.6	-1.26143
1814.85	0.677607
1815.1	-1.2498
1815.36	0.687975
1815.61	-1.24012
1815.86	-2.20199
1816.12	-2.19658
1816.37	1.67453
1816.62	-0.255579
1816.88	1.67711
1817.13	3.6038
1817.38	1.67137
1817.63	0.71088
1817.89	0.718346
1818.14	4.59271
1818.39	-0.234053
1818.64	1.70219
1818.9	0.741068
1819.15	-1.1861
1819.4	-1.18069
1819.66	0.758144
1819.91	-0.202869
1820.16	0.770103
1820.42	2.70982
1820.67	2.71548
1820.92	0.787148
1821.18	2.72873
1821.43	1.7673
1821.68	-0.162735
1821.93	-2.09359
1822.19	0.814756
1822.44	2.75534
1822.69	2.75963
1822.94	1.79409
1823.2	1.7958
1823.45	-2.07436
1823.7	0.832756
1823.95	-0.130381
1824.21	1.81052
1824.46	-0.12085
1824.71	-3.02063
1824.96	-1.0792
1825.22	1.83024
1825.47	0.865179
1825.72	-0.100239
1825.98	1.84034
1826.23	1.84384
1826.48	0.878914
1826.73	1.85194
1826.99	-1.04929
1827.24	-2.01329
1827.49	1.86676
1827.74	1.86932
1828	-1.03506
1828.25	-0.0653419
1828.5	-1.03351
1828.75	-3.93755
1829.01	-3.93511
1829.26	1.87797
1829.51	0.911192
1829.76	-1.02508
1830.02	-1.02397
1830.27	2.84936
1830.52	-1.98781
1830.77	1.88984
1831.03	-0.0417538
1831.28	-0.0367298
1831.53	0.936649
1831.78	0.941624
1832.04	5.79146
1832.29	-0.0158863
1832.54	1.92722
1832.79	-0.978192
1833.04	-1.94448
1833.3	-0.00154114
1833.55	1.94029
1833.8	1.94423
1834.05	-0.967689
1834.31	-0.00578308
1834.56	0.956669
1834.81	-3.88801
1835.06	-0.986559
1835.31	0.945618
1835.57	-0.018362
1835.82	0.945549
1836.07	2.01295
1836.32	-0.925377
1836.58	0.0259209
1836.83	0.0233135
1837.08	0.979589
1837.33	-2.8995
1837.58	0.953342
1837.84	-0.98578
1838.09	1.91477
1838.34	0.986799
1838.59	-0.94024
1838.85	-1.90161
1839.1	0.0398598
1839.35	-0.92481
1839.6	-0.919844
1839.85	0.0327854
1840.11	0.0238495
1840.36	0.0157585
1840.61	1.94247
1840.86	-0.963189
1841.11	0.963015
1841.36	0.957664
1841.62	-0.97717
1841.87	2.87795
1842.12	1.90981
1842.37	-2.90821
1842.62	-0.0143795
1842.88	-1.94013
1843.13	-0.974302
1843.38	0.956253
1843.63	-0.973001
1843.88	0.957888
1844.14	1.92606
1844.39	-2.89597
1844.64	0.961599
1844.89	1.92827
1845.14	0.966532
1845.39	-0.954541
1845.65	0.984699
1845.9	2.92601
1846.15	-2.86175
1846.4	-1.90508
1846.65	-0.9621
1846.9	-0.983548
1847.16	2.86381
1847.41	0.94195
1847.66	-0.9742
1847.91	-1.93232
1848.16	-0.0121822
1848.41	0.948296
1848.67	0.949112
1848.92	0.946325
1849.17	-0.982541
1849.42	1.89964
1849.67	-0.0288792
1849.92	0.927507
1850.18	1.88433
1850.43	-1.002
1850.68	-1.00451
1850.93	0.914471
1851.18	0.912821
1851.43	-0.0482311
1851.68	-0.0480614
1851.94	1.8731
1852.19	-0.0465546
1852.44	-0.0458946
1852.69	-1.9662
1852.94	-1.00639
1853.19	-0.0476723
1853.44	0.909155
1853.69	0.904642
1853.95	-1.97835
1854.2	-0.0636597
1854.45	-2.9419
1854.7	0.890886
1854.95	0.885656
1855.2	-0.0773678
1855.45	-0.0794907
1855.71	-0.0805073
1855.96	2.79269
1856.21	-0.0801926
1856.46	-0.0800648
1856.71	-1.99603
1856.96	1.83347
1857.21	-1.04104
1857.46	2.78702
1857.72	-0.0877914
1857.97	4.69436
1858.22	-0.0946827
1858.47	-1.05502
1858.72	1.81047
1858.97	-0.106506
1859.22	1.80327
1859.47	0.847448
1859.72	1.80345
1859.98	-1.06304
1860.23	0.852951
1860.48	3.72519
1860.73	-1.05466
1860.98	0.862116
1861.23	1.82161
1861.48	-0.0917664
1861.73	-1.04991
1861.98	1.81762
1862.24	1.81338
1862.49	0.852453
1862.74	0.84815
1862.99	1.79977
1863.24	0.839964
1863.49	1.79188
1863.74	-2.03304
1863.99	1.78476
1864.24	-1.08384
1864.49	2.73164
1864.74	-2.04656
1864.99	2.71979
1865.25	1.7588
1865.5	0.797558
1865.75	2.69601
1866	2.6871
1866.25	0.773933
1866.5	2.66983
1866.75	-1.1447
1867	0.751314
1867.25	-1.15594
1867.5	0.742756
1867.75	-0.210394
1868	-2.1132
1868.25	-0.211937
1868.51	-0.211615
1868.76	0.738035
1869.01	1.68703
1869.26	-3.06775
1869.51	-2.11867
1869.76	-0.219152
1870.01	-1.17115
1870.26	2.62916
1870.51	-2.12399
1870.76	2.62693
1871.01	0.723816
1871.26	5.47187
1871.51	-0.233185
1871.76	-1.18572
1872.01	0.711487
1872.26	0.706982
1872.52	-0.246962
1872.77	0.699404
1873.02	-1.20066
1873.27	-1.20311
1873.52	-0.257421
1873.77	1.63606
1874.02	-1.21525
1874.27	0.676563
1874.52	-1.22543
1874.77	2.56082
1875.02	-3.13178
1875.27	-0.296165
1875.52	0.639566
1875.77	0.632725
1876.02	0.626266
1876.27	-1.27088
1876.52	0.617405
1876.77	-0.33919
1877.02	-2.24035
1877.27	-0.371395
1877.52	1.53793
1877.77	2.55479
1878.02	-1.27373
1878.27	1.5607
1878.52	-0.333883
1878.78	3.47083
1879.02	-1.26108
1879.27	0.625565
1879.52	-0.327551
1879.78	-0.329451
1880.03	3.45531
1880.28	-7.90538
1880.53	3.45149
1880.78	-0.3381
1881.03	0.59903
1881.28	0.588657
1881.53	-1.31247
1881.78	2.45652
1882.03	1.49908
1882.28	-0.401821
1882.53	1.47768
1882.78	-2.29389
1883.03	-0.318361
1883.28	-0.39543
1883.53	-2.3174
1883.78	-0.430616
1884.03	0.517776
1884.28	-1.37649
1884.53	0.514124
1884.78	0.520327
1885.03	2.40793
1885.28	0.522331
1885.53	-0.415806
1885.78	-3.24708
1886.03	-0.414068
1886.28	-0.418621
1886.53	2.40491
1886.78	0.511024
1887.03	-1.38213
1887.28	4.27171
1887.52	-1.39411
1887.78	-2.3437
1888.03	0.475744
1888.27	1.40977
1888.52	-0.481806
1888.77	-1.43017
1889.02	-0.493067
1889.27	2.32801
1889.52	-1.43984
1889.77	-0.498703
1890.02	-2.38025
1890.27	0.446043
1890.52	0.444727
1890.77	3.26702
1891.02	-0.503794
1891.27	0.435215
1891.52	1.37344
1891.77	0.428709
1892.02	2.30856
1892.27	1.36181
1892.52	0.414097
1892.77	0.404602
1893.02	-2.42856
1893.27	1.32198
1893.52	-0.560072
1893.77	3.19754
1894.02	0.369572
1894.27	2.24322
1894.52	0.360783
1894.76	1.29843
1895.02	1.2974
1895.26	1.29684
1895.51	0.356714
1895.76	-2.46323
1896.01	1.29703
1896.26	-2.46305
1896.51	-2.46325
1896.76	1.29816
1897.01	0.356482
1897.26	-0.586157
1897.51	-0.58906
1897.76	1.28829
1898.01	0.342773
1898.26	0.336872
1898.51	0.329981
1898.75	-1.55685
1899.01	1.25682
1899.25	-1.56668
1899.5	-1.57165
1899.75	0.302607
1900	3.11739
1900.25	1.23673
1900.5	1.23591
1900.75	1.23643
1901	-1.58233
1901.25	-2.52216
1901.5	-1.58189
1901.75	3.12172
1902	2.18175
1902.25	2.1785
1902.49	1.23334
1902.74	2.16878
1902.99	1.22321
1903.24	-0.661921
1903.49	-2.54646
1903.74	0.270493
1903.99	0.266935
1904.24	1.20336
1904.49	2.13934
1904.74	1.19559
1904.98	-1.62798
1905.23	1.1878
1905.48	0.23863
1905.73	1.16987
1905.98	1.16424
1906.23	0.219734
1906.48	-0.724203
1906.73	-3.54558
1906.98	-0.731136
1907.23	2.08377
1907.47	-0.733995
1907.72	-0.734478
1907.97	0.20293
1908.22	1.14032
1908.47	1.13918
1908.72	0.199106
1908.97	0.199476
1909.22	3.0216
1909.47	-1.67839
1909.71	0.205284
1909.96	0.208097
1910.21	0.20989
1910.46	0.210278
1910.71	-0.732407
1910.96	-0.734295
1911.21	-1.6792
1911.46	0.201128
1911.7	1.13815
1911.95	-2.63377
1912.2	2.0717
1912.45	0.184551
1912.7	1.12296
1912.95	1.12032
1913.2	-0.764038
1913.45	1.12224
1913.69	0.181774
1913.94	1.12486
1914.19	1.12529
1914.44	0.182415
1914.69	0.182232
1914.94	-0.762644
1915.18	0.178162
1915.43	-0.769695
1915.68	0.168728
1915.93	-0.779131
1916.18	0.157654
1916.43	3.92292
1916.68	1.08669
1916.92	-0.805326
1917.17	0.132149
1917.42	-0.815243
1917.67	1.06733
1917.92	0.123604
1918.17	0.123941
1918.42	-0.818388
1918.66	-1.76079
1918.91	-1.75948
1919.16	0.13245
1919.41	2.02388
1919.66	0.133551
1919.91	-0.814764
1920.15	-0.82095
1920.4	-1.76759
1920.65	1.0683
1920.9	0.123842
1921.15	2.01339
1921.39	1.06676
1921.64	2.01
1921.89	2.00593
1922.14	-1.78248
1922.39	-0.843435
1922.64	-0.849619
1922.89	0.090292
1923.13	-0.860312
1923.38	0.079298
1923.63	1.01777
1923.88	1.95525
1924.13	6.67298
1924.37	-1.83426
1924.62	2.88651
1924.87	-4.67395
1925.12	0.0505962
1925.37	0.0522194
1925.61	1.9443
1925.86	3.83724
1926.11	-1.83819
1926.36	-0.890659
1926.61	1.94852
1926.86	-0.893248
1927.1	3.83999
1927.35	0.050106
1927.6	0.995256
1927.85	3.83518
1928.1	0.0428467
1928.34	2.88389
1928.59	1.93472
1928.84	0.986012
1929.09	-2.80606
1929.33	0.988098
1929.58	1.93703
1929.83	0.0412464
1930.08	-1.85715
1930.33	-1.857
1930.57	0.987762
1930.82	0.0345974
1931.07	-0.920677
1931.32	0.971399
1931.57	0.0155621
1931.81	1.90684
1932.06	3.79766
1932.31	-0.00489044
1932.56	-0.0095253
1932.8	-0.016489
1933.05	-0.0189934
1933.3	0.931366
1933.55	-2.86114
1933.79	2.84523
1934.04	0.00686073
1934.29	1.92106
1934.54	2.88346
1934.79	1.93835
1935.03	-0.917295
1935.28	0.991154
1935.53	1.92479
1935.78	-0.938538
1936.02	-2.85016
1936.27	1.90783
1936.52	-0.958797
1936.77	-2.87218
1937.01	-0.975018
1937.26	-0.98292
1937.51	-1.94218
1937.76	1.85701
1938	-1.00199
1938.25	0.904245
1938.5	4.71014
1938.75	0.90007
1938.99	-0.0537319
1939.24	-0.0559025
1939.49	1.84817
1939.74	-1.01403
1939.98	-0.0609035
1940.23	-1.01403
1940.48	0.901161
1940.73	-0.0514641
1940.97	-0.056673
1941.22	-0.0638256
1941.47	-1.02889
1941.72	-1.99616
1941.96	0.868349
1942.21	-0.071558
1942.46	2.79108
1942.71	-0.0779095
1942.95	-3.90807
1943.2	-0.102613
1943.45	1.79551
1943.7	2.75904
1943.94	-1.06027
1944.19	-2.9708
1944.44	0.848255
1944.68	-2.01742
1944.93	-1.06254
1945.18	-0.107237
1945.42	0.848068
1945.67	-2.97759
1945.92	3.714
1946.17	-3.93932
1946.41	0.839014
1946.66	0.833883
1946.91	0.827656
1947.16	-0.134966
1947.4	2.72884
1947.65	-0.144524
1947.9	1.76307
1948.14	1.75709
1948.39	0.797646
1948.64	-0.159788
1948.89	-0.160746
1949.13	-1.11827
1949.38	-1.11856
1949.62	0.7962
1949.87	4.63075
1950.12	1.76176
1950.37	-3.02851
1950.61	1.76736
1950.86	0.811529
1951.11	-3.02479
1951.35	-1.10512
1951.6	-1.10653
1951.85	-1.10857
1952.1	0.81003
1952.34	1.76553
1952.59	-1.11704
1952.83	1.76403
1953.08	-0.167536
1953.33	-0.179558
1953.58	-0.195446
1953.82	-0.210011
1954.07	0.734709
1954.32	-1.19395
1954.56	-0.242743
1954.81	0.710373
1955.06	-0.249735
1955.3	-1.20755
1955.55	0.713413
1955.8	-0.23844
1956.04	1.68153
1956.29	1.68292
1956.54	2.64213
1956.78	0.721395
1957.03	1.68136
1957.28	-0.241335
1957.52	0.717505
1957.77	-1.20745
1958.02	-2.17205
1958.26	5.51338
1958.51	-1.22125
1958.76	0.692944
1959	-0.274267
1959.25	2.60256
1959.5	0.67341
1959.74	1.62634
1959.99	1.61866
1960.23	-0.30975
1960.48	2.56233
1960.73	0.634413
1960.98	-1.29247
1961.22	-0.338848
1961.47	-0.342846
1961.71	1.57299
1961.96	1.56913
1962.21	-0.354301
1962.45	1.56158
1962.7	0.597801
1962.95	1.55382
1963.19	1.54992
1963.44	-0.373621
1963.69	-2.29644
1963.93	-0.379049
1964.18	5.37734
1964.42	0.570271
1964.67	-1.35453
1964.92	-0.399498
1965.16	-0.403553
1965.41	1.51449
1965.66	3.43482
1965.9	1.51361
1966.15	-0.408678
1966.39	-1.37166
1966.64	-0.413277
1966.89	2.4652
1967.13	0.538626
1967.38	0.535625
1967.63	2.4543
1967.87	-2.35625
1968.12	0.522717
1968.36	2.43874
1968.61	2.43029
1968.86	2.42043
1969.1	0.488003
1969.35	1.43773
1969.59	0.468214
1969.84	0.459824
1970.09	0.452738
1970.33	3.32327
1970.58	1.39678
1970.82	3.3086
1971.07	2.34278
1971.32	3.29576
1971.56	-1.50277
1971.81	-1.50583
1972.05	2.32785
1972.3	0.404202
1972.55	1.35706
1972.79	0.389935
1973.04	1.33998
1973.28	-1.54416
1973.53	0.366308
1973.78	0.360279
1974.02	-0.603354
1974.27	1.30926
1974.51	-1.5701
1974.76	-0.6145
1975.01	2.25966
1975.25	1.29943
1975.5	4.17462
1975.74	0.335783
1975.99	0.332409
1976.23	0.328518
1976.48	1.28329
1976.73	0.318874
1976.97	-2.56443
1977.22	3.18348
1977.46	1.25769
1977.71	-0.667446
1977.95	0.28434
1978.2	3.15341
1978.45	-0.686136
1978.69	4.10189
1978.94	2.18117
1979.18	-0.698822
1979.43	0.256153
1979.67	0.251863
1979.92	3.12076
1980.17	0.237349
1980.41	-1.68642
1980.66	0.224045
1980.9	-1.6992
1981.15	-2.66312
1981.39	1.16256
1981.64	-0.757984
1981.88	1.15229
1982.13	-1.72823
1982.37	-1.73536
1982.62	3.04191
1982.87	2.07419
1983.11	1.10892
1983.36	1.10289
1983.6	1.09707
1983.85	1.09073
1984.09	1.08432
1984.34	1.07835
1984.58	1.07043
1984.83	2.97248
1985.08	2.966
1985.32	0.0946922
1985.56	-1.81144
1985.81	-0.892416
1986.06	0.121729
1986.3	1.08759
1986.55	-1.61697
1986.79	1.00948
1987.04	-0.858801
1987.28	-0.738226
1987.53	0.98933
1987.77	0.89337
1988.02	0.853811
1988.26	-0.0974636
1988.51	2.47395
1988.75	0.069582
1989	-1.09892
1989.24	-0.677082
1989.49	-2.28834
1989.73	0.0430069
1989.98	1.07129
1990.22	-0.604744
1990.47	-0.595083
1990.72	1.17102
1990.96	1.14231
1991.2	-0.0596542
1991.45	2.28448
1991.7	1.32545
1991.94	-1.67715
1992.19	0.577257
1992.43	-0.730829
1992.68	0.924809
1992.92	3.26687
1993.17	1.5506
1993.41	0.837275
1993.66	-0.976673
1993.9	2.41229
1994.15	-0.0261459
1994.39	1.85721
1994.63	-0.0980644
1994.88	0.910189
1995.13	0.128145
1995.37	2.65095
1995.61	1.36046
1995.86	-0.453367
1996.11	-0.645777
1996.35	0.193655
1996.59	0.333241
1996.84	0.874928
1997.08	0.33337
1997.33	0.508686
1997.57	0.800072
1997.82	0.816137
1998.06	0.975924
1998.31	0.616873
1998.55	0.694555
1998.8	-0.695118
1999.04	0.726408
1999.29	0.12933
1999.53	-0.3606
1999.78	-0.838425
2000.02	-0.0384254
2000.27	-0.00592995
2000.51	0.948544
2000.76	0.666321
2001	0.38282
2001.24	0.991728
2001.49	-0.32115
2001.73	0.514196
2001.98	1.48201
2002.22	0.28442
2002.47	-0.00423431
2002.71	-0.752829
2002.96	0.633556
2003.2	1.29906
2003.45	0.30401
2003.69	0.187954
2003.93	0.495489
2004.18	-0.475849
2004.42	1.98098
2004.67	1.3197
2004.91	-0.684097
2005.16	0.165083
2005.4	-0.014328
2005.65	0.426855
2005.89	-1.63862
2006.13	-0.973259
2006.38	-1.93767
2006.62	-0.559046
2006.87	-0.398151
2007.11	-0.0106392
2007.36	1.95642
2007.6	-0.249857
2007.81	1.387
2008.06	-0.511747
2008.31	4.19837
2008.56	0.415369
2008.8	0.405659
2009.05	1.33852
2009.3	2.27252
2009.55	-0.56352
2009.79	0.370638
2010.04	1.30382
2010.29	-0.584431
2010.53	2.23702
2010.78	-3.41801
2011.03	0.345352
2011.28	-2.48413
2011.52	2.22011
2011.77	-1.55107
2012.02	0.327486
2012.27	2.20502
2012.51	-1.56834
2012.76	0.302704
2013.01	-0.649693
2013.26	0.281479
2013.5	2.15033
2013.75	1.19791
2014	0.244331
2014.24	-0.705212
2014.49	-2.58705
2014.74	1.16467
2014.99	1.16453
2015.23	1.16455
2015.48	0.224619
2015.73	0.217432
2015.97	3.04254
2016.22	-2.58659
2016.47	2.11107
2016.71	0.226566
2016.96	0.220057
2017.21	2.09082
2017.46	0.202536
2017.7	2.06897
2017.95	0.180424
2018.2	-2.64371
2018.44	-0.77779
2018.69	0.148848
2018.94	1.07589
2019.18	1.06982
2019.43	0.12685
2019.68	-0.813755
2019.93	1.99252
2020.17	-0.821342
2020.42	1.04807
2020.67	0.110096
2020.91	-1.76523
2021.16	-0.831669
2021.41	-2.70892
2021.65	-1.77704
2021.9	0.090065
2022.15	1.9556
2022.4	0.0753155
2022.64	0.0668411
2022.89	1.93111
2023.14	1.92333
2023.38	-1.82444
2023.63	-0.896273
2023.88	1.90145
2024.12	-0.912125
2024.37	0.0127411
2024.62	-0.930264
2024.86	1.86149
2025.11	-0.0138149
2025.36	-1.88772
2025.6	0.901564
2025.85	-0.0302792
2026.1	-0.0248127
2026.34	5.58825
2026.59	-0.00199318
2026.84	0.946548
2027.08	-0.919085
2027.33	0.944773
2027.57	-0.00683975
2027.82	-1.901
2028.07	-1.00214
2028.32	1.85258
2028.56	0.967329
2028.81	-1.87143
2029.06	0.941498
2029.3	-0.963261
2029.55	-0.0529728
2029.79	-3.80393
2030.04	-0.0802898
2030.29	1.7718
2030.53	0.851942
2030.78	0.858187
2031.03	-1.94576
2031.27	-0.0820847
2031.52	0.850296
2031.77	-1.01291
2032.01	1.79222
2032.26	0.863472
2032.5	-1.0012
2032.75	0.870174
2033	1.8072
2033.24	0.876434
2033.49	-0.0615044
2033.74	-0.0736847
2033.98	0.842257
2034.23	1.75444
2034.48	0.817963
2034.72	-0.109745
2034.97	-1.03838
2035.21	-0.0945969
2035.46	-0.0834045
2035.71	0.85887
2035.95	-0.0833321
2036.2	-2.89805
2036.45	0.841734
2036.69	0.843058
2036.94	-0.0943718
2037.18	-0.0976505
2037.43	-1.03664
2037.68	1.76328
2037.92	-0.111174
2038.17	1.75269
2038.41	-0.121399
2038.66	1.74183
2038.91	0.80208
2039.15	2.66445
2039.4	-3.87849
2039.64	-3.88486
2039.89	1.70766
2040.14	2.63315
2040.38	1.69333
2040.63	0.754658
2040.87	-0.18292
2041.12	3.54314
2041.37	1.67525
2041.61	-2.05801
2041.86	-1.12974
2042.1	-1.136
2042.35	-1.13828
2042.6	-1.14025
2042.84	-0.20805
2043.09	-1.13597
2043.33	-3.92742
2043.58	0.741735
2043.83	-0.191055
2044.07	-0.194202
2044.32	1.66403
2044.56	-0.212378
2044.81	3.49201
2045.05	-2.06678
2045.3	-1.13605
2045.55	-0.170704
2045.79	0.793728
2046.04	-1.10403
2046.28	1.6796
2046.53	0.730684
2046.78	1.66499
2047.02	0.722055
2047.27	2.56905
2047.51	-1.16387
2047.76	-0.232
2048	-1.16472
2048.25	1.63228
2048.5	-3.02747
2048.74	1.63759
2048.99	0.70809
2049.23	0.712904
2049.48	2.58626
2049.72	0.723087
2049.97	-1.14075
2050.22	2.59734
2050.46	-1.14024
2050.71	-1.1431
2050.95	-0.214474
2051.2	-2.08819
2051.44	0.711929
2051.69	0.711615
2051.93	-1.15454
2052.18	3.51516
2052.42	-1.15345
2052.67	0.71707
2052.91	0.720201
2053.16	-0.20945
2053.41	0.732813
2053.65	-2.07051
2053.9	-1.13409
2054.14	-2.07014
2054.39	-0.200775
2054.63	2.60338
2054.88	-0.205814
2055.12	0.724091
2055.37	1.65614
2055.62	2.58893
2055.86	4.45553
2056.11	-0.221611
2056.35	-0.223547
2056.6	2.57982
2056.84	-0.22415
2057.09	-1.15814
2057.33	-1.1565
2057.58	0.715666
2057.82	1.65376
2058.07	1.65821
2058.31	1.66229
2058.56	0.729992
2058.8	1.66813
2059.05	3.54095
2059.29	3.54175
2059.54	1.66835
2059.78	-0.207127
2060.03	4.4686
2060.27	-1.14852
2060.52	2.59726
2060.76	-0.208574
2061.01	0.728842
2061.25	-3.01598
2061.5	2.60155
2061.74	1.66565
2061.99	-0.205978
2062.24	1.66874
2062.48	-2.07514
2062.73	1.675
2062.97	1.67799
2063.22	1.68042
2063.46	-0.192209
2063.7	-0.190969
2063.95	3.55984
2064.19	0.749949
2064.44	0.752615
2064.68	-0.180222
2064.93	-1.11289
2065.18	1.70731
2065.42	-0.16527
2065.66	-1.10072
2065.91	-1.0986
2066.15	-0.159359
2066.4	0.78236
2066.64	0.784082
2066.89	-2.97162
2067.13	-0.150925
2067.38	0.791912
2067.62	-2.02495
2067.87	1.73636
2068.11	-0.142563
2068.36	3.62137
2068.6	-0.139917
2068.85	-1.08306
2069.09	0.790331
2069.34	0.780857
2069.58	-2.03844
2069.83	1.7208
2070.07	-0.148209
2070.31	-1.0786
2070.56	2.69408
2070.8	1.74895
2071.05	1.7425
2071.29	0.832516
2071.54	0.835955
2071.78	-1.99125
2072.03	0.832592
2072.27	1.77385
2072.52	0.83045
2072.76	-1.99364
2073.01	0.829897
2073.25	2.71441
2073.5	-0.109299
2073.74	2.71716
2073.98	-1.0468
2074.23	-0.10074
2074.47	-1.03716
2074.72	-0.0875187
2074.96	0.864967
2075.21	-1.95471
2075.45	4.65826
2075.69	-0.0573959
2075.94	1.83154
2076.18	-0.0556984
2076.43	4.66186
2076.67	2.76976
2076.92	-1.9532
2077.16	-1.95983
2077.41	-1.96064
2077.65	2.75813
2077.9	0.876314
2078.14	0.878683
2078.38	0.881306
2078.63	-0.058588
2078.87	1.83558
2079.12	3.73398
2079.36	-0.0389671
2079.61	-3.81387
2079.85	-0.0311928
2080.09	1.86169
2080.34	1.86214
2080.58	-0.0290432
2080.83	-0.029583
2081.07	-0.974108
2081.32	0.915785
2081.56	-0.0284977
2081.8	-0.0261707
2082.05	0.92103
2082.29	0.922911
2082.54	1.86903
2082.78	-0.0205879
2083.02	1.86932
2083.27	-0.965311
2083.51	0.925613
2083.76	-0.963278
2084	0.927402
2084.24	1.87374
2084.49	2.82035
2084.73	0.931335
2084.98	-0.0126286
2085.22	-0.0116959
2085.47	1.88174
2085.71	1.8887
2085.95	-0.94042
2086.2	0.0101795
2086.44	-1.8788
2086.69	1.90914
2086.93	0.0213566
2087.17	-0.922581
2087.42	0.0251408
2087.66	1.91939
2087.9	0.0283585
2088.15	0.976961
2088.39	-0.913797
2088.64	-2.80489
2088.88	-0.907103
2089.12	2.88486
2089.37	0.0510864
2089.61	-0.893892
2089.85	1.95034
2090.1	2.90067
2090.34	1.9567
2090.59	5.75084
2090.83	0.0688286
2091.07	0.0723095
2091.32	0.0793324
2091.56	0.0865307
2091.8	1.04305
2092.05	2.00014
2092.29	0.11039
2092.54	2.96583
2092.78	1.07327
2093.02	3.93036
2093.27	1.08653
2093.51	-1.7594
2093.75	2.04802
2094	-0.80172
2094.24	4.90412
2094.49	3.9537
2094.73	1.10137
2094.97	1.09939
2095.22	2.04761
2095.46	2.04624
2095.7	2.99558
2095.95	1.0957
2096.19	0.146624
2096.43	2.99692
2096.68	1.09575
2096.92	3.94205
2097.16	-0.807535
2097.41	1.09139
2097.65	0.14279
2097.89	1.09241
2098.14	0.14262
2098.38	2.99172
2098.62	2.99281
2098.87	0.1462
2099.11	2.04525
2099.36	0.148802
2099.6	0.150898
2099.84	2.05157
2100.08	3.0038
2100.33	5.85638
2100.57	0.16757
2100.81	0.173124
2101.06	2.07689
2101.3	2.07998
2101.54	0.18215
2101.79	-1.71579
2102.03	-1.71384
2102.28	0.186262
2102.52	-1.71433
2102.76	3.03118
2103	3.98055
2103.25	3.98167
2103.49	1.13504
2103.73	4.93473
2103.98	-1.7062
2104.22	-0.751808
2104.46	2.10203
2104.71	3.05709
2104.95	1.1635
2105.19	0.220228
2105.44	1.17614
2105.68	1.18068
2105.92	0.234264
2106.17	3.08922
2106.41	1.19131
2106.65	1.19559
2106.89	1.19794
2107.14	3.09896
2107.38	1.1957
2107.62	1.19246
2107.87	2.13912
2108.11	1.1858
2108.35	-0.714792
2108.59	2.13471
2108.84	1.18898
2109.08	1.19759
2109.32	1.20296
2109.57	2.15551
2109.81	2.158
2110.05	2.16035
2110.3	3.11276
2110.54	1.21529
2110.78	1.21748
2111.02	3.11806
2111.27	-0.681822
2111.51	2.16809
2111.75	0.270073
2112	3.12169
2112.24	0.277609
2112.48	3.13157
2112.72	2.18707
2112.97	-0.655167
2113.21	0.301237
2113.45	1.25599
2113.7	2.20718
2113.94	3.15838
2114.18	1.26014
2114.42	2.21433
2114.67	-1.58432
2114.91	2.21854
2115.15	-0.631489
2115.39	3.17058
2115.64	2.22122
2115.88	3.16898
2116.12	2.21784
2116.36	2.21894
2116.61	1.27103
2116.85	1.27296
2117.09	3.17622
2117.34	0.327425
2117.58	0.327055
2117.82	1.27577
2118.06	-0.625109
2118.3	2.21813
2118.55	0.319389
2118.79	0.31809
2119.03	-1.57929
2119.28	3.15924
2119.52	2.21041
2119.76	2.2104
2120	-0.630116
2120.24	0.321274
2120.49	0.327503
2120.73	0.33247
2120.97	-0.608038
2121.22	-0.600512
2121.46	1.30362
2121.7	-0.58659
2121.94	1.31763
2122.18	0.374664
2122.43	1.32947
2122.67	3.23336
2122.91	-0.559278
2123.15	1.34293
2123.4	0.394958
2123.64	2.29404
2123.88	-0.553879
2124.12	1.34144
2124.36	2.28441
2124.61	2.2773
2124.85	6.06121
2125.09	2.26708
2125.33	0.369875
2125.58	1.314
2125.82	0.36557
2126.06	3.20311
2126.3	-1.52832
2126.55	2.25405
2126.79	1.3076
2127.03	2.25463
2127.27	1.31137
2127.51	5.09472
2127.76	-0.576384
2128	2.26172
2128.24	-1.51595
2128.48	2.2684
2128.72	-3.40072
2128.97	5.10764
2129.21	-0.561127
2129.45	0.3864
2129.69	3.22373
2129.93	0.390841
2130.18	4.17211
2130.42	0.39399
2130.66	1.33952
2130.9	3.22886
2131.14	-0.548788
2131.39	0.396309
2131.63	2.28626
2131.87	2.28691
2132.11	-0.545639
2132.35	0.398293
2132.6	1.34367
2132.84	-1.48371
2133.08	-0.535851
2133.32	-0.531721
2133.56	2.30295
2133.81	-2.41106
2134.05	1.36773
2134.29	0.426918
2134.53	3.26103
2134.77	0.432819
2135.01	1.37888
2135.26	4.21081
2135.5	2.32331
2135.74	1.37667
2135.98	3.26007
2136.22	2.31821
2136.47	-1.44761
2136.71	0.441919
2136.95	3.27441
2137.19	2.33792
2137.43	0.460222
2137.67	0.460854
2137.91	1.4015
2138.16	5.17137
2138.4	4.23855
2138.64	0.477224
2138.88	1.42843
2139.12	1.41885
2139.37	-0.468275
2139.61	1.41678
2139.85	2.35952
2140.09	0.476576
2140.33	2.362
2140.57	1.4223
2140.81	-0.459167
2141.06	1.42879
2141.3	-1.39732
2141.54	3.30944
2141.78	3.31175
2142.02	2.37444
2142.26	1.44159
2142.51	3.33158
2142.75	1.47139
2142.99	4.28772
2143.23	1.4078
2143.47	3.30144
2143.71	1.42817
2143.95	0.499821
2144.19	4.27231
2144.44	-0.423491
2144.68	3.32816
2144.92	-0.424797
2145.16	1.46006
2145.4	1.46255
2145.64	-0.415617
2145.88	3.34691
2146.13	0.52903
2146.37	2.41113
2146.61	1.47297
2146.85	0.534275
2147.09	0.535574
2147.33	1.47655
2147.57	1.47832
2147.81	0.540625
2148.06	-0.396883
2148.3	-2.27343
2148.54	2.42204
2148.78	2.42151
2149.02	-0.395365
2149.26	0.539373
2149.5	4.28996
2149.74	2.41269
2149.98	1.47527
2150.22	0.540098
2150.47	2.4186
2150.71	-0.387447
2150.95	1.49451
2151.19	-0.374454
2151.43	4.32105
2151.67	-0.362223
2151.91	0.581514
2152.15	0.582678
2152.4	-0.353848
2152.64	1.52182
2152.88	1.52274
2153.12	1.52508
2153.36	-0.347345
2153.6	0.590427
2153.84	0.589472
2154.08	4.33233
2154.32	0.582569
2154.56	1.51428
2154.8	2.44491
2155.05	1.5073
2155.29	2.44009
2155.53	1.50449
2155.77	0.5707
2156.01	0.572969
2156.25	-1.29202
2156.49	2.44823
2156.73	-0.349777
2156.97	0.590109
2157.21	3.40024
2157.45	2.47405
2157.69	-1.25759
2157.94	0.616644
2158.18	-0.314154
2158.42	2.49308
2158.66	0.626112
2158.9	2.49665
2159.14	1.56296
2159.38	0.628784
2159.62	1.56197
2159.86	4.36212
2160.1	1.56088
2160.34	3.42782
2160.58	1.56357
2160.82	3.43283
2161.06	1.56876
2161.3	-0.294668
2161.54	1.57481
2161.79	0.646111
2162.03	-1.21547
2162.27	2.52
2162.51	0.656425
2162.75	2.52356
2162.99	-0.272278
2163.23	1.59508
2163.47	-0.267727
2163.71	1.5989
2163.95	2.5303
2164.19	-0.266195
2164.43	3.46204
2164.67	-0.258896
2164.91	3.47408
2165.15	2.54681
2165.39	-0.244192
2165.63	-1.17159
2165.87	-0.237999
2166.12	0.696068
2166.35	0.697287
2166.6	3.49152
2166.84	2.56156
2167.08	2.56061
2167.32	-3.02557
2167.56	0.69146
2167.8	-0.242376
2168.04	-2.09948
2168.28	-0.235985
2168.52	0.699276
2168.76	1.6363
2169	2.57502
2169.24	-0.205555
2169.48	-1.12535
2169.72	1.67867
2169.96	-2.969
2170.2	3.55543
2170.44	-0.167046
2170.68	-3.89042
2170.92	0.766914
2171.16	2.6236
2171.4	-0.175989
2171.64	-1.10743
2171.88	0.752487
2172.12	-0.175659
2172.36	-0.173525
2172.6	0.759439
2172.84	1.69259
2173.08	2.62597
2173.32	1.70286
2173.56	-2.00735
2173.8	0.78652
2174.04	-1.06709
2174.28	3.5845
2174.52	0.800457
2174.76	-0.125019
2175	1.7368
2175.24	-4.76494
2175.48	2.67284
2175.72	1.74685
2175.96	-0.108889
2176.2	1.75078
2176.44	0.825148
2176.68	-1.95711
2176.92	1.7635
2177.16	-0.0898342
2177.4	0.843353
2177.64	1.77713
2177.88	-2.8653
2178.12	-0.0791168
2178.36	-0.0779476
2178.6	2.7115
2178.84	1.78829
2179.08	1.79299
2179.32	2.72606
2179.56	0.873386
2179.8	-0.0509071
2180.04	2.73827
2180.28	0.88448
2180.52	2.74449
2180.76	-1.89342
2181	2.75115
2181.24	1.82481
2181.48	-0.956976
2181.72	3.68627
2181.96	1.83213
2182.2	-1.87648
2182.44	1.8369
2182.68	0.90987
2182.92	-0.944948
2183.16	3.68973
2183.4	-0.0176716
2183.63	-0.0162315
2183.87	0.912357
2184.11	3.6957
2184.35	1.84797
2184.59	0.000921249
2184.83	-1.8468
2185.07	0.939482
2185.31	-0.907576
2185.55	0.02701
2185.79	1.88915
2186.03	2.82499
2186.27	0.979988
2186.51	0.0621319
2186.75	-1.78458
2186.99	1.93881
2187.23	0.0897312
2187.47	-0.834105
2187.71	0.0969257
2187.95	2.88373
2188.18	0.0989361
2188.43	0.0993614
2188.66	0.0992775
2188.9	1.02629
2189.14	1.95148
2189.38	1.02381
2189.62	-1.75523
2189.86	2.88374
2190.1	-0.819523
2190.34	1.96812
2190.58	1.97363
2190.82	-1.7304
2191.06	-1.72499
2191.3	1.99009
2191.54	1.99634
2191.78	-2.6349
2192.01	2.00854
2192.25	-1.69575
2192.49	1.09512
2192.73	2.03069
2192.97	0.18224
2193.21	0.190899
2193.45	2.99031
2193.69	3.93378
2193.93	1.15633
2194.17	3.02323
2194.41	-0.692787
2194.64	2.09836
2194.88	0.241745
2195.12	-2.54464
2195.36	1.17252
2195.6	1.17129
2195.84	-2.54501
2196.08	-1.61728
2196.32	0.239115
2196.56	0.240101
2196.8	-1.61382
2197.04	4.88062
2197.27	-0.679375
2197.51	1.18042
2197.75	3.04256
2197.99	-1.58719
2198.23	-2.50689
2198.47	2.14447
2198.71	3.08467
2198.95	1.2369
2199.19	-1.54027
2199.42	-1.53054
2199.66	-1.51773
2199.9	-0.573927
2200.14	2.23165
2200.38	-2.41324
2200.62	1.32244
2200.86	1.33147
2201.1	1.32585
2201.34	-0.551786
2201.58	-3.37204
2201.81	-4.31338
2202.05	-1.5124
2202.29	0.379498
2202.53	3.18568
2202.77	3.18432
2203.01	-0.534857
2203.25	-0.505251
2203.49	2.34243
2203.72	-0.472178
2203.96	1.39714
2204.2	-1.39526
2204.44	-3.26642
2204.68	0.44908
2204.92	2.29974
2205.16	-1.42526
2205.39	-0.493469
2205.63	2.30105
2205.87	-3.26971
2206.11	0.453297
2206.35	-0.477524
2206.59	2.31724
2206.83	-1.39481
2207.06	3.2628
2207.3	0.480783
2207.54	1.41949
2207.78	1.4279
2208.02	0.505236
2208.26	0.512774
2208.49	0.519617
2208.73	-5.06178
2208.97	1.46237
2209.21	1.46662
2209.45	0.539106
2209.69	2.40704
2209.93	-0.380424
2210.17	2.42123
2210.4	-2.23005
2210.64	1.50437
2210.88	1.5116
2211.12	-1.27755
2211.36	-0.337107
2211.6	-0.32937
2211.83	-1.25524
2212.07	0.615503
2212.31	-0.314344
2212.55	1.55343
2212.79	0.62336
2213.02	-0.308283
2213.26	1.55805
2213.5	0.631401
2213.74	0.639448
2213.98	2.5181
2214.22	0.662304
2214.45	0.66847
2214.69	-1.19282
2214.93	-1.18757
2215.17	2.55189
2215.41	0.689253
2215.65	-1.17384
2215.88	-3.97087
2216.12	1.63472
2216.36	-0.229212
2216.6	-2.09276
2216.84	0.712162
2217.07	-1.15009
2217.31	0.722126
2217.55	0.726084
2217.79	-0.203506
2218.03	-1.13217
2218.26	0.741369
2218.5	-0.185776
2218.74	-0.178482
2218.98	0.763191
2219.22	-2.03405
2219.45	0.77586
2219.69	-0.153048
2219.93	2.65423
2220.17	-1.08066
2220.41	-2.01169
2220.64	-0.140463
2220.88	-1.07502
2221.12	-1.07521
2221.36	-0.140909
2221.6	0.793516
2221.83	-2.00492
2222.07	-1.06761
2222.31	2.67208
2222.55	1.7455
2222.78	1.75242
2223.02	1.7599
2223.26	0.834538
2223.5	-1.02496
2223.74	-0.080946
2223.97	-0.0719299
2224.21	0.87174
2224.45	1.8154
2224.69	1.82368
2224.93	-2.84735
2225.16	0.906004
2225.4	1.85045
2225.64	-0.951429
2225.88	-0.943789
2226.11	0.936749
2226.35	0.00772285
2226.59	1.88991
2226.83	-0.915751
2227.07	0.0278912
2227.3	0.032959
2227.54	0.974094
2227.78	-0.898712
2228.02	-0.895878
2228.25	0.0445518
2228.49	-1.82736
2228.73	0.0507202
2228.96	-0.882668
2229.2	1.93747
2229.44	-1.805
2229.68	-0.859148
2229.92	-0.852316
2230.15	-0.845095
2230.39	2.91714
2230.63	1.98655
2230.87	-1.7615
2231.1	-2.69311
2231.34	-0.80728
2231.58	0.139811
2231.82	2.02714
2232.05	-0.78557
2232.29	1.10208
2232.53	2.99061
2232.77	1.11684
2233	0.1833
2233.24	0.190512
2233.48	2.07922
2233.71	-0.738592
2233.95	1.14654
2234.19	0.207785
2234.43	-1.67261
2234.66	1.15101
2234.9	1.148
2235.14	2.08785
2235.38	-4.48986
2235.61	1.15701
2235.85	1.16192
2236.09	-0.714203
2236.33	-0.709665
2236.56	-0.704702
2236.8	-1.63769
2237.04	-0.689266
2237.27	0.262648
2237.51	0.273819
2237.75	2.16868
2237.98	1.2353
2238.22	1.2441
2238.46	-1.57544
2238.7	-4.39635
2238.93	1.26865
2239.17	-0.616043
2239.41	0.328745
2239.65	-0.615776
2239.88	3.15547
2240.12	-0.613615
2240.36	-0.601095
2240.59	0.351181
2240.83	1.29958
2241.07	0.36105
2241.3	2.25358
2241.54	-0.572599
2241.78	-0.567272
2242.02	-0.561663
2242.25	3.22047
2242.49	3.22427
2242.73	-2.43688
2242.96	-0.547546
2243.2	4.17265
2243.44	0.400137
2243.67	3.23451
2243.91	-2.42326
2244.15	1.35856
2244.38	-2.40878
2244.62	1.37952
2244.86	-0.500059
2245.09	2.3428
2245.33	-0.485641
2245.57	1.41279
2245.81	-0.471285
2246.04	-1.41071
2246.28	2.3785
2246.52	-3.29166
2246.75	0.499344
2246.99	-2.33448
2247.23	1.45565
2247.46	0.512535
2247.7	1.46166
2247.94	1.46424
2248.17	1.46674
2248.41	0.523188
2248.65	-1.36655
2248.88	-1.36351
2249.12	0.53614
2249.36	1.48812
2249.59	-0.401581
2249.83	0.546125
2250.07	-0.399883
2250.3	-0.399681
2250.54	1.4914
2250.78	1.49183
2251.01	-1.34353
2251.25	-2.286
2251.49	0.554708
2251.72	1.50601
2251.96	-0.378874
2252.2	-0.371832
2252.43	-1.30888
2252.67	-4.1369
2252.91	0.60713
2253.14	-1.27895
2253.38	-0.3241
2253.61	-0.317457
2253.85	1.58554
2254.09	1.59149
2254.32	-2.19753
2254.56	-0.299397
2254.8	0.653543
2255.03	-2.18744
2255.27	-0.286816
2255.51	2.56227
2255.74	-0.275846
2255.98	1.62814
2256.22	2.58377
2256.45	-1.20538
2256.69	-0.249975
2256.92	0.705551
2257.16	1.66132
2257.4	1.66682
2257.63	2.62098
2257.87	0.726089
2258.11	0.730844
2258.34	2.63583
2258.58	-2.10765
2258.81	-1.15174
2259.05	0.753653
2259.29	1.70897
2259.52	-1.13651
2259.76	0.769697
2260	-1.12629
2260.23	2.68163
2260.47	-3.01702
2260.7	-1.10643
2260.94	-0.148371
2261.18	-0.144335
2261.41	-1.09126
2261.65	-1.08642
2261.88	1.77357
2262.12	1.77988
2262.36	1.78741
2262.59	2.74744
2262.83	0.851133
2263.06	-1.04553
2263.3	1.82318
2263.54	0.880533
2263.77	-0.0632515
2264.01	-0.0540028
2264.24	-1.95489
2264.48	-0.0382442
2264.72	1.87869
2264.95	1.88532
2265.19	0.934134
2265.42	-0.972327
2265.66	0.94001
2265.9	0.939493
2266.13	-0.970752
2266.37	-0.0166702
2266.6	0.937468
2266.84	1.89219
2267.08	2.84688
2267.31	-0.0145283
2267.55	1.89262
2267.78	-0.967483
2268.02	2.84906
2268.26	2.85339
2268.49	2.8597
2268.73	1.91352
2268.96	-2.84878
2269.2	2.88523
2269.43	1.93999
2269.67	0.0397167
2269.91	1.00368
2270.14	-1.8563
2270.38	2.92768
2270.61	0.0675926
2270.85	0.0739784
2271.08	2.94823
2271.32	-1.82729
2271.55	-0.864602
2271.79	0.0969448
2272.03	1.05747
2272.26	1.06172
2272.5	0.109335
2272.73	0.113712
2272.97	1.07493
2273.2	0.122366
2273.44	1.08371
2273.68	-0.826118
2273.91	1.09228
2274.15	1.09666
2274.38	1.10106
2274.62	-0.808945
2274.85	1.11019
2275.09	-0.800371
2275.32	-0.797183
2275.56	-0.791311
2275.79	3.04726
2276.03	-0.776772
2276.27	2.10501
2276.5	1.15378
2276.74	0.202604
2276.97	-0.747436
2277.21	-0.738023
2277.44	-0.728278
2277.68	-1.67874
2277.91	0.247559
2278.15	0.252111
2278.38	0.255634
2278.62	-1.66251
2278.85	3.14161
2279.09	-0.699845
2279.33	-1.66315
2279.56	-0.704665
2279.8	-0.705542
2280.03	0.253181
2280.27	3.12985
2280.5	2.17178
2280.74	1.21464
2280.97	-1.65977
2281.21	0.259401
2281.44	1.22309
2281.68	-2.60659
2281.91	-0.683591
2282.15	0.281982
2282.38	1.2485
2282.62	2.21557
2282.85	1.26479
2283.09	-0.644894
2283.32	2.24767
2283.56	3.22021
2283.79	1.30965
2284.03	1.31757
2284.26	-0.600406
2284.5	0.368769
2284.73	-0.586544
2284.97	-1.54432
2285.2	1.34632
2285.44	-1.54107
2285.67	-0.581028
2285.91	0.383831
2286.14	1.35039
2286.38	3.28158
2286.61	1.36912
2286.85	0.416168
2287.08	1.385
2287.32	3.31727
2287.55	3.32539
2287.79	-0.526266
2288.02	0.437927
2288.26	0.438757
2288.49	-1.4869
2288.73	-1.48828
2288.96	0.434095
2289.2	0.431398
2289.43	3.31288
2289.67	1.39066
2289.9	6.19914
2290.14	-2.44947
2290.37	1.39988
2290.61	1.40615
2290.84	-0.509125
2291.08	-1.46272
2291.31	-1.456
2291.55	0.475113
2291.78	-0.481241
2292.02	-2.40051
2292.25	1.45879
2292.48	-1.42397
2292.72	1.47271
2292.95	-1.41232
2293.19	-0.443467
2293.42	1.48836
2293.66	0.526579
2293.89	0.527939
2294.13	0.528624
2294.36	-1.39779
2294.6	1.49312
2294.83	-0.432112
2295.07	2.45787
2295.3	0.53306
2295.54	3.4226
2295.77	-0.429153
2296.01	1.49252
2296.24	-1.39101
2296.47	1.50024
2296.71	1.50629
2296.94	0.550634
2297.18	0.557981
2297.41	1.52943
2297.65	0.575495
2297.88	0.582495
2298.11	-0.375276
2298.35	2.52324
2298.58	-1.32511
2298.82	2.53906
2299.05	0.616751
2299.29	1.58624
2299.52	0.624922
2299.76	2.5576
2299.99	0.631557
2300.23	-0.327556
2300.46	0.643524
2300.69	1.61426
2300.93	-1.27583
2301.16	-1.27138
2301.4	0.662918
2301.63	-1.26472
2301.87	-0.297485
2302.1	-1.26
2302.33	-0.291055
2302.57	-2.21828
2302.8	-1.25046
2303.04	1.64801
2303.27	2.61704
2303.5	0.692169
2303.74	1.66406
2303.97	-0.260739
2304.21	1.67588
2304.44	-0.24946
2304.68	2.65501
2304.91	-2.16998
2305.14	0.732758
2305.38	-2.16101
2305.61	-1.18923
2305.85	-2.15046
2306.08	3.65299
2306.31	0.757154
2306.55	1.72702
2306.78	2.69648
2307.02	-0.201194
2307.25	-1.16592
2307.48	-0.197205
2307.72	-0.195249
2307.95	1.73938
2308.19	-0.189351
2308.42	-1.15102
2308.65	-0.178827
2308.89	-3.07197
2309.12	-0.164613
2309.36	0.811039
2309.59	1.78539
2309.82	2.75798
2310.06	-1.10757
2310.29	-0.137132
2310.53	4.70106
2310.76	2.7654
2310.99	-1.10843
2311.23	1.78363
2311.46	1.78088
2311.7	0.814972
2311.93	-1.11432
2312.16	-1.11336
2312.4	-0.146726
2312.63	2.7515
2312.86	-1.10251
2313.1	-2.0593
2313.33	0.846804
2313.56	0.855461
2313.8	-0.102101
2314.03	-0.0935421
2314.27	-0.0836306
2314.5	0.892433
2314.73	0.898998
2314.97	1.86461
2315.2	-0.0698776
2315.43	0.897316
2315.67	0.896284
2315.9	-2.00763
2316.14	1.85533
2316.37	0.890966
2316.6	0.89447
2316.84	1.86479
2317.07	-0.061882
2317.3	-1.01952
2317.54	0.918958
2317.77	0.916062
2318	-0.0481596
2318.24	0.91885
2318.47	-1.97624
2318.71	-1.00969
2318.94	-0.0430918
2319.17	-0.0410719
2319.41	0.926446
2319.64	1.89531
2319.87	-0.0303373
2320.11	0.938196
2320.34	-0.021266
2320.57	1.91538
2320.81	-0.00858498
2321.04	-0.00182056
2321.27	0.00548935
2321.51	1.9461
2321.74	0.989159
2321.97	2.93063
2322.21	1.96938
2322.44	0.0387964
2322.67	1.01027
2322.91	-0.918307
2323.14	1.98706
2323.37	-1.87571
2323.61	3.93048
2323.84	-0.901439
2324.07	1.03551
2324.31	4.90151
2324.54	3.93248
2324.77	2.96309
2325.01	0.0653
2325.24	1.99723
2325.47	1.99751
2325.71	1.99764
2325.94	1.9976
2326.17	6.82164
2326.41	2.96212
2326.64	2.96184
2326.87	5.85401
2327.1	11.6391
2327.34	8.74662
2327.57	20.3134
2327.8	28.0304
2328.04	24.179
2328.27	34.787
2328.5	19.3608
2328.74	19.3581
2328.97	11.6464
2329.2	7.79553
2329.44	5.87216
2329.67	9.73244
2329.9	5.88124
2330.13	4.92034
2330.37	8.77444
2330.6	2.99963
2330.83	3.96812
2331.07	1.08541
2331.3	-0.834653
2331.53	1.10036
2331.77	3.98887
2332	2.0629
2332.23	0.138202
2332.47	1.10287
2332.7	2.06735
2332.93	0.143733
2333.16	1.10851
2333.4	2.07339
2333.63	1.11247
2333.86	3.03792
2334.09	1.11302
2334.33	1.11462
2334.56	0.155206
2334.79	0.158738
2335.02	1.12339
2335.26	-0.795132
2335.49	0.171699
2335.72	-0.786641
2335.96	1.13891
2336.19	-0.781188
2336.42	1.1452
2336.66	-0.774362
2336.89	0.190327
2337.12	-0.767684
2337.35	1.15763
2337.59	1.16052
2337.82	-3.64222
2338.05	0.205877
2338.28	0.209456
2338.52	-1.70818
2338.75	4.06347
2338.98	0.222592
2339.21	1.18729
2339.45	-2.6545
2339.68	3.11384
2339.91	0.232184
2340.14	-1.68781
2340.38	0.233969
2340.61	-2.647
2340.84	1.19227
2341.07	1.18986
2341.31	0.229954
2341.54	5.02657
2341.77	0.232651
2342	1.1931
2342.24	1.19534
2342.47	2.1571
2342.7	2.16088
2342.93	5.04105
2343.17	0.251282
2343.4	-0.703794
2343.63	-1.65797
2343.86	0.264405
2344.1	1.22771
2344.33	-1.64466
2344.56	0.27566
2344.79	0.278053
2345.02	-0.678816
2345.26	1.23741
2345.49	2.19643
2345.72	1.23944
2345.95	-1.63047
2346.19	2.20329
2346.42	-0.666161
2346.65	-0.663401
2346.88	1.25438
2347.12	1.25824
2347.35	-2.5669
2347.58	1.25774
2347.81	-2.52529
2348.04	0.317102
2348.28	0.297242
2348.51	-2.37916
2348.74	3.90265
2348.97	0.260127
2349.2	1.35539
2349.44	-0.350193
2349.67	-1.34631
2349.9	2.9242
2350.13	1.08027
2350.37	0.133514
2350.6	-1.4743
2350.83	1.20598
2351.06	-1.96726
2351.29	0.340592
2351.53	0.549135
2351.76	-0.391842
2351.99	1.88505
2352.22	2.77487
2352.45	0.295585
2352.69	0.468659
2352.92	-1.98213
2353.15	-1.30204
2353.38	0.85869
2353.61	1.42425
2353.85	-1.00452
2354.08	2.18862
2354.31	-0.046834
2354.54	1.37082
2354.77	2.0668
2355.01	0.362045
2355.24	0.782137
2355.47	0.409708
2355.7	1.82532
2355.93	2.57577
2356.17	-0.20446
2356.4	0.49666
2356.63	2.55399
2356.86	-0.0646448
2357.09	2.11228
2357.32	0.0612621
2357.56	-0.767101
2357.79	-0.578889
2358.02	-0.225084
2358.25	1.9138
2358.48	0.794861
2358.71	1.40702
2358.95	-0.111599
2359.18	2.17195
2359.41	0.303671
2359.64	0.351568
2359.87	-0.418672
2360.1	1.02489
2360.34	0.0210657
2360.57	-1.38678
2360.8	0.808499
2361.03	0.633431
2361.26	0.141556
2361.49	-2.05407
2361.73	0.403424
2361.96	0.0441437
2362.19	-1.20502
2362.42	-2.08444
2362.65	-0.765289
2362.88	0.618556
2363.11	0.134377
2363.35	1.05854
2363.58	1.82213
2363.81	1.57439
2364.04	-1.52474
2364.27	0.674326
2364.5	-2.24986
2364.73	-0.166213
2364.97	-0.253976
2365.2	-1.19892
2365.43	-0.674713
2365.66	-1.20134
2365.89	0.0888186
2366.12	-0.251431
2366.36	2.16825
2366.59	0.56857
2366.82	0.41786
2367.05	-0.585926
2367.28	-0.0213366
2367.51	0.509042
2367.74	-0.132606
2367.97	-0.592319
2368.2	0.0789785
2368.44	-0.168944
2368.67	0.710665
2368.9	0.769292
2368.98	0.447489
2369.22	0.447705
2369.45	-2.38238
2369.69	-1.43892
2369.92	2.3326
2370.15	3.27491
2370.39	-0.4947
2370.62	-0.494064
2370.86	-1.43526
2371.09	2.33433
2371.33	1.39416
2371.56	-0.487677
2371.79	0.454727
2372.03	-0.485755
2372.26	-1.4261
2372.5	1.39871
2372.73	-0.481588
2372.97	-1.41996
2373.2	1.40553
2373.43	0.465447
2373.67	2.34638
2373.9	-2.35564
2374.14	1.40659
2374.37	-0.473162
2374.6	-1.41249
2374.84	1.40696
2375.07	-0.472155
2375.31	2.34766
2375.54	0.470842
2375.77	-0.466266
2376.01	-1.40361
2376.24	-0.464137
2376.48	4.23084
2376.71	1.41576
2376.94	0.47884
2377.18	1.41891
2377.41	0.480683
2377.65	1.41861
2377.88	0.481017
2378.11	0.480889
2378.35	-0.457043
2378.58	1.41789
2378.82	-1.39537
2379.05	-1.39732
2379.28	-0.462472
2379.52	0.473555
2379.75	0.474527
2379.98	1.41227
2380.22	-0.458728
2380.45	0.479141
2380.69	-1.39105
2380.92	1.41952
2381.15	-0.449795
2381.39	0.489554
2381.62	0.491935
2381.85	2.36525
2382.09	0.495294
2382.32	0.496969
2382.56	1.43386
2382.79	-0.436555
2383.02	1.43686
2383.26	-0.432823
2383.49	0.504712
2383.72	1.44256
2383.96	1.44498
2384.19	-0.424723
2384.42	-1.35911
2384.66	-2.29344
2384.89	-2.29319
2385.13	-2.29323
2385.36	-0.423469
2385.59	-0.425418
2385.83	-0.427379
2386.06	1.43994
2386.29	5.17294
2386.53	2.36706
2386.76	-0.436393
2386.99	0.493531
2387.23	1.4241
2387.46	0.49178
2387.69	0.493761
2387.93	1.42841
2388.16	-1.36887
2388.4	-1.36812
2388.63	2.36299
2388.86	0.497334
2389.1	0.498467
2389.33	0.499204
2389.56	-2.29763
2389.8	-1.36408
2390.03	1.43461
2390.26	-1.36109
2390.5	-0.426521
2390.73	0.508308
2390.96	1.44281
2391.2	2.37705
2391.43	-1.35311
2391.66	-1.35301
2391.9	1.44432
2392.13	-1.35366
2392.36	2.37482
2392.59	3.30105
2392.83	-4.15789
2393.06	2.35801
2393.3	-2.30318
2393.53	2.34745
2393.76	1.41418
2394	-2.30826
2394.23	0.47937
2394.46	-3.24407
2394.69	1.40701
2394.93	1.41021
2395.16	-0.444607
2395.39	1.4488
2395.63	-0.413153
2395.86	-0.413729
2396.09	2.39655
2396.33	1.47107
2396.56	1.45863
2396.79	-0.410343
2397.02	0.520987
2397.26	-1.3446
2397.49	2.38602
2397.73	0.520493
2397.96	0.519285
2398.19	-0.414405
2398.42	-0.415097
2398.66	4.24691
2398.89	-2.28202
2399.12	-1.34955
2399.36	-1.35018
2399.59	-1.35086
2399.82	-2.28453
