#Acq. time (s)=	30
#Accumulations=	2
#Range (cm-¹)=	1200...2365
#Windows=	3
#Auto scanning=	Off
#Autofocus=	Off
#Macrospot=	Off
#AutoExposure=	Off
#Spike filter=	Multiple accum.
#Delay time (s)=	2
#Binning=	1
#Readout mode=	Signal
#DeNoise=	Off
#ICS correction=	On
#Dark correction=	Off
#Inst. Process=	Off
#Detector Gain=	Best Dynamic
#Detector ADC=	50 kHz HS
#Detector temperature (°C)=	-60.09
#Instrument=	LabRAM HR Evol
#Detector=	SIN-EM FIVIS
#Objective=	x50_VIS_LWD
#Grating=	1800 (450-850nm)
#ND Filter=	100%
#Laser=	532nm_Edge
#Hole=	49.98
#Temperature=	0
#Range=	Visible
#StageXY=	75x50mm Scan+
#StageZ=	Z motor
#X (µm)=	0
#Y (µm)=	0
#Z (µm)=	-0.3
#Full time(mm:ss)=	3:18
#Project=	21_11_26
#Sample=	BU19(2)w
#Site=	
#Title=	BU19(2)w-A-FF02-FI02-V_1800 (450-850nm)_532nm_Edge_100%_x50_VIS_LWD_H50um_30sX2
#Remark=	
#Date=	26.11.2021 14:34
#Acquired=	26.11.2021 14:34:04
#Base:Fit=	16.12.2021 16:00:56
#Base:Fit=	16.12.2021 16:11:04
#Base:Sub=	16.12.2021 16:11:05
1202.72	2.54443
1203	0.463892
1203.28	-1.6528
1203.56	1.58938
1203.84	4.82178
1204.11	2.68192
1204.39	3.77092
1204.67	2.72288
1204.95	0.601112
1205.23	2.76969
1205.5	6.00536
1205.78	0.644304
1206.06	-3.64061
1206.34	2.80806
1206.61	0.67013
1206.89	1.74971
1207.17	2.82783
1207.45	4.97808
1207.73	1.77654
1208	-2.4941
1208.28	-0.339073
1208.56	1.8135
1208.84	0.752071
1209.11	1.83068
1209.39	-0.29917
1209.67	-0.286692
1209.95	0.796665
1210.23	-0.26012
1210.5	-0.251297
1210.78	-1.31714
1211.06	1.88968
1211.34	2.9608
1211.61	6.16349
1211.89	1.89799
1212.17	-0.235067
1212.45	0.831728
1212.72	-2.36247
1213	1.90239
1213.28	-2.35701
1213.56	2.97207
1213.83	1.91253
1214.11	-2.34323
1214.39	-1.26914
1214.67	0.868998
1214.94	-1.25247
1215.22	1.94837
1215.5	-0.175283
1215.78	-2.29944
1216.05	-1.23104
1216.33	1.96046
1216.61	-1.23618
1216.89	-0.179192
1217.16	-4.43722
1217.44	2.99824
1217.72	-0.193554
1218	-3.3839
1218.27	-1.26279
1218.55	-0.20426
1218.83	-0.207457
1219.1	-0.208475
1219.38	-4.45292
1219.66	-0.209543
1219.94	0.84915
1220.21	2.96645
1220.49	-0.215849
1220.77	0.845207
1221.04	-0.216927
1221.32	4.02201
1221.6	-3.4062
1221.88	1.8892
1222.15	-1.29976
1222.43	-1.31127
1222.71	-0.2659
1222.98	3.95214
1223.26	-0.296341
1223.54	-1.36843
1223.81	0.731993
1224.09	1.77582
1224.37	-0.350023
1224.65	-2.472
1224.92	-1.4247
1225.2	0.679106
1225.48	-1.43699
1225.76	-0.382492
1226.03	-0.384247
1226.31	-3.55343
1226.59	2.77553
1226.86	0.656466
1227.14	-1.46551
1227.42	-2.53105
1227.69	1.66983
1227.97	1.63591
1228.25	4.77184
1228.52	-2.62136
1228.8	-0.548214
1229.08	-2.67719
1229.35	-1.63543
1229.63	0.527706
1229.91	1.63525
1230.18	-2.61802
1230.46	2.61883
1230.74	3.6535
1231.01	-1.61784
1231.29	0.464209
1231.57	0.401073
1231.84	-2.7549
1232.12	1.43924
1232.4	-1.72293
1232.67	0.366346
1232.95	2.45784
1233.23	-1.75541
1233.5	0.333652
1233.78	-1.77748
1234.06	1.3658
1234.33	-1.79315
1234.61	-1.80048
1234.89	-0.755867
1235.16	4.4936
1235.44	-0.769608
1235.71	-2.87992
1235.99	-3.9387
1236.27	-4.99876
1236.54	-0.804192
1236.82	1.28425
1237.1	2.31992
1237.37	3.35327
1237.65	0.180155
1237.93	-1.94129
1238.2	0.137836
1238.48	-1.98235
1238.76	0.0950203
1239.03	0.0758953
1239.31	0.0594845
1239.58	-2.0528
1239.86	3.17428
1240.14	2.11221
1240.41	-3.14162
1240.69	-1.0573
1240.97	-2.11679
1241.24	-2.12751
1241.52	2.05463
1241.79	-4.24955
1242.07	-0.073967
1242.35	0.958471
1242.62	5.13835
1242.9	0.936035
1243.18	-2.21674
1243.45	0.919029
1243.73	3.00263
1244	0.893875
1244.28	4.02821
1244.56	1.91853
1244.83	2.95218
1245.11	3.98459
1245.39	2.91702
1245.66	2.8965
1245.94	4.9677
1246.21	3.89698
1246.49	3.87963
1246.76	1.77081
1247.04	4.8983
1247.32	1.74465
1247.59	-2.45724
1247.87	4.85562
1248.14	3.79267
1248.42	5.86013
1248.7	2.70292
1248.97	0.5968
1249.25	3.72336
1249.52	0.574934
1249.8	1.606
1250.08	4.72974
1250.35	-2.60404
1250.63	2.60605
1250.9	4.67607
1251.18	4.65584
1251.45	3.59152
1251.73	2.5283
1252.01	4.59933
1252.28	3.53608
1252.56	1.42907
1252.83	6.63084
1253.11	-3.82734
1253.39	3.46046
1253.66	2.40112
1253.94	3.43214
1254.21	5.51192
1254.49	2.37408
1254.76	2.36815
1255.04	4.44667
1255.31	5.47832
1255.59	6.51276
1255.87	-1.85386
1256.14	2.30928
1256.42	7.5197
1256.69	7.51021
1256.97	8.54767
1257.24	6.44812
1257.52	10.6121
1257.79	11.6387
1258.07	8.49028
1258.35	9.51956
1258.62	11.5925
1258.9	7.40024
1259.17	6.33612
1259.45	6.32341
1259.72	11.5348
1260	10.485
1260.27	10.4895
1260.55	16.7326
1260.82	14.6224
1261.1	17.7257
1261.37	22.9192
1261.65	23.9426
1261.92	24.9819
1262.2	28.1509
1262.48	31.3507
1262.75	38.7007
1263.02	44.8462
1263.3	41.6171
1263.58	38.4458
1263.85	45.807
1264.13	40.6306
1264.4	31.2754
1264.68	28.1568
1264.95	18.7019
1265.23	13.454
1265.5	19.7145
1265.78	13.4297
1266.05	10.2772
1266.33	11.3117
1266.6	15.4843
1266.88	16.5254
1267.15	12.3429
1267.43	13.3882
1267.7	7.11512
1267.98	10.2543
1268.25	9.2112
1268.53	9.21876
1268.8	9.22327
1269.08	9.2215
1269.35	7.12325
1269.63	11.3099
1269.9	11.2985
1270.18	10.2332
1270.45	11.2596
1270.73	8.10145
1271	5.99049
1271.28	9.11552
1271.55	9.10452
1271.83	10.1375
1272.1	11.1786
1272.38	13.2731
1272.65	12.2301
1272.93	4.90661
1273.2	3.85999
1273.47	11.1962
1273.75	8.05486
1274.03	10.154
1274.3	13.3032
1274.57	11.2051
1274.85	10.1508
1275.12	12.24
1275.4	6.98855
1275.67	13.2799
1275.95	13.28
1276.22	6.98446
1276.5	15.3837
1276.77	10.1362
1277.05	14.3376
1277.32	15.3877
1277.6	13.2916
1277.87	20.6509
1278.14	16.4531
1278.42	21.7122
1278.69	19.6133
1278.97	18.57
1279.24	25.9352
1279.52	24.8869
1279.79	30.1384
1280.07	31.1803
1280.34	38.5303
1280.61	46.9365
1280.89	65.8698
1281.16	80.6006
1281.44	104.823
1281.71	139.592
1281.99	198.558
1282.26	278.547
1282.53	380.684
1282.81	483.904
1283.08	636.449
1283.36	681.36
1283.63	719.631
1283.91	635.288
1284.18	486.055
1284.45	324.415
1284.73	194.505
1285	154.5
1285.28	96.5403
1285.55	69.0932
1285.83	55.3699
1286.1	44.8404
1286.37	34.3232
1286.65	34.3203
1286.92	29.0419
1287.2	24.8275
1287.47	22.7166
1287.75	21.6545
1288.02	15.329
1288.29	17.4273
1288.57	16.373
1288.84	15.3205
1289.12	16.375
1289.39	18.486
1289.66	12.1767
1289.94	5.86546
1290.21	9.03175
1290.49	7.98436
1290.76	14.3042
1291.03	10.0859
1291.31	10.0834
1291.58	9.02944
1291.86	7.97581
1292.13	14.2936
1292.4	7.97508
1292.68	10.0844
1292.95	5.86979
1293.22	7.97387
1293.5	7.97651
1293.77	6.936
1294.05	10.1138
1294.32	4.85966
1294.59	2.75581
1294.87	6.97538
1295.14	6.97431
1295.42	5.92778
1295.69	-0.386225
1295.96	7.02116
1296.24	5.99267
1296.51	2.83878
1296.79	7.07232
1297.06	2.84755
1297.33	6.01723
1297.61	4.95696
1297.88	7.06571
1298.15	4.94771
1298.43	8.10962
1298.7	1.78034
1298.97	7.06127
1299.25	2.83508
1299.52	6.00131
1299.79	4.94361
1300.07	2.8358
1300.34	8.12394
1300.62	-0.315113
1300.89	10.2486
1301.16	9.19507
1301.44	4.9747
1301.71	-0.298475
1301.98	10.2713
1302.25	6.05729
1302.53	2.8962
1302.8	5.01466
1303.08	7.13187
1303.35	0.797094
1303.62	1.85516
1303.9	2.9109
1304.17	0.80337
1304.44	8.20127
1304.72	1.87137
1304.99	3.98866
1305.26	2.93476
1305.54	2.93516
1305.81	-2.34288
1306.08	-1.28745
1306.35	5.04159
1306.63	-0.232107
1306.9	1.88118
1307.18	1.88788
1307.45	1.8975
1307.72	-0.204077
1308	-1.25206
1308.27	4.02854
1308.54	2.98294
1308.81	1.93375
1309.09	2.99779
1309.36	-2.26416
1309.63	4.07801
1309.91	4.09074
1310.18	1.99122
1310.45	5.16454
1310.73	8.33641
1311	-1.15254
1311.27	4.13372
1311.55	4.14415
1311.82	0.988104
1312.09	-1.11166
1312.37	-0.0421638
1312.64	1.02697
1312.91	-3.18552
1313.18	-0.00967216
1313.46	5.27375
1313.73	1.05929
1314	2.12183
1314.28	-1.03729
1314.55	1.08352
1314.82	-2.07147
1315.09	-1.00308
1315.37	-4.15694
1315.64	3.24802
1315.91	1.15042
1316.18	0.108576
1316.46	1.17412
1316.73	-1.98543
1317	2.24857
1317.28	-0.909578
1317.55	-0.898542
1317.82	0.172773
1318.09	-0.869505
1318.37	0.200066
1318.64	0.212656
1318.91	0.224852
1319.18	1.29308
1319.46	1.30402
1319.73	-2.91095
1320	-5.01269
1320.28	-1.82966
1320.55	3.4651
1320.82	-2.86281
1321.09	1.3708
1321.37	-1.79142
1321.64	-2.84218
1321.91	0.328501
1322.18	0.336121
1322.46	-0.714102
1322.73	-2.81447
1323	3.52274
1323.27	-1.74113
1323.55	1.42975
1323.82	-0.662237
1324.09	-1.70201
1324.36	-1.68794
1324.64	0.433737
1324.91	-0.606525
1325.18	1.51534
1325.45	6.80373
1325.73	-1.62506
1326	-2.67676
1326.27	2.58843
1326.54	-0.576393
1326.81	1.53407
1327.09	1.54628
1327.36	0.51844
1327.63	1.60518
1327.9	-3.6366
1328.18	0.602179
1328.45	-1.48015
1328.72	-0.400026
1328.99	2.78895
1329.27	1.75202
1329.54	3.87351
1329.81	-1.38298
1330.08	-0.313644
1330.35	2.86455
1330.63	-1.343
1330.9	2.88625
1331.17	-4.48579
1331.44	3.95544
1331.71	-0.255428
1331.99	0.801691
1332.26	0.807901
1332.53	0.816124
1332.8	-2.33292
1333.07	-1.27349
1333.35	-2.31788
1333.62	3.99722
1333.89	0.851696
1334.16	-0.190325
1334.43	0.869055
1334.71	-0.171478
1334.98	1.93821
1335.25	5.09753
1335.52	-0.138191
1335.79	1.97203
1336.07	-2.21158
1336.34	-4.29586
1336.61	5.15546
1336.88	5.16857
1337.15	3.08572
1337.43	-0.0442314
1337.7	1.01935
1337.97	-3.15813
1338.24	-3.14615
1338.51	0.00880814
1338.78	3.16504
1339.06	0.036396
1339.33	1.09873
1339.6	2.16324
1339.87	2.18273
1340.14	-0.938732
1340.42	1.17487
1340.69	-0.899952
1340.96	3.3087
1341.23	4.37406
1341.5	3.34422
1341.77	0.219444
1342.04	0.235298
1342.32	2.34359
1342.59	3.40302
1342.86	2.36763
1343.13	3.42516
1343.4	3.44015
1343.67	-1.77223
1343.95	-0.707861
1344.22	0.357193
1344.49	-1.71448
1344.76	2.48853
1345.03	-1.67759
1345.3	2.52032
1345.58	1.48819
1345.85	-0.591085
1346.12	2.55644
1346.39	0.477493
1346.66	1.52771
1346.93	0.495064
1347.2	-3.66611
1347.47	3.64739
1347.75	1.57384
1348.02	-1.53849
1348.29	0.563284
1348.56	1.62355
1348.83	-1.48456
1349.1	4.78406
1349.37	2.71527
1349.65	0.646902
1349.92	3.78684
1350.19	1.7196
1350.46	3.8175
1350.73	4.87362
1351	-0.316273
1351.27	2.81908
1351.54	2.83529
1351.81	3.88872
1352.09	2.86767
1352.36	1.84852
1352.63	6.03287
1352.9	1.90048
1353.17	2.97099
1353.44	0.915752
1353.71	-2.16417
1353.98	7.26253
1354.25	3.08623
1354.53	-1.09637
1354.8	-0.0618153
1355.07	7.23605
1355.34	5.18231
1355.61	6.23178
1355.88	2.09333
1356.15	1.08588
1356.42	1.10993
1356.69	4.24235
1356.96	4.26131
1357.24	5.31929
1357.51	5.33824
1357.78	1.20275
1358.05	2.25883
1358.32	6.42824
1358.59	7.48241
1358.86	4.38597
1359.13	6.47699
1359.4	5.45579
1359.67	4.43652
1359.94	7.566
1360.22	2.39618
1360.49	1.37384
1360.76	6.56937
1361.03	3.47803
1361.3	3.49826
1361.57	5.59211
1361.84	4.57776
1362.11	5.63446
1362.38	6.68907
1362.65	10.8503
1362.92	7.76325
1363.19	7.78492
1363.46	8.84533
1363.73	5.76728
1364	5.79414
1364.28	9.96456
1364.55	15.1665
1364.82	12.0794
1365.09	8.99135
1365.36	11.0793
1365.63	7.98837
1365.9	4.89842
1366.17	9.05393
1366.44	8.03478
1366.71	11.153
1366.98	8.06352
1367.25	6.00784
1367.52	10.1604
1367.79	9.14676
1368.06	12.2753
1368.33	14.3689
1368.6	16.4621
1368.87	37.1637
1369.15	50.6307
1369.41	33.0836
1369.68	24.8391
1369.95	11.4162
1370.23	11.4356
1370.5	11.4549
1370.77	14.5691
1371.04	11.4878
1371.31	16.67
1371.58	12.5509
1371.85	9.46458
1372.12	10.5066
1372.39	9.48513
1372.66	14.6532
1372.93	14.6665
1373.2	13.6526
1373.47	12.6405
1373.74	11.6288
1374.01	9.58788
1374.28	9.60873
1374.55	15.8119
1374.82	14.8028
1375.09	10.7029
1375.36	14.8424
1375.63	17.9579
1375.9	11.8058
1376.17	12.859
1376.44	13.9152
1376.71	17.0192
1376.98	10.8546
1377.25	17.043
1377.52	13.9628
1377.79	15.0206
1378.06	17.1133
1378.33	17.1537
1378.6	17.1982
1378.87	18.2757
1379.14	18.3068
1379.41	25.5461
1379.68	20.4093
1379.95	20.4269
1380.22	25.594
1380.49	21.4764
1380.76	22.4928
1381.03	25.5816
1381.3	28.6722
1381.57	29.7334
1381.84	27.6869
1382.11	38.9928
1382.38	30.7671
1382.65	34.8757
1382.92	45.1433
1383.19	53.3499
1383.46	41.0423
1383.73	47.2006
1384	57.4655
1384.27	67.7302
1384.54	81.0856
1384.81	94.4482
1385.08	116.03
1385.34	166.357
1385.61	219.818
1385.88	308.184
1386.15	484.875
1386.42	733.464
1386.69	1094.14
1386.96	1540.06
1387.23	1596.55
1387.5	1266.87
1387.77	750.186
1388.04	446.205
1388.31	255.859
1388.58	171.282
1388.85	124.465
1389.12	96.9655
1389.39	77.5574
1389.66	56.0269
1389.93	50.9257
1390.2	45.7918
1390.46	44.7361
1390.73	33.4559
1391	41.6807
1391.27	34.5036
1391.54	30.4229
1391.81	27.3675
1392.08	27.3798
1392.35	24.3176
1392.62	27.4031
1392.89	25.3706
1393.16	18.2215
1393.43	24.3822
1393.7	19.2835
1393.97	20.3268
1394.23	18.3002
1394.5	17.2977
1394.77	17.3189
1395.04	18.3641
1395.31	19.4155
1395.58	21.4932
1395.85	21.522
1396.12	17.4532
1396.39	21.57
1396.66	21.5898
1396.93	16.491
1397.2	18.5561
1397.46	16.5256
1397.73	11.4273
1398	13.4932
1398.27	14.539
1398.54	11.4963
1398.81	8.45479
1399.08	14.6187
1399.35	18.7366
1399.62	14.6738
1399.89	17.7714
1400.16	14.728
1400.42	13.7275
1400.69	16.8267
1400.96	17.8838
1401.23	15.8638
1401.5	18.9575
1401.77	13.865
1402.04	10.8154
1402.31	11.8743
1402.58	16.017
1402.84	18.1148
1403.11	11.9989
1403.38	19.2182
1403.65	12.0611
1403.92	14.1377
1404.19	19.2854
1404.46	18.2592
1404.73	11.1061
1404.99	17.2815
1405.26	21.403
1405.53	14.2387
1405.8	26.5603
1406.07	20.423
1406.34	30.69
1406.61	36.8574
1406.87	34.8255
1407.14	39.9759
1407.41	49.2287
1407.68	57.4586
1407.95	59.5366
1408.22	76.9938
1408.49	82.1489
1408.76	81.1524
1409.02	75.0297
1409.29	66.8566
1409.56	55.604
1409.83	41.2722
1410.1	31.0399
1410.37	20.8042
1410.63	22.8694
1410.9	13.6514
1411.17	16.7379
1411.44	18.8008
1411.71	11.6437
1411.98	17.8084
1412.25	5.53553
1412.51	15.8075
1412.78	10.7157
1413.05	13.8344
1413.32	12.8717
1413.59	7.7775
1413.86	10.8569
1414.12	12.887
1414.39	12.9164
1414.66	5.77763
1414.93	10.9453
1415.2	8.91174
1415.47	9.96109
1415.73	8.95627
1416	5.89857
1416.27	6.94923
1416.54	9.02705
1416.81	10.0786
1417.07	9.07612
1417.34	0.88327
1417.61	9.12611
1417.88	6.06831
1418.15	11.2288
1418.42	7.14053
1418.68	5.10762
1418.95	6.15779
1419.22	5.15153
1419.49	10.3118
1419.76	7.24666
1420.02	6.23509
1420.29	8.30507
1420.56	10.3748
1420.83	5.25508
1421.1	2.19049
1421.36	5.28633
1421.63	2.22578
1421.9	9.43276
1422.17	9.46142
1422.44	6.41115
1422.7	7.46822
1422.97	6.47603
1423.24	7.54854
1423.51	9.65344
1423.77	4.4659
1424.04	8.53494
1424.31	5.48663
1424.58	3.43298
1424.85	4.4779
1425.11	9.62935
1425.38	7.61939
1425.65	9.69444
1425.92	7.65935
1426.19	3.58547
1426.45	5.65545
1426.72	4.6451
1426.99	4.65854
1427.26	6.72185
1427.52	5.70895
1427.79	0.596146
1428.06	4.70532
1428.33	4.72108
1428.59	3.7152
1428.86	2.7112
1429.13	5.80405
1429.4	3.7776
1429.67	5.84824
1429.93	7.92032
1430.2	3.84743
1430.47	5.9229
1430.74	-0.202692
1431	5.9749
1431.27	3.95381
1431.54	5.00731
1431.81	5.03079
1432.07	5.04989
1432.34	1.98581
1432.61	4.05145
1432.87	3.04088
1433.14	3.05285
1433.41	4.08817
1433.68	4.09675
1433.95	4.10609
1434.21	4.11886
1434.48	3.11105
1434.75	0.0669613
1435.01	3.1636
1435.28	2.15837
1435.55	-0.897318
1435.82	5.26884
1436.08	2.21207
1436.35	2.22892
1436.62	2.24558
1436.89	7.38412
1437.15	4.32649
1437.42	6.39104
1437.69	1.28709
1437.95	5.39934
1438.22	3.36774
1438.49	2.36267
1438.76	4.43247
1439.02	5.47685
1439.29	8.56886
1439.56	0.391758
1439.82	5.5359
1440.09	7.6091
1440.36	2.50805
1440.63	2.52821
1440.89	1.52161
1441.16	5.64106
1441.43	5.65977
1441.69	0.547895
1441.96	2.61242
1442.23	1.60244
1442.49	2.64919
1442.76	0.616001
1443.03	5.7652
1443.3	1.67684
1443.56	0.664867
1443.83	2.72928
1444.1	2.74384
1444.36	6.86011
1444.63	4.82818
1444.9	3.8262
1445.16	3.84835
1445.43	2.84614
1445.7	2.86086
1445.97	6.9787
1446.23	3.91547
1446.5	-0.172937
1446.77	3.94444
1447.03	-0.143452
1447.3	2.94768
1447.57	1.93625
1447.83	0.924349
1448.1	2.98867
1448.37	3.00444
1448.63	4.04959
1448.9	4.07056
1449.17	3.06206
1449.43	1.02615
1449.7	2.06578
1449.97	3.10412
1450.23	1.06549
1450.5	2.10285
1450.77	4.16659
1451.03	6.23022
1451.3	4.19379
1451.57	4.20711
1451.83	1.14587
1452.1	2.18381
1452.37	-0.876341
1452.63	0.162455
1452.9	4.27584
1453.17	4.29191
1453.43	1.2354
1453.7	2.27693
1453.97	-0.782597
1454.23	3.32992
1454.5	2.31868
1454.77	0.283957
1455.03	-1.75089
1455.3	2.3619
1455.56	3.39961
1455.83	2.38982
1456.1	-0.666653
1456.36	-0.650684
1456.63	1.4134
1456.9	-0.623819
1457.16	0.411974
1457.43	2.47212
1457.7	3.50913
1457.96	2.49728
1458.23	3.5347
1458.49	-1.57322
1458.76	3.56304
1459.03	2.55356
1459.29	-0.505245
1459.56	-0.491003
1459.82	0.547552
1460.09	2.60948
1460.36	1.59711
1460.62	1.60911
1460.89	-0.427795
1461.16	-0.416422
1461.42	2.66687
1461.69	-0.394594
1461.95	2.68752
1462.22	-1.39761
1462.49	-1.38765
1462.75	1.69185
1463.02	0.677467
1463.28	-2.38256
1463.55	-0.328283
1463.82	2.74794
1464.08	-0.307213
1464.35	-0.289038
1464.61	1.77809
1464.88	0.774162
1465.15	0.795534
1465.41	2.84005
1465.68	-0.249552
1465.94	1.78945
1466.21	1.79977
1466.48	1.81806
1466.74	2.84906
1467.01	-0.208757
1467.27	0.821049
1467.54	1.85509
1467.8	0.845589
1468.07	1.87631
1468.34	0.867199
1468.6	1.89869
1468.87	2.92999
1469.13	0.900499
1469.4	-0.109638
1469.67	1.93927
1469.93	-1.11172
1470.2	0.93446
1470.46	0.942305
1470.73	0.951078
1470.99	-2.09653
1471.26	3.00767
1471.53	-1.05876
1471.79	4.04164
1472.06	-1.04208
1472.32	1.00431
1472.59	-0.00370216
1472.85	1.02494
1473.12	3.07164
1473.39	-0.991653
1473.65	0.0346394
1473.92	2.07837
1474.18	1.06891
1474.45	-0.957153
1474.71	1.08861
1474.98	0.0830212
1475.24	1.11243
1475.51	3.15869
1475.78	3.16836
1476.04	0.123608
1476.31	-0.886135
1476.57	-2.91258
1476.84	-0.868977
1477.1	-2.89607
1477.37	-2.88849
1477.63	1.18821
1477.9	-0.836498
1478.16	0.189846
1478.43	0.19759
1478.69	0.203878
1478.96	1.22746
1479.22	-1.8147
1479.49	1.24072
1479.76	-2.81721
1480.02	-0.779362
1480.29	1.25767
1480.55	-3.81566
1480.82	2.27921
1481.08	-1.77427
1481.35	-0.751871
1481.61	-2.77447
1481.88	-1.74949
1482.14	-0.723238
1482.41	0.30368
1482.67	-1.71398
1482.94	-0.687374
1483.2	1.35195
1483.47	-2.69857
1483.73	2.38846
1484	0.366262
1484.26	2.40512
1484.53	0.375723
1484.79	2.40341
1485.06	-0.649242
1485.32	0.348883
1485.59	-2.68596
1485.85	0.343554
1486.12	1.40551
1486.38	-1.62123
1486.65	1.4342
1486.91	-1.61551
1487.18	2.45347
1487.44	1.45108
1487.71	-2.59885
1487.97	2.47003
1488.24	-0.563025
1488.5	-1.57047
1488.77	-1.56611
1489.03	1.47419
1489.3	-1.55739
1489.56	0.472147
1489.83	0.478216
1490.09	0.484535
1490.36	3.52687
1490.62	-1.52426
1490.89	2.5273
1491.15	-4.5486
1491.42	-0.499233
1491.68	1.52851
1491.95	-1.49815
1492.21	-0.480076
1492.48	-0.472273
1492.74	1.55624
1493	-0.459728
1493.27	0.557577
1493.53	0.564432
1493.8	0.570034
1494.06	-0.434666
1494.33	1.59397
1494.59	-1.43084
1494.86	-0.411892
1495.12	1.61593
1495.39	-1.41289
1495.65	-0.400431
1495.92	1.62037
1496.18	-0.398273
1496.45	4.65345
1496.71	0.618618
1496.97	1.63214
1497.24	-1.39203
1497.5	-2.39527
1497.77	1.6478
1498.03	-1.37482
1498.3	-0.360006
1498.56	1.66453
1498.82	-0.347578
1499.09	1.6774
1499.35	-0.334568
1499.62	1.69105
1499.88	-1.32998
1500.15	1.70571
1500.41	0.702456
1500.68	-1.31123
1500.94	2.73202
1501.2	0.717863
1501.47	-0.287947
1501.73	1.73275
1502	0.727821
1502.26	-0.276487
1502.52	0.737228
1502.79	0.74082
1503.05	-1.27527
1503.32	1.75262
1503.58	0.747101
1503.85	-0.259302
1504.11	-2.27093
1504.37	-2.26456
1504.64	-2.25896
1504.9	-0.237078
1505.17	-1.24137
1505.43	0.778444
1505.7	0.78055
1505.96	-0.227541
1506.22	1.78633
1506.49	-0.225204
1506.75	4.81602
1507.02	4.82151
1507.28	-0.208979
1507.54	-3.22683
1507.81	-2.2141
1508.07	0.813246
1508.34	2.83163
1508.6	-1.19543
1508.86	0.824326
1509.13	2.84443
1509.39	0.833603
1509.66	1.84513
1509.92	-4.19667
1510.18	0.847462
1510.45	0.85261
1510.71	-0.154377
1510.98	-1.16107
1511.24	-1.16079
1511.5	-2.16819
1511.77	-2.17021
1512.03	-0.162043
1512.29	-0.166903
1512.56	1.83867
1512.82	-0.174587
1513.08	-1.1796
1513.35	0.828619
1513.61	-0.175117
1513.88	-0.172997
1514.14	0.83835
1514.4	3.86182
1514.67	0.853544
1514.93	-3.16284
1515.2	0.85421
1515.46	-0.151154
1515.72	-3.16318
1515.99	-1.1573
1516.25	-1.15879
1516.51	3.85548
1516.78	3.85654
1517.04	-1.15564
1517.3	-0.151031
1517.57	-1.15115
1517.83	1.85992
1518.09	-0.1413
1518.36	1.87031
1518.62	-0.131826
1518.88	-0.127888
1519.15	0.878881
1519.41	-1.12327
1519.67	1.89035
1519.94	3.90049
1520.2	-2.11711
1520.47	0.893694
1520.73	0.894972
1520.99	0.898434
1521.26	2.90916
1521.52	0.90654
1521.78	-2.10073
1522.05	-1.09561
1522.31	0.91185
1522.57	0.912167
1522.84	1.91535
1523.1	-0.0903015
1523.36	-0.0908699
1523.62	1.91131
1523.89	1.9061
1524.15	3.90695
1524.41	-3.10679
1524.68	2.90162
1524.94	3.90181
1525.2	-0.0996494
1525.47	2.90742
1525.73	-1.09608
1525.99	-1.09203
1526.26	0.916286
1526.52	0.922649
1526.78	-0.0743828
1527.05	-0.071413
1527.31	0.932217
1527.57	-0.0708923
1527.84	-0.0703754
1528.1	0.93186
1528.36	2.93596
1528.63	1.93324
1528.89	-1.07266
1529.15	1.93246
1529.41	-1.07205
1529.68	0.932291
1529.94	-0.0691166
1530.2	-1.07188
1530.47	-1.0713
1530.73	-0.0672112
1530.99	2.94233
1531.25	-0.0581856
1531.52	-0.0545444
1531.78	1.95101
1532.04	-2.05707
1532.31	2.95442
1532.57	0.949089
1532.83	-2.05389
1533.09	-0.0445671
1533.36	0.964842
1533.62	-2.03765
1533.88	-0.0285969
1534.15	-3.03593
1534.41	-2.0321
1534.67	0.977158
1534.94	-0.0264778
1535.2	-1.03042
1535.46	0.974548
1535.72	-2.03603
1535.99	-3.04474
1536.25	0.959192
1536.51	0.955854
1536.77	0.950415
1537.04	-2.0583
1537.3	-2.06254
1537.56	-0.0631599
1537.82	-1.06674
1538.09	-0.0659332
1538.35	3.93128
1538.61	-1.0734
1538.87	0.924643
1539.14	-2.07537
1539.4	-0.0715466
1539.66	0.938412
1539.92	-2.05202
1540.19	-1.04296
1540.45	-0.0342598
1540.71	2.98043
1540.97	-0.0223637
1541.24	0.982416
1541.5	1.97772
1541.76	-2.03271
1542.02	0.969742
1542.29	1.96729
1542.55	-1.04225
1542.81	0.956617
1543.07	5.95828
1543.34	-0.0524483
1543.6	-0.0566101
1543.86	0.938274
1544.12	-0.0678177
1544.39	-0.0672932
1544.65	-2.06682
1544.91	0.936977
1545.17	-1.05935
1545.43	-1.05628
1545.7	-0.0492115
1545.96	-1.04749
1546.22	-1.04586
1546.48	1.96063
1546.74	-2.04754
1547.01	1.95958
1547.27	-1.04428
1547.53	0.960993
1547.79	-0.0397186
1548.06	1.95986
1548.32	-2.05555
1548.58	-1.05481
1548.84	-0.0532074
1549.1	-1.05067
1549.37	-0.0647316
1549.63	1.91719
1549.89	-0.0865746
1550.15	-0.0781384
1550.42	-2.06403
1550.68	1.96743
1550.94	-0.0205402
1551.2	-2.01468
1551.46	1.99082
1551.73	1.99182
1551.99	-0.0205288
1552.25	1.98067
1552.51	0.983971
1552.77	0.990217
1553.03	2.9957
1553.3	-1.02697
1553.56	1.97078
1553.82	-1.04259
1554.08	2.96743
1554.34	0.956749
1554.61	0.950745
1554.87	-0.0583935
1555.13	-2.06908
1555.39	0.933352
1555.65	4.93798
1555.91	0.929876
1556.18	0.929842
1556.44	1.93066
1556.7	-1.07823
1556.96	1.92572
1557.22	1.92572
1557.48	-0.0779896
1557.75	-3.08433
1558.01	0.920635
1558.27	1.91774
1558.53	-1.09309
1558.79	0.903746
1559.06	-0.104124
1559.32	0.889893
1559.58	0.8839
1559.84	-0.121136
1560.1	-1.12511
1560.36	0.870428
1560.63	-3.13067
1560.89	-0.135017
1561.15	-1.13678
1561.41	-0.139082
1561.67	1.85936
1561.93	-1.13749
1562.19	-0.134943
1562.46	0.868553
1562.72	0.86718
1562.98	2.865
1563.24	-0.138216
1563.5	-2.13915
1563.76	-1.14217
1564.02	-1.1447
1564.29	-4.14173
1564.55	0.864712
1564.81	0.865225
1565.07	0.862366
1565.33	0.850912
1565.59	-0.179632
1565.85	-2.21291
1566.11	-0.243162
1566.38	-0.177855
1566.64	-2.15998
1566.9	-1.16957
1567.16	1.81513
1567.42	-1.17074
1567.68	1.84278
1567.94	-0.163919
1568.2	2.82171
1568.47	-2.17654
1568.73	0.823313
1568.99	2.82262
1569.25	3.81879
1569.51	-2.18758
1569.77	-0.193974
1570.03	-0.195732
1570.29	-1.1957
1570.55	1.80094
1570.82	-2.19838
1571.08	-0.201813
1571.34	-3.20255
1571.6	1.79062
1571.86	2.78488
1572.12	-1.21625
1572.38	0.779079
1572.64	-2.22144
1572.9	0.769522
1573.17	1.76342
1573.43	1.75881
1573.69	-1.24066
1573.95	0.751125
1574.21	1.74748
1574.47	2.74693
1574.73	1.75088
1574.99	0.754532
1575.25	-2.23991
1575.51	1.75807
1575.78	0.759983
1576.04	-1.24006
1576.3	-0.243961
1576.56	-2.24497
1576.82	-0.250368
1577.08	-1.25651
1577.34	0.732409
1577.6	1.72214
1577.86	1.71363
1578.12	-2.28424
1578.38	-0.296322
1578.64	-0.301527
1578.9	0.692249
1579.17	0.689873
1579.43	2.68137
1579.69	-1.30837
1579.95	-0.312719
1580.21	-0.312569
1580.47	0.683598
1580.73	0.6817
1580.99	-0.318428
1581.25	-0.322548
1581.51	-0.327396
1581.77	0.664984
1582.03	-1.33392
1582.29	-2.33582
1582.55	-0.34656
1582.81	0.64625
1583.07	1.63877
1583.33	-2.34894
1583.59	2.62864
1583.85	-1.35829
1584.11	0.629753
1584.38	1.62334
1584.64	-1.36544
1584.9	-1.36673
1585.16	1.61996
1585.42	1.61746
1585.68	-3.36618
1585.94	0.615294
1586.2	0.611301
1586.46	-0.390766
1586.72	0.598349
1586.98	1.5882
1587.24	-2.3972
1587.5	0.584074
1587.76	1.57521
1588.02	-1.4128
1588.28	1.56973
1588.54	-1.41617
1588.8	-0.421667
1589.06	-0.421642
1589.32	-0.422003
1589.58	2.56423
1589.84	-1.41874
1590.1	0.570692
1590.36	1.5639
1590.62	-1.42413
1590.88	-2.42054
1591.14	2.55799
1591.4	-0.432606
1591.66	-0.435099
1591.92	-3.42602
1592.18	3.5402
1592.44	2.5378
1592.7	-1.45138
1592.96	1.52749
1593.22	-1.46208
1593.48	-2.46449
1593.74	-0.484476
1594	2.48729
1594.26	-1.49355
1594.52	0.488483
1594.78	0.486097
1595.04	-0.507607
1595.3	0.486837
1595.56	0.486763
1595.82	1.47807
1596.08	0.474157
1596.34	0.471395
1596.6	-0.524239
1596.86	-0.526485
1597.12	-0.528263
1597.38	1.45715
1597.64	-0.530468
1597.9	-0.531456
1598.16	0.459234
1598.42	-0.538166
1598.68	2.43616
1598.94	-4.52198
1599.2	-1.54926
1599.46	-1.55449
1599.72	-0.56711
1599.98	2.4043
1600.24	-1.56938
1600.5	-1.57425
1600.76	1.3954
1601.02	0.397142
1601.28	-0.601667
1601.54	0.38138
1601.8	0.373446
1602.06	1.35665
1602.32	-1.61949
1602.58	0.354828
1602.84	-2.62
1603.1	-2.62579
1603.36	1.32524
1603.62	2.30848
1603.88	-1.65159
1604.14	1.31103
1604.4	1.30827
1604.66	2.29497
1604.92	1.30444
1605.17	1.30232
1605.43	-0.677184
1605.69	2.28758
1605.95	-2.65771
1606.21	1.29773
1606.47	0.308649
1606.73	0.30858
1606.99	-0.681293
1607.25	-0.683018
1607.51	2.23984
1607.77	0.315798
1608.03	-0.607327
1608.29	-0.637888
1608.55	2.19023
1608.81	2.14252
1609.07	-0.576118
1609.32	-0.653452
1609.58	1.88996
1609.84	0.897541
1610.1	0.362953
1610.36	-0.492455
1610.62	-1.32545
1610.88	1.12229
1611.14	1.53293
1611.4	1.53575
1611.66	1.8273
1611.92	-1.19953
1612.18	-0.365715
1612.44	0.569122
1612.69	0.223869
1612.95	-0.9031
1613.21	-0.0543194
1613.47	-0.557775
1613.73	-0.56419
1613.99	-2.2329
1614.25	1.54733
1614.51	-0.147497
1614.77	1.49774
1615.03	-1.47067
1615.29	2.05448
1615.54	0.500105
1615.8	-0.594357
1616.06	0.361286
1616.32	1.66387
1616.58	-0.19693
1616.84	2.80037
1617.1	-1.00481
1617.36	0.318563
1617.62	-0.319803
1617.88	1.13707
1618.13	0.0959415
1618.39	1.21718
1618.65	-0.690519
1618.91	-0.300377
1619.17	0.584394
1619.43	-0.429205
1619.69	-0.0563831
1619.95	-0.0186119
1620.2	2.20934
1620.46	1.9213
1620.72	0.592094
1620.98	0.202873
1621.24	0.403103
1621.5	-0.00453758
1621.76	2.1963
1622.02	0.0242481
1622.27	0.120417
1622.53	1.00841
1622.79	0.30337
1623.05	-0.460033
1623.31	-1.68475
1623.57	-0.222012
1623.83	-0.441975
1624.09	0.176275
1624.34	0.65007
1624.6	1.3094
1624.86	0.787249
1625.12	0.712795
1625.38	-0.268734
1625.64	-0.00211906
1625.9	-0.299936
1626.15	0.518423
1626.41	0.0451069
1626.67	0.497639
1626.93	2.52534
1627.19	0.41787
1627.45	0.772186
1627.7	1.13044
1627.96	0.394306
1628.22	0.792055
1628.48	0.0708561
1628.74	-2.04461
1629	-2.85198
1629.26	-1.90695
1629.51	-2.1718
1629.77	1.08619
1630.03	-0.146311
1630.29	-0.242599
1630.55	0.241943
1630.81	3.12301
1631.06	0.909676
1631.32	0.214916
1631.53	-2.08165
1631.79	-2.08103
1632.05	-0.10918
1632.31	-0.107882
1632.57	-1.09574
1632.84	-0.107199
1633.1	-0.10034
1633.36	-2.07964
1633.62	-1.10322
1633.88	-0.121149
1634.14	2.83603
1634.4	-0.119135
1634.66	0.865932
1634.93	-0.120739
1635.19	2.83463
1635.45	0.861164
1635.71	-2.09809
1635.97	-3.08622
1636.23	-1.11817
1636.49	0.849129
1636.75	0.845579
1637.02	2.81193
1637.28	-4.08677
1637.54	0.833149
1637.8	-2.12367
1638.06	2.79746
1638.32	3.77889
1638.58	-0.16213
1638.84	2.78833
1639.1	-1.1501
1639.37	-1.15133
1639.63	-2.13709
1639.89	-0.169746
1640.15	0.813091
1640.41	-0.173058
1640.67	-2.14243
1640.93	-0.171824
1641.19	0.813906
1641.46	-1.156
1641.72	4.74963
1641.98	-0.176552
1642.24	-0.178856
1642.5	1.788
1642.76	-1.16708
1643.02	-1.16887
1643.28	-0.186193
1643.54	-0.187666
1643.8	-4.12626
1644.06	0.79262
1644.33	0.78964
1644.59	-0.198067
1644.85	1.76634
1645.11	-2.17039
1645.37	0.781309
1645.63	2.75065
1645.89	0.783014
1646.15	0.782297
1646.41	-0.204399
1646.67	0.77656
1646.93	1.75756
1647.19	1.75544
1647.46	-2.18184
1647.72	0.766205
1647.98	-2.18654
1648.24	3.71271
1648.5	0.762312
1648.76	0.764528
1649.02	-2.18439
1649.28	-0.209278
1649.54	-0.206825
1649.8	1.75943
1650.06	-1.19639
1650.32	1.75569
1650.58	-0.208809
1650.85	-2.1753
1651.11	-0.203239
1651.37	-2.17128
1651.63	1.77142
1651.89	1.77176
1652.15	-0.199722
1652.41	1.77056
1652.67	-1.18585
1652.93	-1.18805
1653.19	-0.205284
1653.45	0.778435
1653.71	0.777882
1653.97	-1.19249
1654.23	0.779278
1654.49	-1.19109
1654.75	-0.205507
1655.01	2.75185
1655.27	0.782373
1655.53	-1.18647
1655.8	-1.18247
1656.06	2.76893
1656.32	-2.16097
1656.57	-0.18519
1656.84	1.78999
1657.1	-3.14525
1657.36	-1.17185
1657.62	-1.17364
1657.88	1.78499
1658.14	-0.190329
1658.4	-0.191956
1658.66	-1.1808
1658.92	0.789734
1659.18	1.77321
1659.44	-2.1749
1659.7	-1.19126
1659.96	0.778042
1660.22	0.773935
1660.48	0.775099
1660.74	-3.1668
1661	0.779549
1661.26	0.782436
1661.52	0.785494
1661.78	-2.17125
1662.04	3.75059
1662.3	1.77822
1662.56	-1.19678
1662.82	-1.16762
1663.08	0.82625
1663.34	1.8048
1663.6	0.814297
1663.86	-0.178293
1664.12	-0.212463
1664.38	-0.195118
1664.64	0.796122
1664.9	-0.189745
1665.16	-0.181538
1665.42	0.809822
1665.68	0.790854
1665.94	0.774469
1666.2	-0.16909
1666.46	-0.165516
1666.72	-0.167242
1666.98	2.7717
1667.24	-2.21013
1667.5	1.7814
1667.76	-0.19652
1668.02	-1.186
1668.28	0.785915
1668.54	-0.203466
1668.8	-1.18954
1669.06	-0.195368
1669.32	2.77696
1669.58	1.79154
1669.84	-1.17112
1670.1	-0.182577
1670.36	-0.184101
1670.62	2.77918
1670.88	1.80132
1671.14	0.819206
1671.4	1.80611
1671.66	-0.171846
1671.92	-0.17231
1672.18	-1.1597
1672.44	-2.14654
1672.69	1.80831
1672.95	0.820024
1673.21	-0.168243
1673.47	0.821108
1673.73	-1.15497
1673.99	-1.15355
1674.25	0.826004
1674.51	-0.160128
1674.77	1.8204
1675.03	0.834053
1675.29	-0.151554
1675.55	1.83048
1675.81	1.83257
1676.07	0.843666
1676.33	0.843861
1676.59	0.844957
1676.85	1.83609
1677.11	-1.13212
1677.37	1.83737
1677.63	-1.13219
1677.89	-1.13307
1678.14	-1.13473
1678.4	-2.12644
1678.66	-1.13998
1678.92	-0.153345
1679.18	-0.155043
1679.44	0.832167
1679.7	-2.13429
1679.96	0.830153
1680.22	0.829004
1680.48	0.828335
1680.74	-3.12545
1681	-0.161966
1681.26	0.825235
1681.52	0.825089
1681.78	-3.12618
1682.03	1.81396
1682.29	-1.14905
1682.55	-1.14817
1682.81	0.828814
1683.07	1.81676
1683.33	-4.11027
1683.59	1.81759
1683.85	0.830496
1684.11	0.83083
1684.37	-1.14503
1684.63	-1.14657
1684.89	-1.14704
1685.14	2.80303
1685.4	-0.159155
1685.66	1.81632
1685.92	-0.157778
1686.18	0.830717
1686.44	0.832033
1686.7	-0.153172
1686.96	-2.12442
1687.22	0.841677
1687.48	0.843035
1687.73	-0.145159
1687.99	-0.146101
1688.25	0.840614
1688.51	-0.147547
1688.77	-2.12315
1689.03	-3.11152
1689.29	-0.152193
1689.55	0.832951
1689.81	-3.11593
1690.06	-0.157942
1690.32	-0.160561
1690.58	-0.160521
1690.84	-0.155605
1691.1	-5.08538
1691.36	-3.10984
1691.62	-1.13451
1691.88	-0.144854
1692.13	-0.142229
1692.39	-2.11494
1692.65	0.846134
1692.91	-2.11551
1693.17	1.82919
1693.43	-0.146469
1693.69	2.80853
1693.95	1.81816
1694.2	-3.11222
1694.46	2.79871
1694.72	-1.14481
1694.98	3.77938
1695.24	-2.12978
1695.5	0.827618
1695.76	-0.155247
1696.01	-0.152979
1696.27	-0.150515
1696.53	-1.13232
1696.79	-4.08605
1697.05	3.79922
1697.31	-2.1138
1697.57	1.82579
1697.82	-2.11744
1698.08	-0.150448
1698.34	-1.13702
1698.6	2.79905
1698.86	-1.13941
1699.12	-1.14008
1699.38	-1.13976
1699.63	0.829178
1699.89	-1.1364
1700.15	-3.10282
1700.41	-1.13306
1700.67	2.80098
1700.92	-1.1336
1701.18	0.834745
1701.44	-0.148436
1701.7	0.835257
1701.96	3.78434
1702.22	-1.13449
1702.47	-0.152607
1702.73	-0.154303
1702.99	0.826981
1703.25	0.827555
1703.51	-2.11923
1703.77	0.829134
1704.02	-1.13588
1704.28	-1.13518
1704.54	-3.09718
1704.8	-0.145819
1705.06	0.839016
1705.32	1.82247
1705.57	-0.142166
1705.83	0.84207
1706.09	-2.10396
1706.35	-2.10452
1706.61	2.80514
1706.86	-2.10758
1707.12	0.835705
1707.38	1.81462
1707.64	-2.1127
1707.9	1.80922
1708.16	-0.156233
1708.41	-2.12043
1708.67	-0.163084
1708.93	-3.1064
1709.19	-1.15018
1709.44	-2.13106
1709.7	-1.15238
1709.96	1.78519
1710.22	5.70245
1710.48	-1.14798
1710.73	-1.14568
1710.99	0.81558
1711.25	0.820007
1711.51	-2.11445
1711.77	-2.11131
1712.02	-1.12889
1712.28	-0.147284
1712.54	-0.147196
1712.8	0.829237
1713.06	-2.1121
1713.31	-0.159792
1713.57	2.76929
1713.83	-0.16836
1714.09	0.804598
1714.34	-0.17363
1714.6	-1.15061
1714.86	1.78023
1715.12	1.78114
1715.38	0.806089
1715.63	1.78789
1715.89	0.816803
1716.15	-1.13549
1716.41	0.819237
1716.66	-2.11184
1716.92	-0.159573
1717.18	-0.162159
1717.44	-0.165855
1717.69	2.75615
1717.95	-1.15185
1718.21	0.792915
1718.47	-0.185949
1718.72	1.75875
1718.98	-0.190781
1719.24	-2.13805
1719.5	0.784655
1719.75	-2.13434
1720.01	-2.13307
1720.27	0.791
1720.53	-2.12724
1720.78	1.76784
1721.04	0.793245
1721.3	0.790691
1721.56	0.789175
1721.81	1.7606
1722.07	3.70366
1722.33	-0.188332
1722.59	0.78167
1722.84	2.72304
1723.1	0.777554
1723.36	1.74739
1723.62	0.775276
1723.87	3.68864
1724.13	-3.10675
1724.39	-0.192768
1724.64	-1.16233
1724.9	-0.191826
1725.16	-1.16438
1725.42	-0.198013
1725.67	1.73801
1725.93	0.763975
1726.19	-0.207165
1726.45	0.762177
1726.7	-3.11081
1726.96	0.76663
1727.22	0.76634
1727.47	-1.17461
1727.73	0.764343
1727.99	-4.07314
1728.24	0.771894
1728.5	0.771297
1728.76	1.73529
1729.02	-0.221066
1729.27	0.721745
1729.53	-2.17993
1729.79	1.6918
1730.05	0.737679
1730.3	0.74666
1730.56	0.738562
1730.82	2.66697
1731.07	0.736914
1731.33	-2.14062
1731.59	-3.10376
1731.84	0.764687
1732.1	-0.199799
1732.36	0.76799
1732.61	1.73498
1732.87	1.73538
1733.13	-4.06127
1733.39	-0.198141
1733.64	1.73042
1733.9	-2.13499
1734.16	1.72049
1734.41	4.61076
1734.67	-0.214169
1734.93	-1.18081
1735.18	1.70726
1735.44	1.70393
1735.7	3.62715
1735.95	1.69991
1736.21	-0.225639
1736.47	-3.11224
1736.72	2.66328
1736.98	-0.22366
1737.24	0.738743
1737.49	-0.22333
1737.75	-0.223064
1738.01	3.62437
1738.26	0.738552
1738.52	1.69878
1738.78	0.736248
1739.03	1.69611
1739.29	-1.188
1739.55	0.731049
1739.8	-4.07343
1740.06	0.721947
1740.32	1.67644
1740.57	2.63101
1740.83	6.46193
1741.09	0.708668
1741.34	1.66548
1741.6	0.706055
1741.86	1.66281
1742.11	-1.21041
1742.37	0.705441
1742.63	0.706938
1742.88	0.708061
1743.14	3.58053
1743.4	2.62459
1743.65	1.66941
1743.91	0.713055
1744.16	2.62583
1744.42	2.62507
1744.68	1.66819
1744.93	2.62592
1745.19	1.67188
1745.45	-1.19486
1745.7	-2.14888
1745.96	0.722309
1746.22	-0.23366
1746.47	0.721809
1746.73	-0.235977
1746.98	0.717369
1747.24	0.715965
1747.5	-2.15172
1747.75	0.712299
1748.01	-1.1985
1748.27	-0.243128
1748.52	1.66812
1748.78	-1.19281
1749.03	2.62873
1749.29	1.67788
1749.55	1.68246
1749.8	1.68791
1750.06	0.738811
1750.32	0.745205
1750.57	3.61845
1750.83	1.71362
1751.08	0.761744
1751.34	-0.189772
1751.6	1.72527
1751.85	0.769606
1752.11	-1.14394
1752.36	1.72003
1752.62	0.763348
1752.88	2.67209
1753.13	-0.19372
1753.39	-0.194742
1753.64	-1.14953
1753.9	2.66701
1754.15	0.758543
1754.41	1.71112
1754.67	0.756144
1754.92	-0.19734
1755.18	-0.197025
1755.43	-2.10267
1755.69	1.71031
1755.95	2.66274
1756.2	4.56666
1756.46	2.65921
1756.71	0.752306
1756.97	0.749397
1757.23	0.746536
1757.48	-3.06106
1757.74	-2.10891
1757.99	-1.15703
1758.25	5.50444
1758.5	-0.195179
1758.76	1.71188
1759.02	2.6664
1759.27	-2.08866
1759.53	2.67195
1759.78	0.772198
1760.04	1.72607
1760.3	0.775719
1760.55	-0.174673
1760.81	1.72909
1761.06	-1.12425
1761.32	2.68034
1761.57	3.63002
1761.83	-3.02627
1762.08	1.72785
1762.34	-1.12271
1762.6	0.780291
1762.85	-0.165037
1763.11	-2.06239
1763.36	-0.157898
1763.62	4.59791
1763.87	1.74862
1764.13	-0.149399
1764.38	-0.145227
1764.64	1.76299
1764.89	2.72373
1765.15	0.825735
1765.4	0.830475
1765.66	1.78653
1765.92	3.69429
1766.17	1.79339
1766.43	4.65215
1766.68	4.65397
1766.94	2.75089
1767.19	0.84827
1767.45	0.850492
1767.7	-0.100237
1767.96	2.75511
1768.21	0.85165
1768.47	-1.0507
1768.73	2.7559
1768.98	2.757
1769.24	2.75174
1769.49	0.84309
1769.75	1.78674
1770	2.73263
1770.26	-0.1131
1770.51	2.74252
1770.77	0.849566
1771.02	2.75246
1771.28	3.70641
1771.53	-1.03786
1771.79	3.72372
1772.04	1.82693
1772.3	0.879402
1772.55	1.83574
1772.81	0.890497
1773.06	4.70134
1773.32	-0.0515671
1773.57	0.904409
1773.83	0.908588
1774.08	4.72017
1774.34	-0.0356293
1774.59	0.919733
1774.85	2.8271
1775.1	1.87993
1775.36	1.88373
1775.61	3.79427
1775.87	-1.91186
1776.12	1.90685
1776.38	2.86484
1776.63	2.86794
1776.89	0.962831
1777.14	0.963058
1777.4	3.82156
1777.65	1.91595
1777.91	1.91511
1778.16	3.81944
1778.42	2.86572
1778.67	1.91244
1778.93	0.958944
1779.18	0.00503349
1779.44	3.80899
1779.69	0.00261497
1779.95	1.90737
1780.2	1.91481
1780.46	1.9184
1780.71	2.87379
1780.97	0.0221386
1781.22	0.0260296
1781.47	1.93264
1781.73	0.983675
1781.98	2.89174
1782.24	0.0398102
1782.49	0.997074
1782.75	1.95598
1783	1.00818
1783.26	-0.893432
1783.51	1.01654
1783.77	1.02099
1784.02	1.02544
1784.28	3.89048
1784.53	2.94269
1784.79	2.94975
1785.04	3.90895
1785.29	2.00459
1785.55	1.05268
1785.8	0.099925
1786.06	0.10046
1786.31	2.9626
1786.57	3.919
1786.82	2.01491
1787.08	-0.84245
1787.33	2.02599
1787.58	-0.830784
1787.84	1.08702
1788.09	2.05496
1788.35	0.156206
1788.6	3.03901
1788.86	1.1347
1789.11	1.13976
1789.37	2.10355
1789.62	0.196381
1789.87	3.07737
1790.13	3.08195
1790.38	2.128
1790.64	3.09115
1790.89	4.05212
1791.15	-0.739911
1791.4	-1.69966
1791.65	2.12513
1791.91	-2.66314
1792.16	1.16828
1792.42	2.12823
1792.67	0.215578
1792.93	0.218495
1793.18	3.09634
1793.43	-0.732025
1793.69	0.22841
1793.94	0.230586
1794.2	1.19288
1794.45	5.98667
1794.7	0.239032
1794.96	2.15469
1795.21	2.16177
1795.47	0.259503
1795.72	-0.689861
1795.97	3.15551
1796.23	0.280427
1796.48	1.24551
1796.74	3.17151
1796.99	0.295428
1797.25	1.26141
1797.5	-0.655434
1797.75	-1.61224
1798.01	2.23667
1798.26	2.24061
1798.51	0.321196
1798.77	3.20872
1799.02	2.24919
1799.28	2.25006
1799.53	1.28855
1799.78	0.326467
1800.04	0.325152
1800.29	2.24589
1800.55	0.323577
1800.8	2.24482
1801.05	2.24502
1801.31	-0.635832
1801.56	-0.63453
1801.81	2.24876
1802.07	0.330106
1802.32	1.29358
1802.58	3.21842
1802.83	1.30101
1803.08	0.34461
1803.34	-0.611663
1803.59	-1.56809
1803.84	2.2825
1804.1	1.32419
1804.35	3.25034
1804.61	4.21638
1804.86	1.33565
1805.11	1.34052
1805.37	-2.50389
1805.62	2.31468
1805.87	0.394844
1806.13	0.399972
1806.38	0.404488
1806.64	-0.554832
1806.89	2.33983
1807.14	1.3793
1807.4	-1.50984
1807.65	0.4195
1807.9	4.27637
1808.16	3.3144
1808.41	0.424803
1808.66	-3.42871
1808.92	-0.535063
1809.17	1.39494
1809.42	1.39717
1809.68	1.39931
1809.93	3.32973
1810.18	-1.48852
1810.44	-0.522372
1810.69	0.443461
1810.94	-0.519959
1811.2	1.40893
1811.45	2.37423
1811.7	2.37532
1811.96	0.448462
1812.21	2.37821
1812.46	-0.511789
1812.72	-0.508707
1812.97	-2.43387
1813.22	2.39259
1813.48	0.467258
1813.73	1.43439
1813.98	-0.491573
1814.24	-1.45193
1814.49	0.484007
1814.74	-0.47577
1815	-0.469408
1815.25	1.46724
1815.5	-0.46139
1815.76	0.507647
1816.01	-0.456649
1816.26	3.41149
1816.52	1.48065
1816.77	0.516466
1817.02	0.518914
1817.27	3.41928
1817.53	-0.448341
1817.78	1.47802
1818.03	2.4393
1818.29	2.44143
1818.54	1.47992
1818.79	1.48579
1819.05	-0.443127
1819.3	0.523678
1819.55	0.526063
1819.8	0.529189
1820.06	-0.434398
1820.31	1.50172
1820.56	-0.428908
1820.82	4.4095
1821.07	-2.35718
1821.32	0.546928
1821.58	2.48503
1821.83	-0.413577
1822.08	0.557404
1822.33	1.5282
1822.59	3.46669
1822.84	1.53315
1823.09	0.567158
1823.34	4.44136
1823.6	-1.36637
1823.85	0.569435
1824.1	0.568841
1824.36	2.50519
1824.61	1.5397
1824.86	1.54224
1825.11	-1.35967
1825.37	-0.389036
1825.62	2.51861
1825.87	0.584085
1826.12	2.52225
1826.38	4.46001
1826.63	1.55596
1826.88	-0.379612
1827.14	1.55872
1827.39	1.56072
1827.64	1.56327
1827.89	-0.37152
1828.15	1.56867
1828.4	1.56966
1828.65	-0.367914
1828.9	-0.368543
1829.16	-0.369853
1829.41	1.56667
1829.66	-1.33872
1829.91	-2.30695
1830.17	1.56683
1830.42	-0.371026
1830.67	3.50091
1830.92	1.56346
1831.18	0.596169
1831.43	-0.369509
1831.68	1.57004
1831.93	2.54167
1832.19	0.607424
1832.44	1.57898
1832.69	3.51993
1832.94	2.55539
1833.2	0.620178
1833.45	1.59047
1833.7	1.59154
1833.95	-1.31438
1834.2	0.625834
1834.46	0.627578
1834.71	1.59333
1834.96	-0.352556
1835.21	-0.359418
1835.47	1.56987
1835.72	1.56541
1835.97	6.39775
1836.22	1.5617
1836.48	1.55833
1836.73	4.54108
1836.98	1.62646
1837.23	1.60398
1837.48	2.5655
1837.74	2.55321
1837.99	1.57466
1838.24	1.55785
1838.49	-0.384574
1838.74	-0.385985
1839	0.607562
1839.25	3.52512
1839.5	0.626171
1839.75	2.56687
1840	2.56977
1840.26	0.635997
1840.51	1.59008
1840.76	0.610794
1841.01	0.601628
1841.27	0.593893
1841.52	3.48548
1841.77	1.54572
1842.02	1.53922
1842.27	1.53335
1842.53	1.52792
1842.78	1.52262
1843.03	0.561308
1843.28	-0.404495
1843.53	2.49143
1843.78	0.562201
1844.04	-0.402137
1844.29	3.45465
1844.54	2.49027
1844.79	2.49278
1845.04	0.564054
1845.3	1.52615
1845.55	-0.402067
1845.8	-0.401725
1846.05	3.46459
1846.3	0.576921
1846.55	-1.34814
1846.81	-0.371546
1847.06	-0.379776
1847.31	1.52784
1847.56	0.53644
1847.81	0.5313
1848.07	-1.39347
1848.32	-0.423141
1848.57	2.47465
1848.82	-0.42364
1849.07	-0.427562
1849.32	-2.35269
1849.57	0.532767
1849.83	-1.39651
1850.08	0.523292
1850.33	-1.40496
1850.58	-0.448763
1850.83	-0.45316
1851.09	-1.41796
1851.34	1.46111
1851.59	0.497395
1851.84	2.4158
1852.09	0.493405
1852.34	1.45286
1852.59	-0.467793
1852.84	-1.42803
1853.1	1.45257
1853.35	-0.468399
1853.6	2.41102
1853.85	0.488885
1854.1	-1.43404
1854.35	2.40032
1854.6	-0.483433
1854.86	2.38921
1855.11	0.46858
1855.36	-0.492692
1855.61	-1.45563
1855.86	0.455862
1856.11	1.41066
1856.36	-1.4646
1856.61	3.32354
1856.87	0.449917
1857.12	-0.508189
1857.37	1.40648
1857.62	1.40478
1857.87	-0.512593
1858.12	1.40026
1858.37	2.3547
1858.63	-4.34899
1858.88	1.38964
1859.13	-1.48459
1859.38	1.38107
1859.63	-1.49214
1859.88	-1.4949
1860.13	2.32853
1860.38	1.37229
1860.63	0.416931
1860.89	1.37587
1861.14	-0.534396
1861.39	1.38064
1861.64	2.34023
1861.89	-2.44191
1862.14	0.429358
1862.39	-0.528775
1862.64	-0.531404
1862.9	0.421582
1863.15	-1.49531
1863.4	-1.49905
1863.65	2.32098
1863.9	0.405292
1864.15	-2.46482
1864.4	-1.5123
1864.65	-0.560022
1864.9	1.34689
1865.15	-0.566722
1865.4	3.2473
1865.66	1.33262
1865.91	1.32652
1866.16	-0.587624
1866.41	1.31205
1866.66	-0.601266
1866.91	-2.51283
1867.16	-1.56678
1867.41	-1.57303
1867.66	1.27492
1867.91	1.26943
1868.16	-1.58649
1868.41	-0.637932
1868.67	2.21237
1868.92	-0.639894
1869.17	2.21242
1869.42	1.26096
1869.67	0.308809
1869.92	-1.59401
1870.17	-0.6449
1870.42	1.2547
1870.67	-1.59816
1870.92	1.25188
1871.17	2.2012
1871.42	-2.55166
1871.67	0.297674
1871.92	0.295195
1872.17	-0.658252
1872.42	0.289197
1872.68	-0.662937
1872.93	-2.56572
1873.18	1.22882
1873.43	-0.672897
1873.68	0.275001
1873.93	-3.52395
1874.18	3.11732
1874.43	0.266277
1874.68	-0.686723
1874.93	1.20577
1875.18	2.14894
1875.43	1.19533
1875.68	-2.601
1875.93	4.02519
1876.18	1.17302
1876.43	-1.67344
1876.68	-2.62471
1876.93	1.15526
1877.18	0.206197
1877.43	-3.584
1877.68	-0.757665
1877.93	0.168369
1878.18	1.12475
1878.44	0.23637
1878.69	-2.62632
1878.93	2.09801
1879.19	0.202694
1879.44	2.11067
1879.69	1.17047
1879.94	-0.729804
1880.19	0.211617
1880.44	-1.68371
1880.69	2.10139
1880.94	-0.736468
1881.19	0.206015
1881.44	-0.742433
1881.69	-2.64217
1881.94	-0.757822
1882.19	-0.766202
1882.44	0.169764
1882.69	0.159698
1882.94	1.09142
1883.19	-1.74447
1883.44	0.129866
1883.69	-0.716382
1883.94	-1.7263
1884.19	-1.76331
1884.44	1.06409
1884.69	-2.69917
1884.94	2.00554
1885.19	-0.817554
1885.44	-1.75438
1885.69	1.07703
1885.94	1.0781
1886.19	-1.74712
1886.44	0.143686
1886.69	1.08953
1886.94	0.142378
1887.19	2.96665
1887.44	1.07385
1887.69	-1.76182
1887.94	0.120335
1888.19	1.05828
1888.44	-0.833207
1888.69	1.98723
1888.94	-0.846397
1889.19	1.97325
1889.44	0.0835953
1889.69	1.02118
1889.94	-0.863265
1890.19	-0.865139
1890.44	-1.80634
1890.69	-1.80439
1890.94	-2.74424
1891.19	-2.74454
1891.43	-1.80436
1891.68	1.01853
1891.94	0.0752478
1892.18	-0.868709
1892.43	1.95428
1892.68	0.0691557
1892.93	1.00717
1893.18	1.0025
1893.43	0.0543556
1893.68	2.86573
1893.93	-2.78442
1894.18	0.972236
1894.43	-0.906379
1894.68	2.84574
1894.93	1.90166
1895.18	0.0201473
1895.43	0.958792
1895.68	0.0192032
1895.93	0.0195293
1896.18	1.89961
1896.43	2.84049
1896.68	-0.917969
1896.93	-0.916416
1897.18	0.965595
1897.42	0.0259295
1897.68	-2.79577
1897.92	-0.91517
1898.17	-1.85723
1898.42	-0.918791
1898.67	0.0186586
1898.92	-0.92574
1899.17	2.83008
1899.42	-0.935528
1899.67	0.939734
1899.92	-0.00298023
1900.17	-0.0063448
1900.42	-0.949068
1900.67	-0.0115929
1900.92	-0.951843
1901.16	0.927237
1901.41	-0.950664
1901.66	-0.00914001
1901.91	-1.88754
1902.16	-0.00568485
1902.41	-0.00337696
1902.66	0.93926
1902.91	-0.943279
1903.16	-0.00533676
1903.41	1.87264
1903.66	2.80953
1903.91	-0.014431
1904.16	-1.89737
1904.41	-0.0190296
1904.65	-0.0209332
1904.9	1.8574
1905.15	-2.84551
1905.4	-0.0272493
1905.65	1.85121
1905.9	0.908769
1906.15	-0.0370712
1906.4	1.83497
1906.65	0.891811
1906.9	1.82759
1907.14	-0.992924
1907.39	2.76068
1907.64	0.88134
1907.89	0.880852
1908.14	2.76001
1908.39	-0.995613
1908.64	1.82261
1908.89	-2.8756
1909.14	-0.996441
1909.39	0.884019
1909.63	1.82589
1909.88	0.888604
1910.13	0.892084
1910.38	1.83692
1910.63	-0.040801
1910.88	1.8455
1911.13	-0.0354137
1911.38	0.907399
1911.62	-0.0343924
1911.87	-0.0352564
1912.12	-1.92084
1912.37	4.67016
1912.62	-0.983898
1912.87	-0.0438871
1913.12	0.896408
1913.37	0.894953
1913.61	1.83592
1913.86	-2.87309
1914.11	-0.0440054
1914.36	-0.0405779
1914.61	0.904386
1914.86	-0.036726
1915.11	-0.978092
1915.36	0.910157
1915.6	0.911016
1915.85	-0.976801
1916.1	-0.0350609
1916.35	-0.0378885
1916.6	0.903234
1916.85	0.899336
1917.1	2.78062
1917.34	1.83283
1917.59	-0.999879
1917.84	-0.0601606
1918.09	-1.00538
1918.34	1.82171
1918.59	-1.94892
1918.83	0.88188
1919.08	-2.88864
1919.33	2.77554
1919.58	-0.0519152
1919.83	-1.93566
1920.08	-0.0429392
1920.33	0.903385
1920.57	2.79246
1920.82	-0.0456991
1921.07	1.84359
1921.32	-2.87914
1921.57	0.904247
1921.81	1.8508
1922.06	2.79739
1922.31	-1.93133
1922.56	-0.987098
1922.81	0.901583
1923.06	-0.0480766
1923.31	0.893536
1923.55	0.890376
1923.8	-0.0577822
1924.05	0.884369
1924.3	-1.95468
1924.55	1.82083
1924.79	-1.01719
1925.04	-1.01933
1925.29	0.869256
1925.54	-1.01994
1925.79	-1.9635
1926.04	-0.0700474
1926.28	-0.0672522
1926.53	-0.0647564
1926.78	-1.95436
1927.03	-0.0586042
1927.28	-0.0568972
1927.52	-1.0029
1927.77	0.891568
1928.02	0.892125
1928.27	-1.94914
1928.52	-0.054554
1928.76	4.68197
1929.01	0.893034
1929.26	-1.9493
1929.51	-1.00083
1929.76	-1.94715
1930	1.84889
1930.25	-0.993852
1930.5	1.85568
1930.75	-0.0397692
1931	0.912268
1931.24	-0.986866
1931.49	-0.0385303
1931.74	-0.990671
1931.99	-0.0448618
1932.24	-1.94681
1932.48	0.896756
1932.73	-3.85155
1932.98	2.78629
1933.23	-1.95961
1933.47	-1.96301
1933.72	2.77955
1933.97	0.88554
1934.22	-1.00665
1934.46	2.80155
1934.71	0.914774
1934.96	0.927524
1935.21	0.938429
1935.46	-2.86479
1935.7	0.953885
1935.95	-1.90337
1936.2	2.85172
1936.45	-0.0108576
1936.69	0.93964
1936.94	-0.0168829
1937.19	-0.974347
1937.44	-2.88442
1937.68	4.72961
1937.93	1.86757
1938.18	-0.992875
1938.43	-0.997413
1938.68	1.8561
1938.92	-1.94744
1939.17	-0.995114
1939.42	1.86262
1939.67	1.8641
1939.91	0.912318
1940.16	-0.0391684
1940.41	1.86564
1940.66	-0.0376272
1940.9	1.87134
1941.15	-0.0262747
1941.4	-1.93026
1941.64	-0.0231371
1941.89	-0.026638
1942.14	-0.0337248
1942.39	-2.90446
1942.63	-0.0403519
1942.88	2.83818
1943.13	4.75082
1943.38	0.930724
1943.62	-1.94097
1943.87	2.82168
1944.12	-2.90864
1944.37	-0.0388222
1944.61	-0.0368338
1944.86	-0.989717
1945.11	-0.0327263
1945.35	0.925003
1945.6	-2.89416
1945.85	-0.0252581
1946.1	-1.93502
1946.34	1.89064
1946.59	-1.93311
1946.84	-1.93295
1947.09	-1.93351
1947.33	0.934067
1947.58	-0.0250998
1947.83	-0.0281153
1948.07	-0.986097
1948.32	0.924849
1948.57	0.923341
1948.82	-0.0355186
1949.06	0.920093
1949.31	-0.0346012
1949.56	1.88039
1949.8	0.926047
1950.05	0.928961
1950.3	-0.0252333
1950.54	-0.0198889
1950.79	1.90233
1951.04	-0.968118
1951.29	-1.92249
1951.53	-0.958805
1951.78	0.964842
1952.03	0.00873375
1952.27	1.93083
1952.52	-0.948572
1952.77	-1.90789
1953.01	-1.90972
1953.26	-0.947886
1953.51	-0.945374
1953.76	0.00976372
1954	0.962681
1954.25	2.86976
1954.49	-2.89632
1954.74	-0.987351
1954.99	1.87893
1955.24	0.917164
1955.48	1.87328
1955.73	-1.00003
1955.98	-0.997233
1956.22	1.88424
1956.47	0.936161
1956.72	0.939718
1956.96	0.943979
1957.21	-0.0144882
1957.46	0.94849
1957.7	1.9115
1957.95	2.87454
1958.2	3.83704
1958.44	-2.8896
1958.69	0.954746
1958.94	-1.92914
1959.18	1.91306
1959.43	2.86941
1959.68	2.86639
1959.92	-0.0179081
1960.17	0.939182
1960.42	-0.985672
1960.66	0.931704
1960.91	-0.992718
1961.16	-0.996659
1961.4	-0.0405426
1961.65	-2.92329
1961.9	-1.00644
1962.14	-1.00704
1962.39	-1.00728
1962.63	-1.00778
1962.88	-0.0483742
1963.13	1.87098
1963.37	-0.0491867
1963.62	2.83018
1963.87	2.82982
1964.11	-1.97048
1964.36	1.87086
1964.61	-0.0487537
1964.85	-1.01031
1965.1	2.82826
1965.35	-1.01322
1965.59	-1.97496
1965.84	-1.97568
1966.08	0.905647
1966.33	1.86842
1966.58	-0.0499783
1966.82	-0.0473957
1967.07	0.915216
1967.32	1.87764
1967.56	1.87615
1967.81	0.914162
1968.05	-1.00786
1968.3	2.83713
1968.55	2.83707
1968.79	0.913048
1969.04	0.910589
1969.29	-1.01552
1969.53	-0.0592251
1969.78	2.8166
1970.02	-1.03137
1970.27	1.84399
1970.52	1.83943
1970.76	-0.0833664
1971.01	-1.04653
1971.25	0.86916
1971.5	0.866385
1971.75	3.74152
1971.99	0.861774
1972.24	-0.0970173
1972.48	0.863008
1972.73	0.863092
1972.98	1.82146
1973.22	0.859859
1973.47	-0.102837
1973.71	0.851772
1973.96	1.80664
1974.21	-1.0723
1974.45	2.75977
1974.7	1.79981
1974.94	0.840666
1975.19	-0.117983
1975.44	0.841232
1975.68	-0.116055
1975.93	2.76237
1976.17	1.80516
1976.42	4.68373
1976.66	-1.07079
1976.91	-0.111684
1977.16	-2.03077
1977.4	-0.113399
1977.65	3.72155
1977.89	-1.07661
1978.14	2.75609
1978.39	0.834892
1978.63	1.79061
1978.88	0.829544
1979.12	0.827881
1979.37	-0.131224
1979.61	1.78571
1979.86	0.826725
1980.1	2.74396
1980.35	0.826557
1980.6	1.78288
1980.84	0.820847
1981.09	2.73381
1981.33	2.73167
1981.58	0.812595
1981.82	-2.06332
1982.07	3.68195
1982.31	-0.150272
1982.56	1.76407
1982.81	5.5911
1983.05	1.75735
1983.3	3.66713
1983.54	0.79015
1983.79	1.74275
1984.03	1.74059
1984.28	0.782322
1984.52	4.60613
1984.77	2.69086
1985.02	1.73257
1985.26	2.68534
1985.51	0.768333
1985.75	2.67741
1986	0.765574
1986.24	0.766256
1986.49	2.68018
1986.73	2.68298
1986.98	4.59668
1987.22	3.63941
1987.47	1.72803
1987.71	3.63691
1987.96	1.71924
1988.21	-0.197973
1988.45	5.52674
1988.7	3.60753
1988.94	1.69558
1989.19	5.44644
1989.43	2.6179
1989.68	4.4091
1989.92	3.49149
1990.17	5.56831
1990.41	-0.074749
1990.66	5.44108
1990.9	5.20953
1991.15	3.31552
1991.39	5.93296
1991.64	0.0117836
1991.88	3.26698
1992.13	3.61991
1992.37	1.19711
1992.62	2.83468
1992.86	4.57425
1993.11	2.50186
1993.35	0.770557
1993.6	3.81063
1993.84	3.62989
1994.09	3.41468
1994.33	6.51758
1994.58	5.04793
1994.82	2.89606
1995.07	1.51218
1995.31	2.8232
1995.56	3.3465
1995.8	3.97134
1996.05	4.04482
1996.29	2.63604
1996.54	4.13567
1996.78	3.06134
1997.03	3.11996
1997.27	3.19193
1997.52	3.25686
1997.76	6.75148
1998.01	2.26215
1998.25	4.08957
1998.5	3.38194
1998.74	2.62745
1998.99	3.66574
1999.23	4.87089
1999.48	5.05111
1999.72	4.60761
1999.97	2.4891
2000.21	2.54439
2000.46	3.33339
2000.7	2.89036
2000.95	3.22438
2001.19	2.67472
2001.43	4.01386
2001.68	4.80612
2001.92	5.43616
2002.17	2.46781
2002.41	2.52281
2002.66	1.91971
2002.9	3.99932
2003.15	4.18087
2003.39	3.70456
2003.64	4.80358
2003.88	5.56544
2004.13	4.00972
2004.37	4.75363
2004.61	4.13357
2004.86	2.24225
2005.1	4.74397
2005.35	3.77575
2005.59	3.95825
2005.84	5.70366
2006.08	3.57663
2006.33	3.15244
2006.57	3.37708
2006.81	4.07867
2007.06	3.42934
2007.3	3.43858
2007.55	3.2845
2007.79	3.25592
2008.04	2.30647
2008.28	4.69382
2008.53	6.41182
2008.77	3.83112
2009.01	4.92008
2009.26	2.99018
2009.5	4.02493
2009.75	1.62597
2009.99	5.23205
2010.24	7.08953
2010.48	2.10781
2010.73	4.75306
2010.97	5.82936
2011.21	1.16393
2011.46	3.76745
2011.7	4.58257
2011.95	5.4871
2012.19	4.42179
2012.43	-0.12066
2012.68	6.47004
2012.92	1.76131
2013.17	3.64105
2013.42	6.45801
2013.67	3.6259
2013.91	5.50155
2014.16	4.55449
2014.41	2.66718
2014.66	3.59715
2014.9	3.5888
2015.15	5.46394
2015.4	3.58872
2015.64	4.5308
2015.89	1.7188
2016.14	5.47736
2016.39	-0.156936
2016.63	1.726
2016.88	1.73986
2017.13	0.8034
2017.37	2.68295
2017.62	5.5001
2017.87	4.55652
2018.11	4.55115
2018.36	1.72773
2018.61	3.59822
2018.86	3.59202
2019.1	3.58584
2019.35	3.57903
2019.6	3.57292
2019.84	-0.177171
2020.09	5.4418
2020.34	3.56791
2020.58	1.69529
2020.83	3.56861
2021.08	4.50542
2021.33	1.69788
2021.57	7.31993
2021.82	3.57452
2022.07	7.32114
2022.31	3.57399
2022.56	1.69956
2022.81	6.37841
2023.05	0.75819
2023.3	4.49751
2023.55	3.55879
2023.8	3.55566
2024.04	3.55258
2024.29	1.67971
2024.54	2.61222
2024.78	2.60737
2025.03	4.47037
2025.27	2.59726
2025.52	3.52614
2025.77	2.58844
2026.02	3.51761
2026.26	0.714243
2026.51	1.64986
2026.76	1.65767
2027	4.47108
2027.25	-0.184002
2027.5	1.70117
2027.74	0.776159
2027.99	2.64646
2028.23	3.57107
2028.48	2.62038
2028.73	2.5714
2028.98	2.62188
2029.22	2.69103
2029.47	-1.08719
2029.72	5.48357
2029.96	3.57797
2030.21	0.756702
2030.45	-0.193461
2030.7	3.53796
2030.95	1.6597
2031.19	2.60654
2031.44	3.55218
2031.69	3.55075
2031.93	1.6863
2032.18	-1.11091
2032.43	0.761624
2032.67	2.63598
2032.92	1.7103
2033.17	3.58637
2033.41	-1.07998
2033.66	2.6638
2033.91	1.73581
2034.15	-1.0657
2034.4	-0.137019
2034.64	1.7222
2034.89	3.57217
2035.14	1.70305
2035.38	0.778891
2035.63	-1.08095
2035.87	1.7315
2036.12	3.61563
2036.37	0.821344
2036.61	1.75762
2036.86	-2.92376
2037.11	1.75247
2037.35	6.43374
2037.6	0.825
2037.84	0.825935
2038.09	-1.04374
2038.34	1.76062
2038.58	1.75991
2038.83	-0.11008
2039.08	1.75797
2039.32	1.75698
2039.57	2.68985
2039.81	2.68854
2040.06	1.75258
2040.31	0.816051
2040.55	1.74653
2040.8	2.67678
2041.04	1.74153
2041.29	1.73979
2041.54	2.67099
2041.78	1.73916
2042.03	-3.85325
2042.27	2.67164
2042.52	1.73941
2042.77	2.66947
2043.01	2.66999
2043.26	-1.05491
2043.5	-2.91518
2043.75	1.75048
2044	1.75951
2044.24	2.70164
2044.49	0.840579
2044.73	2.70767
2044.98	0.839895
2045.23	3.63129
2045.47	1.75323
2045.72	-0.0884418
2045.96	2.71716
2046.21	0.877079
2046.45	0.906278
2046.7	0.894217
2046.95	-1.9219
2047.19	0.870224
2047.44	-0.0603609
2047.68	4.60285
2047.93	2.72397
2048.17	-0.074317
2048.42	1.79299
2048.67	-1.00078
2048.91	1.79943
2049.16	-0.993871
2049.4	0.877549
2049.65	-0.0495787
2049.89	2.75667
2050.14	3.69921
2050.39	-1.8959
2050.63	1.84648
2050.88	0.91735
2051.12	1.85476
2051.37	0.921753
2051.61	0.920693
2051.86	-3.75053
2052.11	0.920312
2052.35	-0.0107574
2052.6	1.8618
2052.84	-0.00296307
2053.09	0.935345
2053.33	-0.928032
2053.58	0.0116978
2053.82	0.95278
2054.07	0.0279732
2054.31	-1.83725
2054.56	0.0378571
2054.8	0.976268
2055.05	-0.892541
2055.3	0.979917
2055.54	0.981199
2055.79	0.979692
2056.03	-0.889722
2056.28	1.91692
2056.52	-2.75661
2056.77	-1.82075
2057.01	0.0502872
2057.26	2.85681
2057.5	-0.878786
2057.75	0.0597277
2058	0.0642281
2058.24	1.00427
2058.49	1.94463
2058.73	0.0805645
2058.98	1.02243
2059.22	1.02849
2059.47	-0.838464
2059.71	1.97345
2059.96	-1.7677
2060.2	1.04384
2060.45	2.91654
2060.69	1.98044
2060.94	1.98118
2061.18	-0.821959
2061.43	1.05505
2061.67	0.123199
2061.92	1.06283
2062.16	-0.806694
2062.41	2.00549
2062.65	1.07306
2062.9	0.141055
2063.14	-0.790637
2063.39	1.08837
2063.63	0.156922
2063.88	-1.71245
2064.12	2.0407
2064.37	-0.766953
2064.61	1.11177
2064.86	2.05398
2065.1	-1.69121
2065.35	1.12841
2065.59	-0.740058
2065.84	0.205282
2066.08	1.15057
2066.33	1.15668
2066.57	-0.716149
2066.82	-0.712701
2067.06	1.17002
2067.31	0.235502
2067.55	-1.63898
2067.8	-0.694804
2068.04	1.18976
2068.29	2.13475
2068.53	1.19963
2068.78	2.14345
2069.02	2.14902
2069.27	3.09224
2069.51	1.21251
2069.76	-0.668761
2070	1.20627
2070.25	-2.55015
2070.49	0.27164
2070.73	0.281153
2070.98	-1.58816
2071.22	0.303177
2071.47	0.304971
2071.71	2.18377
2071.96	0.324268
2072.2	-2.49161
2072.45	0.335521
2072.69	3.1622
2072.94	1.28141
2073.18	-1.54159
2073.43	0.344402
2073.67	-0.59493
2073.92	0.350265
2074.16	0.353805
2074.4	-1.52548
2074.65	-1.5209
2074.89	-1.51526
2075.14	-0.566379
2075.38	0.38432
2075.63	2.28027
2075.87	-2.42451
2076.12	0.414605
2076.36	2.30856
2076.6	0.424061
2076.85	1.37191
2077.09	-0.51474
2077.34	4.20406
2077.58	0.428508
2077.83	0.424314
2078.07	0.425606
2078.31	-2.39873
2078.56	-0.506166
2078.8	0.441678
2079.05	-1.4408
2079.29	-0.492029
2079.54	-0.485353
2079.78	1.41343
2080.03	0.475427
2080.27	1.42605
2080.51	-1.40268
2080.76	0.492264
2081	-3.28438
2081.25	-1.39262
2081.49	-0.445603
2081.74	1.44676
2081.98	-1.38469
2082.22	-0.437243
2082.47	2.40167
2082.71	-0.428587
2082.96	-1.36954
2083.2	-1.36605
2083.45	-1.3631
2083.69	1.47443
2083.93	1.47696
2084.18	1.48022
2084.42	-1.3512
2084.67	1.4867
2084.91	-2.28968
2085.15	-0.396031
2085.4	0.552338
2085.64	-3.22453
2085.89	3.39389
2086.13	-2.27208
2086.37	3.40655
2086.62	1.5245
2086.86	0.585779
2087.11	-0.35536
2087.35	-0.350262
2087.59	-0.344522
2087.84	-2.23254
2088.08	0.609947
2088.32	-1.2793
2088.57	1.56363
2088.81	-0.325269
2089.06	0.625331
2089.3	-0.317193
2089.54	-0.311576
2089.79	1.58805
2090.03	-3.13994
2090.28	-0.293777
2090.52	-1.23701
2090.76	-0.285333
2091.01	1.61429
2091.25	-1.22325
2091.5	-1.21838
2091.74	0.681997
2091.98	1.63747
2092.23	-2.14762
2092.47	0.705806
2092.72	0.714286
2092.96	0.723146
2093.2	-1.16836
2093.45	0.738085
2093.69	-1.15462
2093.93	-3.04847
2094.18	-1.14162
2094.42	1.71642
2094.66	-2.08224
2094.91	0.77333
2095.15	-1.12551
2095.39	1.72875
2095.64	-1.1222
2095.88	0.779202
2096.13	0.780288
2096.37	-2.0684
2096.61	-1.11602
2096.86	0.786736
2097.1	0.789444
2097.34	-0.159158
2097.59	1.74046
2097.83	-1.10782
2098.07	-3.00434
2098.32	-0.153737
2098.56	1.7474
2098.8	1.74833
2099.05	-2.99391
2099.29	0.805552
2099.53	-2.03918
2099.78	3.65766
2100.02	-3.93129
2100.27	1.76624
2100.51	-3.92412
2100.75	-1.07286
2101	-1.0681
2101.24	2.73645
2101.48	-0.105574
2101.73	-0.100332
2101.97	0.853796
2102.21	-0.0926504
2102.45	1.80995
2102.7	-0.0861921
2102.94	-0.0837078
2103.18	1.81646
2103.43	2.76579
2103.67	-1.03004
2103.92	-1.97635
2104.16	-0.0752726
2104.4	-0.0716248
2104.64	-1.01632
2104.89	-1.0108
2105.13	0.893931
2105.37	0.899534
2105.62	-1.94414
2105.86	2.813
2106.1	-0.981632
2106.35	-0.976719
2106.59	0.929194
2106.83	0.933398
2107.08	1.88813
2107.32	1.89306
2107.56	1.897
2107.8	-2.85496
2108.05	-1.90341
2108.29	-0.00288391
2108.53	-0.00365067
2108.78	-0.954083
2109.02	-0.953684
2109.26	-0.00201607
2109.51	0.00197124
2109.75	-0.940613
2109.99	0.0155449
2110.23	1.91901
2110.48	0.0224552
2110.72	0.975753
2110.96	-1.87089
2111.21	-0.917534
2111.45	0.0356464
2111.69	-1.86187
2111.93	-0.910542
2112.18	-0.908648
2112.42	0.0434856
2112.66	1.94601
2112.91	-1.84793
2113.15	1.00625
2113.39	-1.8384
2113.63	1.01872
2113.88	-0.875489
2114.12	1.98067
2114.36	-0.868326
2114.61	1.03446
2114.85	0.0871019
2115.09	0.0911007
2115.33	1.04518
2115.58	1.99799
2115.82	-0.851015
2116.06	-0.84881
2116.31	-0.846695
2116.55	2.0036
2116.79	0.104138
2117.03	0.106039
2117.28	2.00779
2117.52	1.06078
2117.76	-0.834546
2118	-0.8327
2118.25	0.117762
2118.49	-0.830678
2118.73	0.117879
2118.97	1.06544
2119.22	0.116595
2119.46	-0.831586
2119.7	-0.831275
2119.94	0.116989
2120.19	1.0652
2120.43	-0.829021
2120.67	2.01606
2120.91	1.07223
2121.16	1.07808
2121.4	1.0828
2121.64	-3.65058
2121.88	3.9415
2122.13	0.154946
2122.37	1.10995
2122.61	-1.73052
2122.85	-1.72533
2123.1	-0.77123
2123.34	0.18285
2123.58	0.187278
2123.82	-1.70773
2124.07	1.14237
2124.31	1.14378
2124.55	0.195193
2124.79	-1.70313
2125.03	0.191738
2125.28	-0.760199
2125.52	-1.71076
2125.76	-1.71207
2126	1.12789
2126.25	0.179749
2126.49	-0.767419
2126.73	-0.767238
2126.97	-0.76705
2127.21	0.17886
2127.46	1.12447
2127.7	-1.71038
2127.94	-0.762497
2128.18	0.185172
2128.43	0.186677
2128.67	-2.64696
2128.91	0.191953
2129.15	-0.750168
2129.39	1.14279
2129.64	0.199424
2129.88	2.09167
2130.12	-1.68626
2130.36	1.15119
2130.6	0.20832
2130.85	1.15509
2131.09	-0.733016
2131.33	2.10235
2131.57	0.213817
2131.81	2.10328
2132.06	-0.728872
2132.3	-1.6714
2132.54	-1.66989
2132.78	2.10607
2133.02	0.218551
2133.27	0.22008
2133.51	1.16644
2133.75	1.17006
2133.99	1.17363
2134.23	1.17673
2134.48	0.236643
2134.72	-0.703732
2134.96	0.242582
2135.2	-1.64238
2135.44	0.247544
2135.68	2.13702
2135.93	-2.57955
2136.17	-2.57873
2136.41	-0.693287
2136.65	0.248257
2136.89	-0.693737
2137.14	-0.690268
2137.38	0.255927
2137.62	1.20187
2137.86	1.20643
2138.1	1.21268
2138.34	0.271257
2138.59	0.269857
2138.83	2.15467
2139.07	2.16055
2139.31	1.22568
2139.55	1.23216
2139.79	-0.658512
2140.03	0.281442
2140.28	-2.5452
2140.52	-0.659983
2140.76	0.283028
2141	2.168
2141.24	-0.65611
2141.49	-0.654481
2141.73	-0.65157
2141.97	2.17313
2142.21	-0.652052
2142.45	0.290742
2142.69	-0.647872
2142.93	-1.58398
2143.18	-0.63765
2143.42	1.26117
2143.66	1.25759
2143.9	0.281178
2144.14	-1.59559
2144.38	-0.650704
2144.62	-0.64323
2144.87	0.304637
2145.11	2.19159
2145.35	2.18461
2145.59	-1.57234
2145.83	-2.50946
2146.07	0.313135
2146.31	-0.625682
2146.55	0.315751
2146.8	3.13709
2147.04	0.318459
2147.28	-3.43981
2147.52	0.319953
2147.76	-0.619099
2148	-2.49722
2148.24	2.20082
2148.48	0.322865
2148.73	2.20189
2148.97	1.26318
2149.21	4.07983
2149.45	-0.614904
2149.69	0.322712
2149.93	2.1951
2150.17	1.25585
2150.42	0.316403
2150.66	-0.621575
2150.9	-2.49519
2151.14	0.318799
2151.38	4.07188
2151.62	-0.610257
2151.86	0.331124
2152.1	1.27355
2152.34	1.27696
2152.58	-0.594424
2152.83	-0.594167
2153.07	2.21932
2153.31	-1.53157
2153.55	1.28071
2153.79	1.28166
2154.03	1.28249
2154.27	-0.592003
2154.51	-1.52995
2154.75	0.340906
2154.99	2.20909
2155.24	-1.53819
2155.48	2.19944
2155.72	-1.54364
2155.96	0.324159
2156.2	3.12602
2156.44	3.12486
2156.68	-0.611624
2156.92	1.25824
2157.16	1.25998
2157.4	-0.606103
2157.64	-0.602983
2157.89	-0.598961
2158.13	1.27472
2158.37	-0.59003
2158.61	0.347365
2158.85	0.349327
2159.09	1.28541
2159.33	0.351494
2159.57	-0.582797
2159.81	1.28564
2160.05	1.28451
2160.29	2.21657
2160.53	-0.586596
2160.77	1.27927
2161.01	0.344917
2161.25	3.14479
2161.5	1.27955
2161.74	0.346991
2161.98	2.21342
2162.22	-0.584019
2162.46	2.21659
2162.7	0.352715
2162.94	0.354346
2163.18	-0.577888
2163.42	0.354859
2163.66	1.2877
2163.9	0.35544
2164.14	0.355675
2164.38	1.28805
2164.62	1.2865
2164.86	1.28421
2165.11	0.351779
2165.35	-0.577599
2165.59	0.357364
2165.83	1.29115
2166.07	2.225
2166.31	1.29503
2166.55	-2.43212
2166.79	1.29496
2167.03	1.29432
2167.27	-2.43244
2167.51	2.22347
2167.75	-0.571633
2167.99	0.356633
2168.23	2.21165
2168.47	0.346306
2168.71	1.27532
2168.95	-0.582754
2169.19	0.349345
2169.43	1.28272
2169.67	0.357433
2169.91	-0.567191
2170.15	-1.49156
2170.39	0.376925
2170.63	2.24417
2170.87	-1.47804
2171.11	2.24752
2171.35	0.383679
2171.59	-1.4781
2171.83	2.24061
2172.07	-1.48921
2172.31	2.22587
2172.56	0.365362
2172.79	1.2935
2173.04	0.36369
2173.28	-0.564416
2173.51	0.365835
2173.76	1.29609
2174	-2.41799
2174.24	2.2312
2174.48	2.23409
2174.72	2.23618
2174.96	-0.550508
2175.2	-0.549311
2175.44	-0.548254
2175.68	1.3108
2175.92	2.24036
2176.16	-0.546677
2176.4	0.383053
2176.64	1.3122
2176.88	1.311
2177.12	1.31123
2177.36	-0.545367
2177.6	1.31408
2177.84	2.2445
2178.08	0.387442
2178.32	-2.39781
2178.55	0.3889
2178.8	0.386115
2179.03	0.384315
2179.28	-1.47183
2179.52	-0.541692
2179.75	0.388102
2180	2.24636
2180.23	-0.538164
2180.47	4.1053
2180.71	-1.46505
2180.95	2.24884
2181.19	0.392084
2181.43	1.32102
2181.67	0.392766
2181.91	1.32018
2182.15	0.391324
2182.39	-1.46453
2182.63	0.390557
2182.87	-1.46552
2183.11	-0.538066
2183.35	2.24283
2183.59	0.385348
2183.83	0.381994
2184.07	0.379786
2184.31	-0.548374
2184.55	2.23025
2184.79	-0.549297
2185.03	0.378556
2185.27	-1.47254
2185.51	0.382704
2185.75	-1.46901
2185.99	-0.539727
2186.23	0.390423
2186.47	1.32108
2186.7	1.32456
2186.95	-0.525694
2187.18	2.2631
2187.42	-0.516142
2187.66	-1.44003
2187.9	1.34967
2188.14	0.422397
2188.38	4.13636
2188.62	1.34821
2188.86	-2.36765
2189.1	-0.513213
2189.34	1.34003
2189.58	5.04716
2189.82	0.404505
2190.06	-2.38033
2190.3	1.32672
2190.54	0.399672
2190.78	0.400539
2191.01	-0.524755
2191.25	-0.523102
2191.49	4.11323
2191.73	0.405931
2191.97	0.407638
2192.21	0.409435
2192.45	1.33867
2192.69	3.1955
2192.93	2.2699
2193.17	1.34528
2193.41	1.3484
2193.65	0.42324
2193.89	3.21193
2194.13	0.433529
2194.36	2.29935
2194.6	-0.483451
2194.84	1.37869
2195.08	2.30783
2195.32	0.447178
2195.56	-0.483412
2195.8	1.37334
2196.04	-0.487881
2196.28	-0.491458
2196.52	-1.42443
2196.76	-1.42824
2197	1.35281
2197.23	3.20568
2197.47	0.420074
2197.71	0.418131
2197.95	3.20097
2198.19	2.27413
2198.43	0.420785
2198.67	3.20807
2198.91	1.3564
2199.15	2.28959
2199.38	2.2954
2199.62	-0.486685
2199.86	2.30591
2200.1	0.452189
2200.34	6.03986
2200.58	4.18959
2200.82	2.33615
2201.06	-0.451344
2201.3	0.484472
2201.54	0.488121
2201.77	-0.449455
2202.01	2.32842
2202.25	3.22219
2202.49	1.3428
2202.73	0.424763
2202.97	3.23845
2203.21	2.3218
2203.45	1.38714
2203.68	1.38385
2203.92	-0.46394
2204.16	2.38081
2204.4	1.42796
2204.64	5.15632
2204.88	0.496603
2205.12	2.35038
2205.36	3.26669
2205.59	3.25278
2205.83	5.10263
2206.07	3.24017
2206.31	-0.478518
2206.55	3.24422
2206.79	-0.475307
2207.03	1.37871
2207.26	0.449759
2207.5	3.24123
2207.74	3.24424
2207.98	1.38718
2208.22	2.3207
2208.46	0.462708
2208.7	-0.46542
2208.93	2.32977
2209.17	2.33187
2209.41	0.47081
2209.65	-2.32251
2209.89	0.471187
2210.13	1.40172
2210.36	1.40195
2210.6	0.472146
2210.84	2.33707
2211.08	1.40763
2211.32	0.477858
2211.56	2.34381
2211.8	2.3462
2212.03	3.28181
2212.27	-0.445387
2212.51	1.42181
2212.75	-2.30888
2212.99	0.48826
2213.23	0.486329
2213.46	1.41709
2213.7	0.48167
2213.94	-0.453698
2214.18	-0.453432
2214.42	-0.451233
2214.66	-0.446115
2214.89	-1.37467
2215.13	-0.440397
2215.37	0.493768
2215.61	0.494182
2215.85	1.42793
2216.08	-1.3732
2216.32	-2.30739
2216.56	-0.440822
2216.8	-0.441784
2217.04	1.42419
2217.28	0.489407
2217.51	0.488765
2217.75	-0.444912
2217.99	1.4224
2218.23	-0.445598
2218.47	-0.446413
2218.7	1.42092
2218.94	-1.37958
2219.18	1.42332
2219.42	2.35952
2219.66	0.493342
2219.9	2.36307
2220.13	0.495408
2220.37	-0.43846
2220.61	-3.24332
2220.85	0.493713
2221.09	0.492456
2221.32	2.35911
2221.56	-0.448222
2221.8	-2.32061
2222.04	-1.39022
2222.27	-0.459826
2222.51	3.2716
2222.75	0.469936
2222.99	1.40373
2223.23	0.471492
2223.46	-0.460982
2223.7	-0.459485
2223.94	-0.457061
2224.18	-0.453895
2224.42	0.484279
2224.65	3.29284
2224.89	-0.444913
2225.13	2.36381
2225.37	-0.440678
2225.6	-0.438168
2225.84	0.501116
2226.08	0.503498
2226.32	0.505676
2226.56	0.507957
2226.79	-0.427712
2227.03	0.511539
2227.27	1.45089
2227.51	0.51489
2227.74	0.515719
2227.98	-0.422004
2228.22	1.45221
2228.46	-0.425303
2228.69	-0.427273
2228.93	-0.429191
2229.17	-0.430897
2229.41	-2.30757
2229.64	1.44133
2229.88	-0.432327
2230.12	0.508162
2230.36	-2.30367
2230.6	2.38896
2230.83	0.514146
2231.07	3.3322
2231.31	1.45713
2231.55	1.45975
2231.78	2.40189
2232.02	0.524963
2232.26	0.526858
2232.5	-0.411235
2232.73	3.35094
2232.97	-0.408125
2233.21	0.533913
2233.45	0.535495
2233.68	-0.403748
2233.92	0.538796
2234.16	0.539797
2234.39	4.30554
2234.63	0.538464
2234.87	-1.34618
2235.11	-0.407774
2235.34	1.47044
2235.58	2.40436
2235.82	1.45867
2236.06	-0.422834
2236.29	2.39782
2236.53	-1.36424
2236.77	-0.424135
2237	1.45641
2237.24	-0.425144
2237.48	1.45866
2237.72	0.519767
2237.95	-0.417178
2238.19	1.47107
2238.43	1.4759
2238.67	-1.34834
2238.9	-2.28888
2239.14	1.48563
2239.38	-2.28333
2239.61	2.4335
2239.85	0.544147
2240.09	0.540965
2240.33	-1.35031
2240.56	-1.35464
2240.8	-2.30001
2241.04	-2.29617
2241.27	-0.406008
2241.51	1.48067
2241.75	0.536922
2241.99	3.3678
2242.22	2.42401
2242.46	-0.407148
2242.7	0.537052
2242.93	-0.406368
2243.17	0.536758
2243.41	0.534949
2243.64	3.3635
2243.88	-2.30302
2244.12	-1.36148
2244.36	0.524267
2244.59	-0.420214
2244.83	-3.25099
2245.07	0.527614
2245.3	0.53238
2245.54	0.536522
2245.78	0.538738
2246.01	0.540391
2246.25	1.48781
2246.49	1.48977
2246.72	-0.400618
2246.96	-1.34652
2247.2	1.49266
2247.43	-3.23777
2247.67	2.44057
2247.91	-0.399326
2248.14	0.54569
2248.38	2.43648
2248.62	0.541478
2248.85	1.4856
2249.09	0.537212
2249.33	-1.35732
2249.56	-1.35912
2249.8	-0.411816
2250.04	-2.30435
2250.27	-3.25223
2250.51	0.53053
2250.75	-1.36597
2250.98	-0.423904
2251.22	1.46305
2251.46	1.4589
2251.69	-1.38102
2251.93	1.45325
2252.17	1.45258
2252.4	-0.438109
2252.64	1.45422
2252.88	-2.32758
2253.11	-0.432577
2253.35	-1.37314
2253.59	-0.422357
2253.82	0.527912
2254.06	-1.36516
2254.3	-0.416213
2254.53	-0.414796
2254.77	1.48214
2255.01	0.532998
2255.24	1.4784
2255.48	-1.36655
2255.72	-1.36774
2255.95	1.4761
2256.19	-0.420981
2256.42	-0.419876
2256.66	-1.36713
2256.9	-0.41736
2257.13	1.48153
2257.37	-0.415273
2257.61	1.48428
2257.84	-0.41336
2258.08	-2.31217
2258.32	0.536075
2258.55	-3.26313
2258.79	-1.36421
2259.02	1.48525
2259.26	0.536312
2259.5	-1.36291
2259.73	1.48775
2259.97	-0.412755
2260.2	-0.412366
2260.44	0.538402
2260.68	-0.41197
2260.91	5.29247
2261.15	-0.410945
2261.39	1.49465
2261.62	0.54541
2261.86	-0.406538
2262.1	1.49614
2262.33	0.544677
2262.57	-0.406934
2262.8	-0.406157
2263.04	0.547637
2263.28	1.50204
2263.51	-1.3525
2263.75	-0.396877
2263.98	-2.29951
2264.22	-0.388837
2264.46	1.52315
2264.69	-1.33531
2264.93	-2.28725
2265.16	-0.375933
2265.4	0.580805
2265.64	2.49268
2265.87	-0.37353
2266.11	-0.374097
2266.34	-2.28672
2266.58	-1.33553
2266.81	-0.384941
2267.05	-2.29861
2267.29	-0.393717
2267.52	0.557032
2267.76	-0.400325
2267.99	2.45805
2268.23	-0.40783
2268.47	1.49577
2268.7	-0.413239
2268.94	-3.27443
2269.17	-0.413032
2269.41	-0.411138
2269.65	0.545621
2269.88	1.50322
2270.12	-0.402488
2270.35	1.51141
2270.59	1.51539
2270.82	-0.393688
2271.06	0.562726
2271.3	-0.390944
2271.53	-0.389466
2271.77	-1.3449
2272	-1.34409
2272.24	-0.3861
2272.47	-0.385661
2272.71	0.570323
2272.95	-2.30014
2273.18	0.569854
2273.42	-2.30078
2273.65	-0.387316
2273.89	0.569441
2274.12	-0.387721
2274.36	0.569123
2274.6	0.568868
2274.83	0.568718
2275.07	2.48311
2275.3	-1.34589
2275.54	0.568683
2275.77	1.5262
2276.01	-2.30493
2276.24	-2.30406
2276.48	2.487
2276.72	-1.34193
2276.95	0.57663
2277.18	2.49576
2277.42	1.54
2277.66	-3.25078
2277.89	-0.369265
2278.13	-0.364615
2278.36	-1.31967
2278.6	1.56256
2278.83	-0.35795
2279.07	1.56233
2279.3	0.600484
2279.54	-0.361663
2279.78	0.595204
2280.01	-1.33189
2280.24	-1.3365
2280.48	-0.381578
2280.72	3.4505
2280.95	-1.34797
2281.19	1.52551
2281.42	1.52321
2281.66	0.561917
2281.89	-1.35708
2282.13	1.51924
2282.36	-0.397547
2282.6	1.52128
2282.83	0.564792
2283.07	2.486
2283.3	-2.30788
2283.54	-2.30512
2283.77	-1.34092
2284.01	1.54616
2284.24	-4.21355
2284.48	-0.363704
2284.71	0.60113
2284.95	1.56409
2285.19	2.52924
2285.42	1.57018
2285.65	-2.27861
2285.89	-0.354091
2286.12	-3.24428
2286.36	1.56005
2286.59	-0.364643
2286.83	-0.364165
2287.06	0.599634
2287.3	-3.24393
2287.54	-2.27722
2287.77	-0.34985
2288	2.54066
2288.24	0.617943
2288.47	-1.3104
2288.71	2.54005
2288.94	2.53702
2289.18	0.607624
2289.41	2.52783
2289.65	0.59646
2289.88	1.55278
2290.12	0.584135
2290.35	-2.30272
2290.59	-1.34307
2290.82	1.54057
2291.06	0.579125
2291.29	-0.380589
2291.53	-2.30084
2291.76	-1.33509
2292	0.592175
2292.23	0.594423
2292.47	-2.29141
2292.7	-1.32656
2292.94	-0.360692
2293.17	3.49547
2293.41	-0.355762
2293.64	-0.353984
2293.88	-1.31652
2294.11	2.53934
2294.34	1.57399
2294.58	-2.28293
2294.81	0.605495
2295.05	2.52906
2295.28	0.599939
2295.52	-0.365499
2295.75	-0.367781
2295.99	-1.33283
2296.22	-1.33464
2296.46	-0.375453
2296.69	0.580667
2296.93	-3.26865
2297.16	-0.381496
2297.39	0.582594
2297.63	1.54768
2297.86	1.55113
2298.1	0.592502
2298.33	-0.365848
2298.57	-0.362911
2298.8	1.56633
2299.04	-1.32228
2299.27	-2.28319
2299.51	-0.351969
2299.74	0.614958
2299.97	0.616339
2300.21	-0.348631
2300.44	-0.34866
2300.68	0.615528
2300.91	-1.31229
2301.15	-2.27504
2301.38	0.621614
2301.61	2.55362
2301.85	2.55476
2302.08	0.624554
2302.32	-0.34121
2302.55	1.58782
2302.79	0.621602
2303.02	2.55223
2303.25	1.58672
2303.49	-1.3094
2303.72	-0.344558
2303.96	0.620806
2304.19	-0.342884
2304.43	-3.23654
2304.66	1.59289
2304.89	2.56039
2305.13	-0.334461
2305.36	-0.331726
2305.6	-1.29616
2305.83	-0.329293
2306.07	0.638177
2306.3	-2.25893
2306.53	0.64214
2306.77	-2.25674
2307	1.60987
2307.24	0.643198
2307.47	-1.29027
2307.7	-2.25784
2307.94	-1.29293
2308.17	0.638741
2308.41	0.637471
2308.64	-1.29589
2308.87	0.636448
2309.11	1.60345
2309.34	-0.326612
2309.58	2.57543
2309.81	0.646385
2310.04	0.651325
2310.28	1.62203
2310.51	-0.310975
2310.75	-1.27781
2310.98	1.62414
2311.21	-0.311952
2311.45	-2.2492
2311.68	3.5431
2311.92	-2.26367
2312.15	-2.2678
2312.38	0.625254
2312.62	-0.341935
2312.85	0.620783
2313.08	-0.345868
2313.32	-0.345865
2313.55	0.620998
2313.79	-0.339482
2314.02	0.631924
2314.25	1.6026
2314.49	1.60759
2314.72	1.61275
2314.95	2.58599
2315.19	0.657448
2315.42	0.66029
2315.66	-0.310681
2315.89	-2.24792
2316.12	-0.316603
2316.36	0.646349
2316.59	0.638344
2316.82	0.634277
2317.06	-0.333209
2317.29	1.59786
2317.52	1.59897
2317.76	-2.26263
2317.99	0.63873
2318.23	0.641683
2318.46	-1.29483
2318.69	-1.29678
2318.93	-1.29829
2319.16	1.59601
2319.39	-0.336883
2319.63	1.59143
2319.86	-0.340055
2320.09	-2.27068
2320.33	2.55421
2320.56	1.58998
2320.79	-0.339807
2321.03	2.55695
2321.26	-0.335868
2321.5	1.59746
2321.73	-0.330415
2321.96	2.57022
2322.2	1.60924
2322.43	3.54724
2322.66	2.58555
2322.9	2.58751
2323.13	0.653546
2323.36	2.58794
2323.6	2.58942
2323.83	0.656863
2324.06	2.59202
2324.3	2.59275
2324.53	5.49308
2324.76	4.52544
2325	7.42102
2325.23	4.51525
2325.46	7.40674
2325.7	9.33343
2325.93	10.2945
2326.16	10.2898
2326.4	13.1806
2326.63	18.9651
2326.86	23.7821
2327.09	40.1727
2327.33	67.1647
2327.56	84.5023
2327.79	89.3082
2328.03	76.7602
2328.26	54.5828
2328.49	39.1648
2328.73	22.7798
2328.96	16.9975
2329.19	10.2453
2329.43	10.2406
2329.66	10.234
2329.89	8.3053
2330.13	4.45175
2330.36	5.41749
2330.59	2.52644
2330.82	3.4881
2331.06	5.41243
2331.29	1.55962
2331.52	-0.365529
2331.76	1.56288
2331.99	-2.28815
2332.22	4.46006
2332.46	-0.362141
2332.69	4.45077
2332.92	0.595675
2333.16	-0.369525
2333.39	-0.371629
2333.62	2.51435
2333.85	4.43735
2334.09	-0.377076
2334.32	-1.34168
2334.55	-0.382013
2334.79	0.575923
2335.02	1.53511
2335.25	-1.352
2335.48	1.53216
2335.72	2.49248
2335.95	1.53106
2336.18	1.53176
2336.41	0.569082
2336.65	0.567007
2336.88	2.48863
2337.11	0.564346
2337.34	2.48618
2337.58	0.561906
2337.81	1.52207
2338.04	2.48143
2338.28	-0.404148
2338.51	-0.405446
2338.74	1.51552
2338.97	-1.3691
2339.21	-1.36935
2339.44	0.552626
2339.67	-1.37064
2339.91	0.550502
2340.14	0.548439
2340.37	-0.415279
2340.6	-0.418546
2340.84	-0.421885
2341.07	0.534485
2341.3	-0.43089
2341.53	1.48337
2341.77	1.47625
2342	-3.32566
2342.23	-1.41065
2342.46	-0.455056
2342.7	1.45918
2342.93	1.45619
2343.16	0.495405
2343.39	1.45244
2343.63	2.40993
2343.86	2.40782
2344.09	0.488708
2344.32	3.36317
2344.56	0.487119
2344.79	-0.472482
2345.02	0.48425
2345.25	-3.35258
2345.49	0.478563
2345.72	0.474524
2345.95	2.38511
2346.18	1.42239
2346.41	1.41767
2346.65	-1.45824
2346.88	0.454426
2347.11	-0.505746
2347.34	-2.42384
2347.58	-0.511923
2347.81	0.443193
2348.04	-1.47332
2348.27	1.39787
2348.5	2.35527
2348.74	1.39681
2348.97	-0.520835
2349.2	1.3908
2349.43	-2.44391
2349.67	-2.4514
2349.9	-0.545728
2350.13	0.400959
2350.36	0.389554
2350.59	2.28586
2350.83	0.354139
2351.06	-0.631691
2351.29	1.29389
2351.52	1.34554
2351.75	-1.51304
2351.99	-0.587115
2352.22	-0.605605
2352.45	1.30162
2352.68	-0.608588
2352.91	0.333816
2353.15	-3.49545
2353.38	1.25585
2353.61	2.20937
2353.84	-0.653302
2354.07	2.19802
2354.31	-0.662559
2354.54	-2.57143
2354.77	0.286014
2355	1.23886
2355.23	0.281842
2355.47	1.22996
2355.7	-1.63345
2355.93	-3.54386
2356.16	-0.691473
2356.39	0.254518
2356.63	-0.70641
2356.86	2.13775
2357.09	0.224648
2357.32	1.1684
2357.55	0.210451
2357.79	-0.747163
2358.02	0.196934
2358.25	0.190278
2358.48	0.184069
2358.71	0.178222
2358.94	-2.68011
2359.18	1.11392
2359.41	-0.792044
2359.64	0.152068
2359.87	-0.804615
2360.1	1.08708
2360.33	0.129041
2360.57	2.96789
2360.8	-3.68451
2361.03	2.00008
2361.26	1.04205
2361.49	1.98086
2361.72	0.0748301
2361.96	-0.882586
2362.19	-0.892076
2362.42	1.94003
2362.65	-3.75297
2362.88	-1.86791
2363.11	0.0165854
2363.34	0.00761318
2363.58	-0.00112724
2363.81	1.88314
2364.04	-0.963823
2364.27	0.919946
2364.5	-1.9269
2364.73	0.901609
2364.97	1.83788
