#Acq. time (s)=	30
#Accumulations=	2
#Range (cm-¹)=	1200...2365
#Windows=	3
#Auto scanning=	Off
#Autofocus=	Off
#Macrospot=	Off
#AutoExposure=	Off
#Spike filter=	Multiple accum.
#Delay time (s)=	2
#Binning=	1
#Readout mode=	Signal
#DeNoise=	Off
#ICS correction=	On
#Dark correction=	Off
#Inst. Process=	Off
#Detector Gain=	Best Dynamic
#Detector ADC=	50 kHz HS
#Detector temperature (°C)=	-60.09
#Instrument=	LabRAM HR Evol
#Detector=	SIN-EM FIVIS
#Objective=	x100_VIS_LWD
#Grating=	1800 (450-850nm)
#ND Filter=	100%
#Laser=	532nm_Edge
#Hole=	100.021
#Temperature=	0
#Range=	Visible
#StageXY=	75x50mm Scan+
#StageZ=	Z motor
#X (µm)=	0
#Y (µm)=	0
#Z (µm)=	-51.2
#Full time(mm:ss)=	3:17
#Project=	21_11_26
#Sample=	BU19(2)w
#Site=	
#Title=	BU19(2)w-A-FF2-FI05-V_1800 (450-850nm)_532nm_Edge_100%_x100_VIS_LWD_H100um_30sX2
#Remark=	
#Date=	26.11.2021 15:09
#Acquired=	26.11.2021 15:09:56
#Base:Fit=	16.12.2021 16:00:56
#Base:Fit=	16.12.2021 16:11:37
#Base:Sub=	16.12.2021 16:11:38
1202.72	11.625
1203	17.281
1203.28	13.0096
1203.56	5.31161
1203.84	1.89182
1204.11	16.8133
1204.39	4.86697
1204.67	1.61287
1204.95	-2.70374
1205.23	-2.78233
1205.5	5.69699
1205.78	0.200104
1206.06	15.0938
1206.34	14.9468
1206.61	-1.28656
1206.89	7.15076
1207.17	-0.494431
1207.45	7.94989
1207.73	3.5654
1208	21.6673
1208.28	8.73671
1208.56	11.854
1208.84	4.25017
1209.11	3.07281
1209.39	1.89775
1209.67	11.4423
1209.95	-2.51906
1210.23	3.82233
1210.5	-5.89404
1210.78	9.99446
1211.06	11.9896
1211.34	6.52565
1211.61	4.25433
1211.89	-10.8019
1212.17	2.92661
1212.45	4.92058
1212.72	-6.91928
1213	-12.364
1213.28	6.69006
1213.56	0.196671
1213.83	-0.956512
1214.11	1.06682
1214.39	3.14082
1214.67	-3.30417
1214.94	20.056
1215.22	-4.49855
1215.5	-18.4123
1215.78	-21.6818
1216.05	13.3641
1216.33	8.98473
1216.61	0.331436
1216.89	0.17601
1217.16	12.7822
1217.44	5.20903
1217.72	-0.232132
1218	6.0117
1218.27	-7.90984
1218.55	0.468231
1218.83	-7.07451
1219.1	6.62621
1219.38	7.60078
1219.66	8.56973
1219.94	-0.0162201
1220.21	0.935745
1220.49	0.855896
1220.77	2.9043
1221.04	-6.72635
1221.32	0.603088
1221.6	4.73347
1221.88	-22.9412
1222.15	1.30693
1222.43	-6.26358
1222.71	6.2778
1222.98	-6.6031
1223.26	-5.71454
1223.54	8.92291
1223.81	-2.86813
1224.09	-7.24123
1224.37	-10.5558
1224.65	8.32611
1224.92	1.87375
1225.2	-4.56505
1225.48	-2.53738
1225.76	1.63229
1226.03	-8.98216
1226.31	6.80415
1226.59	-10.1804
1226.86	2.39691
1227.14	-0.887558
1227.42	5.33141
1227.69	-3.2946
1227.97	-2.51266
1228.25	5.71222
1228.52	5.51381
1228.8	-4.22955
1229.08	2.89409
1229.35	4.89954
1229.63	0.0714569
1229.91	4.64973
1230.18	-4.06403
1230.46	5.14885
1230.74	16.5799
1231.01	13.3644
1231.29	-2.63472
1231.57	1.09021
1231.84	-5.25703
1232.12	0.964172
1232.4	-0.173584
1232.67	-5.53134
1232.95	-0.362823
1233.23	-5.70724
1233.5	-2.65511
1233.78	7.76428
1234.06	-1.75835
1234.33	1.3322
1234.61	-6.0817
1234.89	-1.92863
1235.16	-16.6889
1235.44	-6.24158
1235.71	-4.2001
1235.99	-7.40874
1236.27	5.1454
1236.54	0.856903
1236.82	3.90572
1237.1	2.74229
1237.37	1.56656
1237.65	-1.73424
1237.93	11.7653
1238.2	4.26016
1238.48	-11.6358
1238.76	3.95067
1239.03	-0.380585
1239.31	-0.494766
1239.58	-1.64963
1239.86	18.1686
1240.14	8.64195
1240.41	-4.02121
1240.69	-3.05144
1240.97	-7.31604
1241.24	-0.0447998
1241.52	-10.5968
1241.79	-3.35396
1242.07	13.3006
1242.35	4.81552
1242.62	7.88683
1242.9	7.82402
1243.18	-5.84714
1243.45	1.44205
1243.73	-0.732925
1244	9.67668
1244.28	-2.96405
1244.56	-0.94487
1244.83	14.6907
1245.11	0.968185
1245.39	7.13602
1245.66	2.81688
1245.94	11.0484
1246.21	-0.61499
1246.49	-16.42
1246.76	5.47273
1247.04	2.26077
1247.32	0.0904999
1247.59	10.4666
1247.87	16.67
1248.14	-2.26309
1248.42	5.95706
1248.7	7.93553
1248.97	5.7621
1249.25	-0.570953
1249.52	2.51247
1249.8	19.1626
1250.08	12.8097
1250.35	12.7426
1250.63	12.6263
1250.9	-5.27197
1251.18	-1.20595
1251.45	9.13387
1251.73	11.1167
1252.01	3.6981
1252.28	4.63571
1252.56	1.39647
1252.83	20.0822
1253.11	4.30954
1253.39	8.3764
1253.66	2.02777
1253.94	12.3983
1254.21	12.3687
1254.49	14.4336
1254.76	7.10902
1255.04	11.2404
1255.31	14.3088
1255.59	16.3513
1255.87	-3.55341
1256.14	1.59441
1256.42	22.427
1256.69	19.2501
1256.97	23.3997
1257.24	26.4831
1257.52	27.454
1257.79	23.1814
1258.07	35.6308
1258.35	27.1981
1258.62	31.2944
1258.9	30.1637
1259.17	38.3971
1259.45	22.6765
1259.72	24.733
1260	34.1057
1260.27	17.4392
1260.55	30.8963
1260.82	50.6146
1261.1	46.2888
1261.37	41.9962
1261.65	60.6746
1261.92	76.306
1262.2	70.2433
1262.48	88.3331
1262.75	109.392
1263.02	116.122
1263.3	129.234
1263.58	112.34
1263.85	137.656
1264.13	109.67
1264.4	109.922
1264.68	71.3279
1264.95	71.0983
1265.23	72.0225
1265.5	48.9782
1265.78	43.6804
1266.05	42.5392
1266.33	27.8604
1266.6	28.8738
1266.88	28.8583
1267.15	27.8103
1267.43	32.0008
1267.7	27.8366
1267.98	36.2291
1268.25	35.2184
1268.53	24.8144
1268.8	15.4301
1269.08	40.5699
1269.35	32.1855
1269.63	21.6941
1269.9	31.0657
1270.18	32.0158
1270.45	24.5672
1270.73	27.6144
1271	23.3272
1271.28	32.6631
1271.55	40.9767
1271.83	29.3923
1272.1	40.8806
1272.38	28.34
1272.65	18.9467
1272.93	32.6125
1273.2	37.876
1273.47	30.569
1273.75	43.1749
1274.03	36.9145
1274.3	37.993
1274.57	44.2915
1274.85	33.7778
1275.12	48.4167
1275.4	41.0399
1275.67	33.6902
1275.95	28.4504
1276.22	32.6566
1276.5	31.6331
1276.77	50.5418
1277.05	52.6604
1277.32	40.0636
1277.6	47.4477
1277.87	32.7704
1278.14	58.0215
1278.42	63.3013
1278.69	71.7341
1278.97	74.9414
1279.24	72.8558
1279.52	77.0822
1279.79	91.7647
1280.07	114.853
1280.34	135.821
1280.61	163.125
1280.89	193.629
1281.16	252.548
1281.44	386.262
1281.71	467.466
1281.99	665.428
1282.26	908.535
1282.53	1182.32
1282.81	1463.56
1283.08	1844.32
1283.36	2054.76
1283.63	2053.81
1283.91	1857.5
1284.18	1396.13
1284.45	1023.73
1284.73	701.786
1285	443.767
1285.28	306.753
1285.55	232.756
1285.83	167.307
1286.1	139.922
1286.37	108.389
1286.65	109.421
1286.92	87.2328
1287.2	80.8947
1287.47	75.596
1287.75	62.9055
1288.02	55.4733
1288.29	55.4292
1288.57	53.3069
1288.84	32.2524
1289.12	35.4137
1289.39	45.9643
1289.66	43.8925
1289.94	41.8221
1290.21	28.1718
1290.49	28.2024
1290.76	25.0298
1291.03	30.2591
1291.31	20.7558
1291.58	10.2098
1291.86	24.9427
1292.13	35.4563
1292.4	38.6092
1292.68	37.5641
1292.95	15.4243
1293.22	32.2486
1293.5	29.0946
1293.77	9.15105
1294.05	25.0471
1294.32	9.32785
1294.59	29.3847
1294.87	28.3259
1295.14	25.1407
1295.42	22.0161
1295.69	21.0578
1295.96	13.7943
1296.24	22.4073
1296.51	15.1057
1296.79	17.2419
1297.06	4.56207
1297.33	19.3335
1297.61	24.5753
1297.88	20.2997
1298.15	8.62668
1298.43	26.5196
1298.7	15.9875
1298.97	9.63387
1299.25	14.8772
1299.52	7.45735
1299.79	16.9237
1300.07	20.0903
1300.34	7.46597
1300.62	23.3301
1300.89	12.7817
1301.16	-2.00658
1301.44	21.2176
1301.71	24.4019
1301.98	-1.95311
1302.25	14.9853
1302.53	26.6306
1302.8	24.5315
1303.08	3.40874
1303.35	16.0767
1303.62	5.49739
1303.9	16.025
1304.17	9.6895
1304.44	13.9271
1304.72	12.8808
1304.99	-1.89594
1305.26	12.869
1305.54	-0.884277
1305.81	-1.97795
1306.08	10.6469
1306.35	0.0538025
1306.63	1.07745
1306.9	5.28864
1307.18	6.35487
1307.45	-5.21446
1307.72	13.7901
1308	9.58145
1308.27	11.703
1308.54	2.23645
1308.81	3.29257
1309.09	-7.22844
1309.36	2.31419
1309.63	2.36058
1309.91	2.40811
1310.18	9.83243
1310.45	-0.71022
1310.73	3.51399
1311	6.69733
1311.27	4.61385
1311.55	10.976
1311.82	2.56128
1312.09	-2.67981
1312.37	5.82159
1312.64	-3.62935
1312.91	22.8032
1313.18	12.2541
1313.46	4.8483
1313.73	5.91693
1314	2.75117
1314.28	-1.46558
1314.55	-3.55539
1314.82	5.97951
1315.09	2.85672
1315.37	11.3532
1315.64	-0.212158
1315.91	-2.2728
1316.18	-0.108917
1316.46	8.35535
1316.73	7.30936
1317	17.8852
1317.28	6.28694
1317.55	-8.47296
1317.82	7.42529
1318.09	3.2475
1318.37	7.51323
1318.64	2.2664
1318.91	-8.26659
1319.18	5.49529
1319.46	-7.16098
1319.73	-11.3674
1320	1.32935
1320.28	-3.90997
1320.55	1.40335
1320.82	-5.97459
1321.09	-7.03204
1321.37	2.45508
1321.64	-11.3012
1321.91	-2.8925
1322.18	7.65169
1322.46	1.28983
1322.73	0.236465
1323	9.7292
1323.27	2.3461
1323.55	-1.88133
1323.82	-3.93372
1324.09	5.59763
1324.36	-10.183
1324.64	-3.83002
1324.91	-9.06602
1325.18	-2.71222
1325.45	-2.66508
1325.73	-2.68561
1326	-0.639359
1326.27	2.43166
1326.54	-4.00203
1326.81	9.64856
1327.09	3.3544
1327.36	7.67168
1327.63	-1.6243
1327.9	-14.1544
1328.18	9.13585
1328.45	10.3128
1328.72	-6.43729
1328.99	-8.44434
1329.27	-1.00238
1329.54	6.39317
1329.81	5.399
1330.08	0.152313
1330.35	8.61259
1330.63	8.62202
1330.9	-14.5815
1331.17	6.49706
1331.44	3.30824
1331.71	7.47824
1331.99	3.20844
1332.26	-1.03799
1332.53	-2.10982
1332.8	-0.0292053
1333.07	-10.5809
1333.35	-2.20041
1333.62	-6.43312
1333.89	13.5109
1334.16	2.98195
1334.43	4.0137
1334.71	1.89841
1334.98	2.93768
1335.25	-5.46155
1335.52	8.18149
1335.79	5.03505
1336.07	2.94165
1336.34	16.5826
1336.61	17.6401
1336.88	9.26471
1337.15	-2.24915
1337.43	9.30528
1337.7	0.94519
1337.97	-1.13023
1338.24	4.10106
1338.51	-1.14214
1338.78	-1.12825
1339.06	-7.40178
1339.33	8.32776
1339.6	25.1198
1339.87	6.326
1340.14	19.9972
1340.42	11.6706
1340.69	10.678
1340.96	1.306
1341.23	6.58441
1341.5	-10.1343
1341.77	18.171
1342.04	8.76915
1342.32	5.6403
1342.59	9.82764
1342.86	16.0946
1343.13	5.62169
1343.4	17.1448
1343.67	9.85432
1343.95	10.9408
1344.22	4.71217
1344.49	3.71878
1344.76	-2.50771
1345.03	11.1169
1345.3	22.631
1345.58	12.1742
1345.85	-1.43251
1346.12	9.01173
1346.39	-0.413162
1346.66	4.75128
1346.93	-0.485748
1347.2	25.5827
1347.47	13.0439
1347.75	6.77617
1348.02	-3.638
1348.29	8.89403
1348.56	9.96779
1348.83	-2.50352
1349.1	6.89299
1349.37	13.1548
1349.65	11.0791
1349.92	-4.53157
1350.19	-2.4348
1350.46	13.196
1350.73	5.92064
1351	12.1634
1351.27	10.0784
1351.54	9.05443
1351.81	21.5296
1352.09	11.1658
1352.36	17.4535
1352.63	17.5326
1352.9	16.5942
1353.17	-4.0938
1353.44	7.43912
1353.71	14.9669
1353.98	15.229
1354.25	29.6526
1354.53	3.34874
1354.8	18.7681
1355.07	12.6129
1355.34	26.1937
1355.61	5.38991
1355.88	5.40465
1356.15	11.765
1356.42	2.48546
1356.69	8.72702
1356.96	18.1081
1357.24	12.9498
1357.51	14.021
1357.78	16.1232
1358.05	32.7542
1358.32	3.70255
1358.59	18.2488
1358.86	6.85095
1359.13	34.8736
1359.4	15.1738
1359.67	16.234
1359.94	24.5564
1360.22	9.00084
1360.49	11.0648
1360.76	18.312
1361.03	19.361
1361.3	16.2908
1361.57	7.02043
1361.84	14.3186
1362.11	22.6477
1362.38	11.2843
1362.65	29.9558
1362.92	28.9532
1363.19	19.6827
1363.46	12.505
1363.73	8.45656
1364	31.3266
1364.28	35.5562
1364.55	37.6817
1364.82	29.4354
1365.09	35.6809
1365.36	34.6586
1365.63	31.5556
1365.9	39.836
1366.17	29.4887
1366.44	21.2158
1366.71	24.3217
1366.98	48.0947
1367.25	34.6257
1367.52	22.2426
1367.79	34.6784
1368.06	31.6664
1368.33	49.3139
1368.6	74.1958
1368.87	102.182
1369.15	123.969
1369.41	110.612
1369.68	73.467
1369.95	63.1519
1370.23	36.3009
1370.5	34.2632
1370.77	44.5919
1371.04	42.5503
1371.31	34.2976
1371.58	39.4521
1371.85	39.4277
1372.12	54.8687
1372.39	40.3839
1372.66	42.4181
1372.93	32.1001
1373.2	41.3947
1373.47	40.3887
1373.74	39.3847
1374.01	33.2341
1374.28	48.7273
1374.55	41.5547
1374.82	33.3542
1375.09	55.0267
1375.36	48.8714
1375.63	50.999
1375.9	47.9981
1376.17	28.476
1376.44	52.2428
1376.71	48.1147
1376.98	63.5566
1377.25	78.966
1377.52	66.5587
1377.79	72.825
1378.06	60.6011
1378.33	71.0616
1378.6	71.2553
1378.87	68.3717
1379.14	77.7543
1379.41	80.8946
1379.68	79.8839
1379.95	82.9932
1380.22	89.1739
1380.49	99.4064
1380.76	88.9275
1381.03	111.483
1381.3	91.8836
1381.57	102.275
1381.84	112.537
1382.11	116.558
1382.38	127.757
1382.65	118.434
1382.92	129.666
1383.19	143.962
1383.46	154.18
1383.73	171.567
1384	186.938
1384.27	226.924
1384.54	269.031
1384.81	300.915
1385.08	386.183
1385.34	542.324
1385.61	722.259
1385.88	1015.11
1386.15	1556.51
1386.42	2359.8
1386.69	3488.09
1386.96	4463.27
1387.23	4550.57
1387.5	3705.27
1387.77	2335.42
1388.04	1446.62
1388.31	887.694
1388.58	571.824
1388.85	412.183
1389.12	319.614
1389.39	262.502
1389.66	211.257
1389.93	160.016
1390.2	152.765
1390.46	128.953
1390.73	118.635
1391	117.654
1391.27	113.481
1391.54	96.0867
1391.81	86.8926
1392.08	84.8338
1392.35	87.8883
1392.62	74.567
1392.89	84.815
1393.16	58.214
1393.43	82.8069
1393.7	71.575
1393.97	57.2774
1394.23	56.2881
1394.5	63.4885
1394.77	64.5507
1395.04	37.9922
1395.31	69.7955
1395.58	64.7784
1395.85	60.7705
1396.12	53.6725
1396.39	67.0266
1396.66	60.9175
1396.93	49.6838
1397.2	63.0092
1397.46	54.8293
1397.73	40.5159
1398	41.5703
1398.27	55.9412
1398.54	43.7383
1398.81	47.9133
1399.08	56.1693
1399.35	32.7048
1399.62	45.078
1399.89	51.2989
1400.16	58.5415
1400.42	37.099
1400.69	47.4222
1400.96	55.7295
1401.23	45.5728
1401.5	47.6649
1401.77	52.8687
1402.04	57.0163
1402.31	58.1807
1402.58	47.1039
1402.84	41.1532
1403.11	40.2863
1403.38	55.8125
1403.65	27.1585
1403.92	67.2524
1404.19	44.6687
1404.46	48.6876
1404.73	52.8807
1404.99	64.1958
1405.26	66.2685
1405.53	60.1201
1405.8	68.3275
1406.07	109.343
1406.34	89.8688
1406.61	113.465
1406.87	111.442
1407.14	125.858
1407.41	143.359
1407.68	162.918
1407.95	211.176
1408.22	237.909
1408.49	230.808
1408.76	251.393
1409.02	219.688
1409.29	179.779
1409.56	154.219
1409.83	135.835
1410.1	93.8451
1410.37	79.5349
1410.63	56.9667
1410.9	57.9721
1411.17	45.6425
1411.44	41.5366
1411.71	39.4959
1411.98	41.5631
1412.25	45.7021
1412.51	46.8101
1412.78	42.8298
1413.05	21.4923
1413.32	38.2312
1413.59	26.095
1413.86	24.9457
1414.12	23.6767
1414.39	43.2589
1414.66	21.9178
1414.93	26.1745
1415.2	15.9419
1415.47	40.6373
1415.73	26.3131
1416	22.2605
1416.27	33.6213
1416.54	22.3938
1416.81	18.3549
1417.07	18.4245
1417.34	25.6881
1417.61	21.652
1417.88	27.8874
1418.15	15.6163
1418.42	18.75
1418.68	30.1092
1418.95	21.9453
1419.22	27.1328
1419.49	18.9618
1419.76	17.9571
1420.02	31.3198
1420.29	20.0205
1420.56	17.9721
1420.83	9.75903
1421.1	26.1861
1421.36	25.1638
1421.63	14.9257
1421.9	35.5113
1422.17	13.0301
1422.44	14.1722
1422.7	23.5339
1422.97	15.4727
1423.24	22.8994
1423.51	33.434
1423.77	18.5553
1424.04	-3.37698
1424.31	34.6614
1424.58	29.3614
1424.85	6.86688
1425.11	25.4149
1425.38	22.5344
1425.65	28.7594
1425.92	16.4646
1426.19	15.5544
1426.45	13.5301
1426.72	19.6893
1426.99	12.4985
1427.26	13.5089
1427.52	1.19211
1427.79	9.3494
1428.06	11.3722
1428.33	0.117462
1428.59	18.5758
1428.86	26.8112
1429.13	13.5542
1429.4	2.34796
1429.67	1.3875
1429.93	3.50708
1430.2	14.86
1430.47	3.68327
1430.74	17.0913
1431	12.069
1431.27	11.1738
1431.54	6.15308
1431.81	18.5438
1432.07	11.3994
1432.34	22.6894
1432.61	12.4178
1432.87	13.4514
1433.14	11.3765
1433.41	16.4641
1433.68	-9.20424
1433.95	11.2476
1434.21	-2.0773
1434.48	10.229
1434.75	1.14182
1435.01	17.6152
1435.28	12.5382
1435.55	23.849
1435.82	8.51068
1436.08	14.6867
1436.35	14.7106
1436.62	10.635
1436.89	-2.66507
1437.15	12.7184
1437.42	2.49409
1437.69	12.7677
1437.95	10.7325
1438.22	15.8786
1438.49	8.756
1438.76	10.8712
1439.02	7.85216
1439.29	5.84503
1439.56	17.1606
1439.82	5.95665
1440.09	-0.112717
1440.36	8.17781
1440.63	4.13603
1440.89	8.28436
1441.16	-1.93279
1441.43	4.26506
1441.69	2.233
1441.96	1.20914
1442.23	15.5785
1442.49	10.5276
1442.76	-3.78995
1443.03	7.563
1443.3	7.57051
1443.56	11.6706
1443.83	2.44702
1444.1	14.7614
1444.36	-2.64066
1444.63	10.7305
1444.9	-2.51028
1445.16	12.9535
1445.43	4.84239
1445.7	1.77963
1445.97	20.2584
1446.23	-1.27026
1446.5	9.00191
1446.77	-1.239
1447.03	3.90462
1447.3	-2.23334
1447.57	14.1843
1447.83	7.01149
1448.1	4.97102
1448.37	10.1253
1448.63	15.3173
1448.9	7.18857
1449.17	2.10175
1449.43	17.5131
1449.7	-2.98709
1449.97	1.119
1450.23	3.1666
1450.5	7.26367
1450.77	20.6006
1451.03	2.16275
1451.3	4.22507
1451.57	22.6828
1451.83	10.3924
1452.1	12.4495
1452.37	-0.857971
1452.63	-0.838974
1452.9	14.5586
1453.17	9.47249
1453.43	13.6212
1453.7	-3.75459
1453.97	9.59598
1454.23	-3.71375
1454.5	1.4254
1454.77	2.47598
1455.03	4.55145
1455.3	9.69475
1455.56	7.6575
1455.83	19.9828
1456.1	-9.67584
1456.36	-14.7586
1456.63	-0.385056
1456.9	-5.50095
1457.16	2.68941
1457.43	3.70717
1457.7	-0.381302
1457.96	8.84984
1458.23	-8.54893
1458.49	-4.42691
1458.76	1.74745
1459.03	7.92839
1459.29	-0.235184
1459.56	13.1136
1459.82	5.96861
1460.09	12.131
1460.36	-5.27617
1460.62	-1.16959
1460.89	8.05595
1461.16	-4.23462
1461.42	8.05226
1461.69	2.92822
1461.95	4.96936
1462.22	-4.25537
1462.49	-5.29193
1462.75	3.90128
1463.02	-8.39716
1463.28	4.87862
1463.55	-5.37396
1463.82	-6.41531
1464.08	-2.31229
1464.35	-3.25641
1464.61	-5.19667
1464.88	-1.01683
1465.15	-7.05264
1465.41	4.08174
1465.68	8.85506
1465.94	-2.515
1466.21	-3.53526
1466.48	9.81125
1466.74	-6.52058
1467.01	0.558792
1467.27	3.61172
1467.54	5.68884
1467.8	-2.46727
1468.07	-2.46315
1468.34	-3.47406
1468.6	5.72032
1468.87	5.73299
1469.13	7.77855
1469.4	0.636505
1469.67	11.8472
1469.93	0.609772
1470.2	6.69714
1470.46	-2.49634
1470.73	2.589
1470.99	2.58228
1471.26	-1.49155
1471.53	-1.50197
1471.79	-3.56055
1472.06	1.52084
1472.32	12.7233
1472.59	6.62094
1472.85	-5.58856
1473.12	7.65707
1473.39	-0.488495
1473.65	-4.57384
1473.92	0.50177
1474.18	-2.56041
1474.45	-7.64838
1474.71	-0.511795
1474.98	4.60735
1475.24	-6.56241
1475.51	-16.7252
1475.78	6.69171
1476.04	-1.45496
1476.31	-2.48511
1476.57	18.8763
1476.84	3.60953
1477.1	-7.59871
1477.37	-0.496979
1477.63	9.66911
1477.9	2.55502
1478.16	-4.55684
1478.43	6.6183
1478.69	-7.64143
1478.96	-8.67337
1479.22	9.605
1479.49	-7.69292
1479.76	4.47534
1480.02	12.5702
1480.29	-1.67975
1480.55	-5.79756
1480.82	4.30872
1481.08	-5.86665
1481.35	6.30183
1481.61	-10.9676
1481.88	-2.82535
1482.14	-9.88922
1482.41	1.31664
1482.67	0.349884
1482.94	5.46487
1483.2	2.4272
1483.47	1.44392
1483.73	-8.68958
1484	-8.68074
1484.26	7.56824
1484.53	-0.623276
1484.79	3.33755
1485.06	-8.00754
1485.32	-5.20836
1485.59	-0.232208
1485.85	0.640228
1486.12	5.13908
1486.38	8.24133
1486.65	11.3643
1486.91	18.2483
1487.18	11.2681
1487.44	-14.0299
1487.71	1.12115
1487.97	-2.96791
1488.24	4.10133
1488.5	-11.1127
1488.77	-2.03485
1489.03	-12.1956
1489.3	-21.3305
1489.56	-0.0955353
1489.83	-8.20042
1490.09	5.95561
1490.36	-0.11084
1490.62	10.0077
1490.89	-9.23083
1491.15	-9.26213
1491.42	8.90739
1491.68	16.9812
1491.95	-10.3209
1492.21	-2.22952
1492.48	-6.26163
1492.74	0.813141
1493	-1.21519
1493.27	6.86938
1493.53	-1.21507
1493.8	5.85095
1494.06	-6.28326
1494.33	2.8196
1494.59	6.87875
1494.86	21.0519
1495.12	-2.20578
1495.39	-3.24413
1495.65	4.7878
1495.92	8.76079
1496.18	-7.45181
1496.45	0.594269
1496.71	2.58925
1496.97	4.58606
1497.24	9.60757
1497.5	13.6443
1497.77	0.523285
1498.03	5.55965
1498.3	-8.57254
1498.56	-3.52408
1498.82	-10.5838
1499.09	-3.5123
1499.35	7.59865
1499.62	3.5744
1499.88	3.59174
1500.15	8.65616
1500.41	1.59628
1500.68	21.7864
1500.94	-6.48833
1501.2	1.58186
1501.47	9.63632
1501.73	-2.51329
1502	-9.58972
1502.26	8.56854
1502.52	2.50539
1502.79	16.6122
1503.05	5.47069
1503.32	12.4912
1503.58	-2.661
1503.85	-1.68767
1504.11	-4.71495
1504.37	-9.74106
1504.64	-5.70097
1504.9	3.37454
1505.17	2.35533
1505.43	-7.74974
1505.7	1.29369
1505.96	18.3717
1506.22	-1.85483
1506.49	-3.88524
1506.75	-6.91597
1507.02	-0.866104
1507.28	7.21909
1507.54	-3.86052
1507.81	0.175415
1508.07	9.23975
1508.34	17.2839
1508.6	3.16319
1508.86	-6.91269
1509.13	-2.87912
1509.39	0.142822
1509.66	-10.9479
1509.92	4.16191
1510.18	1.15585
1510.45	0.156189
1510.71	9.18434
1510.98	-4.96254
1511.24	7.07677
1511.5	7.0174
1511.77	1.90103
1512.03	7.83221
1512.29	-1.32492
1512.56	7.62241
1512.82	11.5528
1513.08	6.47386
1513.35	12.4483
1513.61	4.37274
1513.88	1.33997
1514.14	4.39104
1514.4	9.48228
1514.67	-7.58125
1514.93	2.43634
1515.2	12.4287
1515.46	6.34517
1515.72	16.3261
1515.99	-3.81024
1516.25	12.1775
1516.51	3.10258
1516.78	-9.95921
1517.04	-7.97481
1517.3	-6.99101
1517.57	1.01813
1517.83	-11.0172
1518.09	-11.0114
1518.36	2.05154
1518.62	-0.954254
1518.88	0.0549774
1519.15	-2.95059
1519.41	-4.948
1519.67	0.0751801
1519.94	-0.926468
1520.2	-12.9779
1520.47	8.06525
1520.73	10.0496
1520.99	-1.98497
1521.26	6.05173
1521.52	12.0815
1521.78	14.0871
1522.05	-2.98689
1522.31	9.02745
1522.57	1.97456
1522.84	21.0011
1523.1	11.944
1523.36	15.913
1523.62	6.82025
1523.89	3.72711
1524.15	2.66486
1524.41	-2.39282
1524.68	10.5842
1524.94	-9.48271
1525.2	13.5612
1525.47	0.542206
1525.73	0.539795
1525.99	1.55957
1526.26	13.6078
1526.52	11.6478
1526.78	10.677
1527.05	6.67361
1527.31	4.65427
1527.57	2.61217
1527.84	15.6179
1528.1	14.5883
1528.36	-4.47699
1528.63	14.5265
1528.89	-2.53613
1529.15	5.44998
1529.41	23.4594
1529.68	8.42032
1529.94	8.39659
1530.2	18.3681
1530.47	-1.67935
1530.73	9.34317
1530.99	5.36607
1531.25	11.406
1531.52	15.4338
1531.78	6.40875
1532.04	20.4124
1532.31	-0.635559
1532.57	7.34293
1532.83	1.34277
1533.09	0.379883
1533.36	8.45749
1533.62	8.50763
1533.88	7.52086
1534.15	2.5092
1534.41	14.5334
1534.67	11.5009
1534.94	1.4429
1535.2	-7.61563
1535.46	11.4097
1535.72	9.35411
1535.99	-4.78758
1536.25	-7.86162
1536.51	25.1388
1536.77	17.0421
1537.04	-6.06866
1537.3	8.8674
1537.56	-8.18079
1537.82	-6.235
1538.09	10.7584
1538.35	0.704178
1538.61	-0.36821
1538.87	11.5954
1539.14	17.5601
1539.4	-3.39224
1539.66	13.7079
1539.92	-12.1853
1540.19	8.92522
1540.45	7.99409
1540.71	-1.95731
1540.97	-9.94106
1541.24	-1.91138
1541.5	1.00443
1541.76	-3.02789
1542.02	-1.08833
1542.29	-9.16393
1542.55	-6.21814
1542.81	-7.27925
1543.07	14.6899
1543.34	9.62534
1543.6	10.5631
1543.86	-9.52364
1544.12	3.40169
1544.39	-3.60426
1544.65	8.3947
1544.91	1.41972
1545.17	17.4741
1545.43	3.49333
1545.7	12.5678
1545.96	4.58569
1546.22	9.60486
1546.48	1.59888
1546.74	-1.43182
1547.01	-3.44064
1547.27	0.573547
1547.53	4.5898
1547.79	1.58987
1548.06	2.53519
1548.32	7.42677
1548.58	-4.6042
1548.84	10.4117
1549.1	-3.56728
1549.37	-2.75385
1549.63	-6.96178
1549.89	0.978912
1550.15	2.07118
1550.42	0.254959
1550.68	-2.47906
1550.94	1.72755
1551.2	5.91866
1551.46	11.7953
1551.73	11.8001
1551.99	5.72081
1552.25	2.63335
1552.51	6.7207
1552.77	11.8087
1553.03	19.8018
1553.3	5.66943
1553.56	0.49437
1553.82	9.47688
1554.08	1.42009
1554.34	6.38014
1554.61	2.29782
1554.87	0.213013
1555.13	4.13742
1555.39	-0.911957
1555.65	5.07018
1555.91	-0.956894
1556.18	4.04832
1556.44	3.03296
1556.7	12.0024
1556.96	-4.03735
1557.22	1.96942
1557.48	-6.04933
1557.75	8.96503
1558.01	5.93289
1558.27	-4.13469
1558.53	3.80037
1558.79	3.73561
1559.06	1.65228
1559.32	1.5773
1559.58	-8.49124
1559.84	4.45139
1560.1	-6.59593
1560.36	5.35643
1560.63	3.32083
1560.89	-3.70659
1561.15	-5.73262
1561.41	3.24321
1561.67	3.24066
1561.93	9.25764
1562.19	7.29674
1562.46	13.3406
1562.72	3.32484
1562.98	13.3002
1563.24	6.26709
1563.5	4.26021
1563.76	5.22482
1564.02	-8.80215
1564.29	-7.75394
1564.55	8.31155
1564.81	0.313812
1565.07	4.28706
1565.33	2.16
1565.59	-6.18381
1565.85	8.29073
1566.11	-11.8737
1566.38	4.83269
1566.64	10.053
1566.9	-4.06003
1567.16	8.78482
1567.42	7.93214
1567.68	8.09286
1567.94	6.02948
1568.2	10.8726
1568.47	-0.116669
1568.73	6.89287
1568.99	-1.10928
1569.25	12.8541
1569.51	-4.22934
1569.77	7.70508
1570.03	0.695038
1570.29	1.69321
1570.55	12.6745
1570.82	12.6608
1571.08	-8.34724
1571.34	-0.377197
1571.6	-2.4097
1571.86	7.53499
1572.12	-7.50108
1572.38	8.45883
1572.64	-1.57098
1572.9	-7.6162
1573.17	14.3058
1573.43	-2.71111
1573.69	-7.74973
1573.95	6.17949
1574.21	-0.81897
1574.47	-0.80101
1574.73	16.1997
1574.99	-0.744354
1575.25	-2.71027
1575.51	-10.6746
1575.78	5.33141
1576.04	-2.67085
1576.3	-12.6942
1576.56	-5.71915
1576.82	12.2283
1577.08	0.16098
1577.34	0.0701904
1577.6	7.96915
1577.86	-10.0772
1578.12	2.81548
1578.38	-4.23955
1578.64	5.67889
1578.9	-2.32503
1579.17	7.6257
1579.43	-9.34018
1579.69	12.5774
1579.95	-7.36711
1580.21	0.6203
1580.47	-8.35699
1580.73	-11.3617
1580.99	-6.39977
1581.25	1.5388
1581.51	4.48212
1581.77	-4.53136
1582.03	6.37659
1582.29	5.32121
1582.55	6.28639
1582.81	-5.69876
1583.07	-8.71829
1583.33	-3.76494
1583.59	3.18535
1583.85	-0.820297
1584.11	-0.855957
1584.38	4.10687
1584.64	-8.84064
1584.9	8.08873
1585.16	-6.86131
1585.42	-2.895
1585.68	11.0229
1585.94	5.02527
1586.2	3.99397
1586.46	-3.03812
1586.72	5.85796
1586.98	-5.14209
1587.24	14.7198
1587.5	10.7012
1587.76	0.717789
1588.02	2.6819
1588.28	-2.30745
1588.54	-7.28316
1588.8	14.6145
1589.06	-16.2242
1589.32	23.5968
1589.58	-6.25688
1589.84	4.69612
1590.1	0.704529
1590.36	-3.29449
1590.62	13.6318
1590.88	-5.28058
1591.14	-1.29529
1591.4	8.64212
1591.66	2.64957
1591.92	-9.32925
1592.18	3.58014
1592.44	5.51137
1592.7	2.44708
1592.96	4.37537
1593.22	3.33447
1593.48	0.26355
1593.74	-0.823135
1594	5.04318
1594.26	4.97646
1594.52	0.961044
1594.78	3.92523
1595.04	-2.02704
1595.3	11.9059
1595.56	-3.98108
1595.82	10.9089
1596.08	-5.09129
1596.34	-6.104
1596.6	4.80573
1596.86	3.79886
1597.12	13.7236
1597.38	-6.14388
1597.64	6.7718
1597.9	6.7738
1598.16	14.7014
1598.42	5.72597
1598.68	-1.27725
1598.94	13.5496
1599.2	3.55704
1599.46	10.4527
1599.72	21.3188
1599.98	2.41602
1600.24	0.383591
1600.5	-1.64685
1600.76	-3.6823
1601.02	-3.74396
1601.28	1.13776
1601.54	11.9569
1601.8	-0.0101013
1602.06	4.87381
1602.32	13.7275
1602.58	17.6319
1602.84	-0.240997
1603.1	-15.1429
1603.36	0.629044
1603.62	13.4347
1603.88	-6.3826
1604.14	6.4409
1604.4	16.309
1604.66	14.3206
1604.92	11.3461
1605.17	9.35649
1605.43	8.35791
1605.69	-8.45886
1605.95	6.37581
1606.21	-2.51622
1606.47	-1.51605
1606.73	10.3663
1606.99	11.3631
1607.25	7.32109
1607.51	3.42354
1607.77	7.41789
1608.03	5.26418
1608.29	-1.32513
1608.55	-5.22134
1608.81	2.31929
1609.07	8.84612
1609.32	-10.4736
1609.58	2.09795
1609.84	6.86267
1610.1	3.16376
1610.36	8.39783
1610.62	8.96082
1610.88	10.1685
1611.14	-6.78665
1611.4	10.7374
1611.66	3.22624
1611.92	7.40491
1612.18	5.90305
1612.44	5.23109
1612.69	10.6769
1612.95	1.71458
1613.21	5.34807
1613.47	17.1572
1613.73	3.36389
1613.99	-0.330902
1614.25	5.34785
1614.51	-3.55299
1614.77	3.40971
1615.03	-2.5307
1615.29	-7.11113
1615.54	2.1541
1615.8	1.64911
1616.06	7.04922
1616.32	3.56982
1616.58	1.53232
1616.84	2.05423
1617.1	0.496918
1617.36	2.82819
1617.62	6.33684
1617.88	5.83522
1618.13	8.9881
1618.39	10.4402
1618.65	4.13641
1618.91	-0.7892
1619.17	-0.812729
1619.43	10.5198
1619.69	4.97884
1619.95	7.08092
1620.2	-1.42035
1620.46	1.04881
1620.72	10.7623
1620.98	1.58147
1621.24	4.85519
1621.5	15.2626
1621.76	10.0039
1622.02	4.61349
1622.27	6.40088
1622.53	8.74098
1622.79	6.61562
1623.05	-0.751984
1623.31	6.34978
1623.57	0.728195
1623.83	1.6777
1624.09	0.0291138
1624.34	-1.2711
1624.6	-2.92491
1624.86	4.81827
1625.12	0.29248
1625.38	8.39415
1625.64	6.82538
1625.9	5.0135
1626.15	1.79895
1626.41	8.68944
1626.67	8.20636
1626.93	0.1819
1627.19	0.274017
1627.45	4.974
1627.7	5.33818
1627.96	8.62888
1628.22	9.6916
1628.48	5.58937
1628.74	0.195251
1629	-0.79541
1629.26	1.43286
1629.51	-3.10234
1629.77	0.536163
1630.03	7.50995
1630.29	6.87067
1630.55	4.62608
1630.81	5.75366
1631.06	8.07585
1631.32	8.38715
1631.53	3.77348
1631.79	-1.13893
1632.05	8.73376
1632.31	9.73767
1632.57	3.79872
1632.84	12.7087
1633.1	-5.94351
1633.36	-0.109894
1633.62	3.71832
1633.88	14.5193
1634.14	14.5325
1634.4	-9.10483
1634.66	13.5594
1634.93	0.735443
1635.19	3.67441
1635.45	18.4364
1635.71	-7.21686
1635.97	6.55014
1636.23	4.5441
1636.49	12.3875
1636.75	10.3769
1637.02	15.26
1637.28	-5.47054
1637.54	4.32809
1637.8	1.34142
1638.06	8.21223
1638.32	7.19507
1638.58	12.0821
1638.84	5.16193
1639.1	-0.756363
1639.37	1.19852
1639.63	20.8692
1639.89	3.13538
1640.15	-1.80365
1640.41	14.9085
1640.67	16.8694
1640.93	1.14236
1641.19	11.0011
1641.46	-2.79079
1641.72	1.12088
1641.98	2.07079
1642.24	4.01236
1642.5	5.95729
1642.76	4.95076
1643.02	18.7094
1643.28	8.84557
1643.54	-3.96838
1643.8	8.80893
1644.06	0.905685
1644.33	0.871353
1644.59	-1.13974
1644.85	-5.11322
1645.11	4.7054
1645.37	6.67529
1645.63	5.7047
1645.89	0.786407
1646.15	2.7444
1646.41	-0.239639
1646.67	7.59583
1646.93	-5.22691
1647.19	1.63434
1647.46	6.52007
1647.72	14.354
1647.98	1.53847
1648.24	8.40585
1648.5	12.3351
1648.76	18.2603
1649.02	-2.37155
1649.28	8.53859
1649.54	-2.26381
1649.8	11.4856
1650.06	-0.360901
1650.32	-2.34258
1650.58	8.53233
1650.85	2.65971
1651.11	7.60933
1651.37	4.68027
1651.63	8.63573
1651.89	5.67915
1652.15	7.63972
1652.41	-4.19661
1652.67	-1.24377
1652.93	-4.23016
1653.19	3.6183
1653.45	-4.28523
1653.71	7.5273
1653.97	2.59914
1654.23	6.54932
1654.49	7.53691
1654.75	-0.349854
1655.01	-4.28972
1655.27	17.4092
1655.53	17.4407
1655.8	-13.0817
1656.06	1.77034
1656.32	0.819626
1656.57	4.78738
1656.84	4.79469
1657.1	-4.09053
1657.36	-4.10585
1657.62	5.73802
1657.88	2.74561
1658.14	6.67036
1658.4	6.64566
1658.66	-8.18571
1658.92	7.56335
1659.18	4.56531
1659.44	8.4715
1659.7	18.2936
1659.96	15.295
1660.22	-5.46013
1660.48	8.34747
1660.74	-3.46777
1661	-1.47562
1661.26	1.50806
1661.52	11.4002
1661.78	0.579163
1662.04	16.3753
1662.3	9.47426
1662.56	4.35242
1662.82	-1.21364
1663.08	13.8094
1663.34	-6.07973
1663.6	6.7379
1663.86	-1.2251
1664.12	6.26279
1664.38	7.45015
1664.64	8.47797
1664.9	-3.36084
1665.16	5.61554
1665.42	-8.18571
1665.68	3.45239
1665.94	1.29036
1666.2	-11.074
1666.46	4.77847
1666.72	-2.1713
1666.98	17.3035
1667.24	-8.94315
1667.5	7.38173
1667.76	13.2527
1668.02	0.382553
1668.28	9.23564
1668.54	-8.56337
1668.8	2.28592
1669.06	7.30124
1669.32	4.44383
1669.58	-3.44374
1669.84	-1.47127
1670.1	10.3821
1670.36	11.3419
1670.62	-2.49269
1670.88	8.46867
1671.14	8.52873
1671.4	-8.30225
1671.66	-3.38152
1671.92	6.48694
1672.18	11.4309
1672.44	15.396
1672.69	-3.38536
1672.95	-1.41568
1673.21	2.53105
1673.47	2.5302
1673.73	-2.41072
1673.99	-9.32466
1674.25	-4.3678
1674.51	0.596115
1674.77	13.4713
1675.03	0.632767
1675.29	17.4826
1675.55	8.60324
1675.81	-2.27065
1676.07	-1.28412
1676.33	7.61375
1676.59	7.61502
1676.85	-5.24644
1677.11	-9.20578
1677.37	15.5294
1677.63	1.65672
1677.89	-4.30377
1678.14	7.53781
1678.4	-1.40941
1678.66	13.3798
1678.92	2.45992
1679.18	8.36031
1679.44	-8.47562
1679.7	-1.57632
1679.96	-5.55447
1680.22	-2.6134
1680.48	4.28523
1680.74	0.307617
1681	10.164
1681.26	11.1293
1681.52	-11.6075
1681.78	-0.748352
1682.03	6.16075
1682.29	1.21648
1682.55	0.22583
1682.81	-3.7262
1683.07	4.1649
1683.33	3.16714
1683.59	-3.75458
1683.85	8.09541
1684.11	-3.76837
1684.37	2.14227
1684.63	3.09622
1684.89	-4.82454
1685.14	2.07439
1685.4	5.02649
1685.66	7.98132
1685.92	2.05186
1686.18	-15.7247
1686.44	2.05043
1686.7	3.05035
1686.96	2.0988
1687.22	-5.78784
1687.48	-3.81129
1687.73	-7.78029
1687.99	12.9372
1688.25	7.97246
1688.51	-5.87485
1688.77	8.91295
1689.03	3.94415
1689.29	1.92538
1689.55	-1.07108
1689.81	-5.05444
1690.06	-16.9321
1690.32	-5.13853
1690.58	0.764267
1690.84	-7.08582
1691.1	-0.158371
1691.36	8.73637
1691.62	1.83704
1691.88	13.6974
1692.13	7.7915
1692.39	2.85472
1692.65	-1.10606
1692.91	-10.0171
1693.17	-2.16154
1693.43	-1.22034
1693.69	3.65649
1693.95	-13.1623
1694.2	0.597824
1694.46	6.47047
1694.72	2.48639
1694.98	5.41122
1695.24	1.46637
1695.5	4.43114
1695.76	2.46999
1696.01	-3.43166
1696.27	3.47658
1696.53	-1.42517
1696.79	-1.40892
1697.05	0.559052
1697.31	-2.41672
1697.57	-9.34991
1697.82	-3.48801
1698.08	0.399826
1698.34	-5.54901
1698.6	-3.61383
1698.86	2.25909
1699.12	-1.70459
1699.38	0.248413
1699.63	-1.72543
1699.89	-12.5399
1700.15	-4.6673
1700.41	-2.69705
1700.67	1.20277
1700.92	9.0639
1701.18	-2.75107
1701.44	7.07452
1701.7	10.0071
1701.96	-0.844467
1702.22	-6.78252
1702.47	8.91331
1702.73	-1.9388
1702.99	5.88771
1703.25	-0.0201111
1703.51	5.87004
1703.77	1.92654
1704.02	-7.91704
1704.28	6.80798
1704.54	8.79083
1704.8	-4.93954
1705.06	6.85831
1705.32	4.88345
1705.57	-14.7803
1705.83	1.92332
1706.09	10.7666
1706.35	-2.03633
1706.61	-2.07655
1706.86	-10.9586
1707.12	-0.204514
1707.38	2.69289
1707.64	-0.292465
1707.9	6.52376
1708.16	-3.34543
1708.41	-2.42416
1708.67	0.456696
1708.93	-4.51125
1709.19	-3.59186
1709.44	-0.696609
1709.7	1.23367
1709.96	-1.71603
1710.22	5.13416
1710.48	15.9073
1710.73	-8.5602
1710.99	11.0372
1711.25	-6.55762
1711.51	3.25394
1711.77	0.333908
1712.02	4.26727
1712.28	3.29182
1712.54	-14.3575
1712.8	0.280792
1713.06	-9.5838
1713.31	7.94849
1713.57	6.89238
1713.83	-7.84097
1714.09	1.86295
1714.34	-4.03319
1714.6	-6.98596
1714.86	-7.00171
1715.12	-6.03415
1715.38	-4.08252
1715.63	15.4885
1715.89	-0.0978241
1716.15	1.8566
1716.41	7.70427
1716.66	1.81618
1716.92	-0.176544
1717.18	-0.228729
1717.44	0.682037
1717.69	2.5542
1717.95	-5.34105
1718.21	-3.47087
1718.47	-9.38657
1718.72	2.24345
1718.98	5.12402
1719.24	10.9436
1719.5	-6.58392
1719.75	0.231598
1720.01	-0.750778
1720.27	8.02809
1720.53	4.14394
1720.78	-4.63539
1721.04	-5.64024
1721.3	-6.66139
1721.56	-13.5088
1721.81	0.0764771
1722.07	-10.6624
1722.33	-0.981873
1722.59	7.71986
1722.84	-8.84828
1723.1	9.5705
1723.36	3.70207
1723.62	-1.18466
1723.87	-6.05934
1724.13	3.65186
1724.39	9.46391
1724.64	-10.933
1724.9	1.66057
1725.16	0.642151
1725.42	0.569824
1725.67	-10.163
1725.93	-4.41206
1726.19	0.391037
1726.45	0.370972
1726.7	8.14107
1726.96	-3.49954
1727.22	4.2269
1727.47	19.6576
1727.73	-1.65236
1727.99	17.7716
1728.24	-0.643951
1728.5	-0.672699
1728.76	-0.741333
1729.02	9.6344
1729.27	1.60608
1729.53	-13.9358
1729.79	3.54491
1730.05	6.54735
1730.3	3.72934
1730.56	-3.1454
1730.82	-12.8468
1731.07	-3.20764
1731.33	5.7054
1731.59	-2.0092
1731.84	-0.069046
1732.1	2.82964
1732.36	-4.90921
1732.61	4.73935
1732.87	8.58662
1733.13	9.52625
1733.39	15.2824
1733.64	5.56808
1733.9	-8.98332
1734.16	5.41583
1734.41	-8.14241
1734.67	2.41011
1734.93	-7.2867
1735.18	13.8552
1735.44	11.8676
1735.7	6.03674
1735.95	-3.6277
1736.21	11.7492
1736.47	14.622
1736.72	1.13132
1736.98	3.99683
1737.24	-0.836182
1737.49	4.91235
1737.75	-0.881149
1738.01	1.98431
1738.26	5.80116
1738.52	-0.965881
1738.78	6.68791
1739.03	1.84589
1739.29	-6.84265
1739.55	-5.93102
1739.8	5.52538
1740.06	4.48169
1740.32	-4.23041
1740.57	-4.2966
1740.83	6.19392
1741.09	-3.4335
1741.34	7.06862
1741.6	-6.38179
1741.86	0.289352
1742.11	7.92296
1742.37	-2.62558
1742.63	2.15514
1742.88	-0.727661
1743.14	10.7442
1743.4	8.82181
1743.65	-1.70767
1743.91	2.10654
1744.16	-2.71252
1744.42	-0.82695
1744.68	-6.58987
1744.93	-8.51122
1745.19	1.05815
1745.45	-3.71631
1745.7	1.07112
1745.96	5.84839
1746.22	-0.865875
1746.47	7.70633
1746.73	14.3512
1746.98	4.73836
1747.24	-1.03448
1747.5	-7.76949
1747.75	11.2916
1748.01	-11.6631
1748.27	-2.13289
1748.52	0.7314
1748.78	10.2846
1749.03	-5.93042
1749.29	9.36212
1749.55	-2.06714
1749.8	4.65338
1750.06	-8.67493
1750.32	-3.85144
1750.57	3.84218
1750.83	9.62376
1751.08	10.6013
1751.34	4.8938
1751.6	3.94861
1751.85	-0.850601
1752.11	-11.4115
1752.36	1.91385
1752.62	-6.72121
1752.88	-2.93562
1753.13	9.43825
1753.39	14.1712
1753.64	4.59467
1753.9	-8.79121
1754.15	14.0804
1754.41	-2.17371
1754.67	-5.07076
1754.92	-6.04742
1755.18	-5.11459
1755.43	-5.13054
1755.69	-2.28946
1755.95	8.16614
1756.2	7.17651
1756.46	3.32356
1756.71	6.13358
1756.97	-4.39545
1757.23	4.1147
1757.48	-8.30331
1757.74	-9.27129
1757.99	-2.63052
1758.25	4.04482
1758.5	2.20528
1758.76	6.03499
1759.02	-6.3248
1759.27	-5.36545
1759.53	6.06161
1759.78	7.02902
1760.04	9.88626
1760.3	-0.590225
1760.55	0.350571
1760.81	12.7059
1761.06	20.2981
1761.32	6.95419
1761.57	14.5276
1761.83	10.6936
1762.08	-5.48653
1762.34	14.4671
1762.6	2.10754
1762.85	-1.65678
1763.11	12.6322
1763.36	-0.669403
1763.62	-3.52432
1763.87	-1.61089
1764.13	2.21214
1764.38	-2.51694
1764.64	3.23499
1764.89	9.97429
1765.15	8.10826
1765.4	16.7072
1765.66	0.549408
1765.92	5.32828
1766.17	-0.37117
1766.43	8.20375
1766.68	8.203
1766.94	-0.374695
1767.19	9.13676
1767.45	2.47623
1767.7	9.12874
1767.96	-2.31323
1768.21	10.9855
1768.47	-10.9151
1768.73	3.34544
1768.98	15.7037
1769.24	3.26289
1769.49	8.86351
1769.75	12.5658
1770	2.05669
1770.26	-5.52858
1770.51	-3.57953
1770.77	7.87357
1771.02	1.23253
1771.28	8.85333
1771.53	-0.591293
1771.79	6.13823
1772.04	-3.33958
1772.3	9.03868
1772.55	6.22429
1772.81	6.27029
1773.06	4.40363
1773.32	-2.22772
1773.57	5.41364
1773.83	7.34357
1774.08	14.9833
1774.34	9.29364
1774.59	2.64684
1774.85	-8.7632
1775.1	9.36031
1775.36	9.38194
1775.61	0.851135
1775.87	19.0494
1776.12	8.62486
1776.38	8.65642
1776.63	-1.81705
1776.89	-4.6801
1777.14	3.88074
1777.4	-3.77136
1777.65	8.60207
1777.91	4.76111
1778.16	5.68443
1778.42	8.51094
1778.67	8.4808
1778.93	2.7318
1779.18	1.73459
1779.44	8.34721
1779.69	-1.19356
1779.95	-0.239716
1780.2	-1.13109
1780.46	8.40512
1780.71	6.52168
1780.97	-2.97404
1781.22	8.47404
1781.47	-7.70007
1781.73	3.73787
1781.98	7.56947
1782.24	-2.87254
1782.49	-4.74161
1782.75	9.59763
1783	-0.847107
1783.26	-5.58383
1783.51	9.69069
1783.77	-3.62212
1784.02	-4.5455
1784.28	16.4629
1784.53	-0.659317
1784.79	8.93343
1785.04	2.29181
1785.29	-1.50313
1785.55	7.08929
1785.8	3.26801
1786.06	-4.37859
1786.31	-7.25468
1786.57	6.1082
1786.82	7.08438
1787.08	9.02998
1787.33	-9.05472
1787.58	-1.3624
1787.84	5.39928
1788.09	5.52248
1788.35	13.3035
1788.6	5.78392
1788.86	9.70163
1789.11	-2.70497
1789.37	18.4128
1789.62	7.95857
1789.87	5.13931
1790.13	-7.28938
1790.38	3.28348
1790.64	-5.31374
1790.89	-0.513367
1791.15	0.441559
1791.4	-6.30536
1791.65	2.20769
1791.91	-10.2548
1792.16	5.05516
1792.42	0.274216
1792.67	-8.33234
1792.93	5.09152
1793.18	7.99554
1793.43	3.22736
1793.69	6.1114
1793.94	6.11836
1794.2	-2.47429
1794.45	16.7024
1794.7	-13.0009
1794.96	-13.9813
1795.21	0.448486
1795.47	-8.03035
1795.72	3.5838
1795.97	1.71965
1796.23	8.47536
1796.48	-2.04584
1796.74	3.75722
1796.99	5.72162
1797.25	-15.3715
1797.5	-3.80214
1797.75	-8.57312
1798.01	4.9136
1798.26	2.056
1798.51	-10.4209
1798.77	10.7487
1799.02	7.87024
1799.28	-10.4052
1799.53	3.03952
1799.78	-0.83139
1800.04	0.0968933
1800.29	1.98849
1800.55	12.5337
1800.8	11.5533
1801.05	-8.63266
1801.31	-2.87625
1801.56	-4.7991
1801.81	-1.91345
1802.07	0.979065
1802.32	-12.4524
1802.58	5.82243
1802.83	2.96992
1803.08	0.123428
1803.34	-5.60191
1803.59	0.21051
1803.84	5.056
1804.1	-0.692169
1804.35	4.13091
1804.61	0.312378
1804.86	-3.49614
1805.11	6.16498
1805.37	-5.33693
1805.62	-4.32413
1805.87	10.1697
1806.13	2.51131
1806.38	4.47617
1806.64	3.54732
1806.89	-1.24081
1807.14	0.706985
1807.4	0.717255
1807.65	5.54179
1807.9	-0.236725
1808.16	13.2627
1808.41	7.48679
1808.66	-2.14349
1808.92	5.57704
1809.17	18.1191
1809.42	-4.04094
1809.68	-1.13899
1809.93	-4.01968
1810.18	-0.152039
1810.44	-2.07051
1810.69	9.50479
1810.94	-3.99948
1811.2	-3.04152
1811.45	4.67148
1811.7	4.67039
1811.96	3.70686
1812.21	6.60429
1812.46	-8.80879
1812.72	-11.6787
1812.97	-8.75755
1813.22	0.923111
1813.48	-18.34
1813.73	-3.85551
1813.98	10.6471
1814.24	6.83437
1814.49	-10.4868
1814.74	4.05107
1815	2.186
1815.25	5.1246
1815.5	13.855
1815.76	13.8751
1816.01	4.22385
1816.26	5.20213
1816.52	5.21509
1816.77	-9.26886
1817.02	-0.552811
1817.27	8.1387
1817.53	-3.48586
1817.78	10.921
1818.03	5.06142
1818.29	-9.41389
1818.54	-1.65134
1818.79	-0.631821
1819.05	6.16528
1819.3	-4.47258
1819.55	6.17415
1819.8	-5.39899
1820.06	-3.44153
1820.31	-4.38919
1820.56	-0.497818
1820.82	-5.30521
1821.07	13.0929
1821.32	-2.3618
1821.58	-0.39946
1821.83	-2.30235
1822.08	4.5004
1822.33	1.6216
1822.59	13.256
1822.84	6.49591
1823.09	6.50877
1823.34	4.58406
1823.6	-11.8751
1823.85	-1.2408
1824.1	-12.8729
1824.36	0.674149
1824.61	-5.11678
1824.86	11.3579
1825.11	3.63184
1825.37	14.3032
1825.62	-8.91357
1825.87	-8.89896
1826.12	-0.178085
1826.38	-10.8305
1826.63	-7.92044
1826.88	10.4873
1827.14	7.58775
1827.39	6.6329
1827.64	0.840668
1827.89	6.67577
1828.15	-3.9615
1828.4	4.76082
1828.65	9.5983
1828.9	-5.92068
1829.16	-10.7891
1829.41	4.69186
1829.66	6.62238
1829.91	-6.94328
1830.17	2.73126
1830.42	-2.13219
1830.67	14.307
1830.92	-5.07623
1831.18	3.63814
1831.43	-10.8633
1831.68	7.56047
1831.93	6.61977
1832.19	13.4256
1832.44	4.73311
1832.69	-2.9903
1832.94	7.70792
1833.2	-0.986801
1833.45	3.86363
1833.7	-5.82465
1833.95	-4.83797
1834.2	-5.79849
1834.46	3.90926
1834.71	3.85963
1834.96	-11.742
1835.21	-6.9882
1835.47	6.47743
1835.72	-5.19112
1835.97	-7.17598
1836.22	5.3959
1836.48	-3.3526
1836.73	-7.45486
1836.98	-7.47806
1837.23	9.72986
1837.48	9.63512
1837.74	-4.06418
1837.99	-4.17984
1838.24	3.36679
1838.49	8.07965
1838.74	-6.43729
1839	4.5137
1839.25	-4.06238
1839.5	-3.99413
1839.75	9.59724
1840	-2.00565
1840.26	12.5806
1840.51	7.55238
1840.76	6.44659
1841.01	-11.0802
1841.27	-6.33739
1841.52	3.23814
1841.77	-4.57524
1842.02	-7.547
1842.27	-4.71909
1842.53	-3.81793
1842.78	12.5151
1843.03	6.76164
1843.28	-4.83328
1843.53	-0.955063
1843.78	3.86389
1844.04	0.00416565
1844.29	-14.4852
1844.54	-3.87793
1844.79	6.75482
1845.04	-7.71269
1845.3	0.936356
1845.55	-10.6324
1845.8	2.8714
1846.05	1.01926
1846.3	-7.58762
1846.55	6.96892
1846.81	-0.626419
1847.06	12.7901
1847.31	-2.93393
1847.56	-2.28633
1847.81	-2.34988
1848.07	9.20337
1848.32	6.41225
1848.57	6.50125
1848.82	-3.23169
1849.07	-2.32056
1849.32	4.423
1849.57	15.9347
1849.83	-1.4491
1850.08	-0.54805
1850.33	5.16487
1850.58	2.20543
1850.83	3.10786
1851.09	-4.6319
1851.34	0.129395
1851.59	-13.3561
1851.84	6.78355
1852.09	-3.80206
1852.34	2.90819
1852.59	-6.69853
1852.84	-0.939392
1853.1	6.73921
1853.35	-13.4335
1853.6	3.83513
1853.85	-3.86925
1854.1	2.81065
1854.35	7.55229
1854.6	-5.94447
1854.86	2.6315
1855.11	-1.23688
1855.36	1.60764
1855.61	14.9672
1855.86	7.2321
1856.11	-11.0088
1856.36	-15.8173
1856.61	0.453094
1856.87	-4.33919
1857.12	-4.3437
1857.37	-2.43973
1857.62	9.99034
1857.87	-0.569962
1858.12	2.27585
1858.37	5.11438
1858.63	4.11456
1858.88	8.8515
1859.13	-14.1585
1859.38	2.05484
1859.63	-5.64745
1859.88	-0.90329
1860.13	-7.60373
1860.38	0.997589
1860.63	-6.64316
1860.89	7.73149
1861.14	2.02336
1861.39	5.87405
1861.64	-1.74736
1861.89	4.0202
1862.14	-2.67236
1862.39	-2.68605
1862.64	0.152206
1862.9	-3.7189
1863.15	-4.72345
1863.4	-6.68384
1863.65	0.917221
1863.9	3.73906
1864.15	-5.85808
1864.4	0.791412
1864.65	11.2606
1864.9	-17.4302
1865.15	0.671234
1865.4	2.52733
1865.66	11.054
1865.91	1.44283
1866.16	-9.12445
1866.41	9.85976
1866.66	1.19446
1866.91	-11.2712
1867.16	2.92955
1867.41	-9.52499
1867.66	10.3786
1867.91	-5.85172
1868.16	-6.8394
1868.41	9.29695
1868.67	0.722473
1868.92	2.6219
1869.17	8.33124
1869.42	-5.9361
1869.67	1.65436
1869.92	-5.96765
1870.17	-1.23076
1870.42	11.1108
1870.67	6.34323
1870.92	-1.27338
1871.17	-3.18416
1871.42	0.6091
1871.67	2.49052
1871.92	6.26418
1872.17	-5.17545
1872.42	-1.40344
1872.68	-1.4278
1872.93	6.12936
1873.18	4.18484
1873.43	5.10207
1873.68	-16.7466
1873.93	-4.42612
1874.18	11.6768
1874.43	-4.49875
1874.68	8.73621
1874.93	0.144638
1875.18	-0.85817
1875.43	0.032135
1875.68	-2.87021
1875.93	-1.99554
1876.18	6.41626
1876.43	-0.287552
1876.68	-11.706
1876.93	-8.91733
1877.18	-8.00342
1877.43	0.408005
1877.68	3.12126
1877.93	3.83894
1878.18	3.98991
1878.44	3.73853
1878.69	5.35606
1878.93	-5.14592
1879.19	7.12302
1879.44	4.4621
1879.69	0.755341
1879.94	3.53233
1880.19	13.8822
1880.44	-6.96426
1880.69	-11.717
1880.94	4.41463
1881.19	10.0448
1881.44	0.561035
1881.69	9.93842
1881.94	5.10358
1882.19	-4.45464
1882.44	2.99815
1882.69	-11.2849
1882.94	-1.03601
1883.19	7.39374
1883.44	-2.18379
1883.69	-0.94902
1883.94	7.67653
1884.19	9.98178
1884.44	2.45055
1884.69	1.61443
1884.94	2.44781
1885.19	6.28427
1885.44	9.20833
1885.69	10.1729
1885.94	-0.188705
1886.19	1.78516
1886.44	0.878479
1886.69	4.67879
1886.94	6.54047
1887.19	5.50659
1887.44	8.28665
1887.69	0.684433
1887.94	2.51672
1888.19	-5.08496
1888.44	11.8258
1888.69	-7.11014
1888.94	0.355392
1889.19	9.7054
1889.44	4.92815
1889.69	15.2426
1889.94	6.75537
1890.19	-5.49881
1890.44	-14.9035
1890.69	5.84389
1890.94	-7.3044
1891.19	0.235474
1891.43	-2.60526
1891.68	2.07843
1891.94	-7.35092
1892.18	2.98773
1892.43	10.5026
1892.68	6.72057
1892.93	4.80099
1893.18	9.45895
1893.43	3.73344
1893.68	13.0217
1893.93	9.15425
1894.18	-16.2549
1894.43	12.9057
1894.68	-2.21153
1894.93	-3.19318
1895.18	12.7545
1895.43	-8.85609
1895.68	-6.97202
1895.93	4.3141
1896.18	-10.7076
1896.43	8.10495
1896.68	3.42851
1896.93	1.57712
1897.18	8.1842
1897.42	-5.90639
1897.68	4.44919
1897.92	4.44949
1898.17	11.9652
1898.42	-15.3336
1898.67	-4.07692
1898.92	-3.17786
1899.17	0.531189
1899.42	-6.10574
1899.67	4.18703
1899.92	-2.41978
1900.17	9.76051
1900.42	5.02922
1900.67	8.77087
1900.92	7.82884
1901.16	2.20308
1901.41	6.92427
1901.66	6.95638
1901.91	-5.23453
1902.16	13.5985
1902.41	7.05447
1902.66	-15.488
1902.91	2.37772
1903.16	3.29263
1903.41	-7.08221
1903.66	5.11154
1903.91	-5.25839
1904.16	13.5252
1904.41	-2.47737
1904.65	3.14854
1904.9	11.5937
1905.15	-7.22884
1905.4	4.0351
1905.65	7.78302
1905.9	-4.45789
1906.15	3.93796
1906.4	-3.65382
1906.65	-2.74991
1906.9	-1.84265
1907.14	-4.68875
1907.39	-8.46799
1907.64	-0.0243683
1907.89	-2.84018
1908.14	4.68845
1908.39	10.352
1908.64	2.84309
1908.89	-11.2488
1909.14	2.85492
1909.39	-5.58244
1909.63	-15.8949
1909.88	0.123474
1910.13	7.69498
1910.38	15.2774
1910.63	1.22177
1910.88	4.0956
1911.13	1.30464
1911.38	-7.15182
1911.62	4.15974
1911.87	-2.43626
1912.12	2.26218
1912.37	-6.23843
1912.62	5.98294
1912.87	1.25934
1913.12	5.95795
1913.37	0.297379
1913.61	-1.58972
1913.86	0.312958
1914.11	2.24229
1914.36	-9.96092
1914.61	4.21349
1914.86	-0.471497
1915.11	-8.92961
1915.36	-8.90414
1915.6	11.8704
1915.85	5.26666
1916.1	9.02618
1916.35	9.94283
1916.6	-7.06133
1916.85	15.5429
1917.1	-9.97685
1917.34	6.95497
1917.59	17.2873
1917.84	-0.657501
1918.09	4.03392
1918.34	-6.34169
1918.59	-8.21223
1918.83	4.07794
1919.08	-0.597015
1919.33	4.16779
1919.58	3.27599
1919.83	-3.26434
1920.08	9.07256
1920.33	14.7694
1920.57	-3.18547
1920.82	12.8441
1921.07	-9.83017
1921.32	-2.23349
1921.57	10.0957
1921.81	12.0069
1922.06	-2.16064
1922.31	-2.15454
1922.56	5.40111
1922.81	3.48347
1923.06	11.0073
1923.31	-5.10477
1923.55	-1.35225
1923.8	-9.88582
1924.05	-7.07819
1924.3	9.89578
1924.55	6.06938
1924.79	9.8134
1925.04	0.347168
1925.29	-3.4352
1925.54	-4.36664
1925.79	-12.8442
1926.04	-3.34679
1926.28	8.04234
1926.53	-0.430573
1926.78	15.696
1927.03	6.28531
1927.28	6.31531
1927.52	-11.6556
1927.77	2.56308
1928.02	-7.84161
1928.27	3.53499
1928.52	0.703018
1928.76	0.705475
1929.01	-5.91321
1929.26	-6.84801
1929.51	5.49184
1929.76	7.42014
1930	0.832535
1930.25	13.2018
1930.5	-0.980042
1930.75	-9.487
1931	4.79083
1931.24	8.59225
1931.49	9.53606
1931.74	-9.47845
1931.99	4.72572
1932.24	4.68811
1932.48	-5.78995
1932.73	-0.133606
1932.98	2.67155
1933.23	-1.14333
1933.47	3.56271
1933.72	3.56348
1933.97	1.71048
1934.22	-4.85274
1934.46	-11.3926
1934.71	2.0674
1934.96	-6.34409
1935.21	6.16302
1935.46	3.41362
1935.7	0.637497
1935.95	6.41324
1936.2	9.13048
1936.45	12.9112
1936.69	-9.03259
1936.94	-2.39697
1937.19	-21.5015
1937.44	11.7819
1937.68	4.11014
1937.93	-1.65489
1938.18	-0.749146
1938.43	11.5726
1938.68	-4.6198
1938.92	-0.758392
1939.17	8.77449
1939.42	4.98441
1939.67	11.6731
1939.91	8.83008
1940.16	-1.62891
1940.41	2.1787
1940.66	1.26115
1940.9	-11.0961
1941.15	-2.40331
1941.4	-3.29655
1941.64	-1.3997
1941.89	5.24336
1942.14	-8.19208
1942.39	5.9854
1942.63	-13.0268
1942.88	0.508728
1943.13	-9.00598
1943.38	0.538559
1943.62	-15.7772
1943.87	-0.602936
1944.12	5.04195
1944.37	-1.52541
1944.61	3.27682
1944.86	-1.46791
1945.11	-4.3008
1945.35	2.4205
1945.6	2.45682
1945.85	-5.15285
1946.1	-1.29964
1946.34	7.32948
1946.59	12.1294
1946.84	-6.98698
1947.09	10.2284
1947.33	8.29964
1947.58	5.40172
1947.83	0.588425
1948.07	6.30951
1948.32	-3.26611
1948.57	-10.9292
1948.82	-4.26248
1949.06	-17.6518
1949.31	4.36441
1949.56	-6.12985
1949.8	11.1199
1950.05	6.37448
1950.3	-1.24326
1950.54	-6.92082
1950.79	1.77557
1951.04	-0.0842438
1951.29	-2.89775
1951.53	-5.70935
1951.78	2.9868
1952.03	-1.7653
1952.27	7.86201
1952.52	4.03957
1952.77	-14.1886
1953.01	-6.524
1953.26	2.14331
1953.51	4.10263
1953.76	-0.766327
1954	-5.65147
1954.25	-7.70221
1954.49	-2.06268
1954.74	-10.8018
1954.99	-0.357056
1955.24	9.18358
1955.48	1.50121
1955.73	7.26108
1955.98	2.5118
1956.22	6.41936
1956.47	3.66963
1956.72	6.59259
1956.96	-10.6351
1957.21	-9.65494
1957.46	-5.78189
1957.7	4.81281
1957.95	-7.65205
1958.2	5.81642
1958.44	-1.86337
1958.69	-1.8613
1958.94	-3.78534
1959.18	-2.85121
1959.43	2.86618
1959.68	1.87428
1959.92	-6.79208
1960.17	8.53857
1960.42	-3.99171
1960.66	5.57199
1960.91	3.60646
1961.16	3.55789
1961.4	-3.20763
1961.65	-6.12749
1961.9	-2.31941
1962.14	7.27206
1962.39	0.553864
1962.63	6.30849
1962.88	-4.25232
1963.13	1.50337
1963.37	2.45955
1963.62	-5.22458
1963.87	6.29056
1964.11	8.20905
1964.36	-0.418991
1964.61	0.550827
1964.85	2.45654
1965.1	2.42979
1965.35	1.46208
1965.59	-9.11861
1965.84	5.27687
1966.08	-2.39714
1966.33	11.0752
1966.58	-10.0262
1966.82	0.573456
1967.07	19.8141
1967.32	-7.08409
1967.56	7.31671
1967.81	3.46223
1968.05	-5.18336
1968.3	8.27133
1968.55	7.30768
1968.79	7.29239
1969.04	-11.0018
1969.29	-8.16176
1969.53	3.3119
1969.78	-3.48552
1970.02	-13.1599
1970.27	-5.53737
1970.52	3.05093
1970.76	-5.6255
1971.01	-5.66943
1971.25	1.96617
1971.5	7.68832
1971.75	1.90233
1971.99	8.58981
1972.24	-0.998703
1972.48	5.72375
1972.73	3.80432
1972.98	9.54709
1973.22	-3.91142
1973.47	1.80055
1973.71	4.62299
1973.96	7.45163
1974.21	4.53804
1974.45	3.55151
1974.7	12.1592
1974.94	-6.06238
1975.19	0.643127
1975.44	14.0689
1975.68	-2.21413
1975.93	1.63976
1976.17	7.409
1976.42	2.62309
1976.66	8.38022
1976.91	10.2952
1977.16	16.0409
1977.4	-1.24234
1977.65	5.44801
1977.89	6.37376
1978.14	9.20862
1978.39	2.45338
1978.63	-0.460083
1978.88	8.13489
1979.12	4.27748
1979.37	-2.4431
1979.61	5.22018
1979.86	-4.37463
1980.1	5.20784
1980.35	4.24181
1980.6	-1.53891
1980.84	-5.41711
1981.09	13.7038
1981.33	6.96864
1981.58	0.223846
1981.82	7.85468
1982.07	8.78809
1982.31	4.93916
1982.56	-4.65645
1982.81	-1.82408
1983.05	-4.73909
1983.3	8.60687
1983.54	8.53696
1983.79	10.3957
1984.03	6.53883
1984.28	3.64412
1984.52	1.70151
1984.77	16.0164
1985.02	4.5125
1985.26	-1.26796
1985.51	11.0981
1985.75	14.8853
1986	9.14111
1986.24	4.36417
1986.49	7.24904
1986.73	4.40399
1986.98	13.0164
1987.22	0.567902
1987.47	-5.16563
1987.71	7.22128
1987.96	-1.45001
1988.21	16.6305
1988.45	13.6758
1988.7	16.4387
1988.94	12.4832
1989.19	-5.5648
1989.43	0.312622
1989.68	14.543
1989.92	10.3549
1990.17	4.84763
1990.41	-3.32233
1990.66	12.702
1990.9	8.97917
1991.15	17.1931
1991.39	0.706345
1991.64	14.7091
1991.88	9.27596
1992.13	4.59128
1992.37	10.5592
1992.62	4.20425
1992.86	12.8647
1993.11	4.65442
1993.35	13.8124
1993.6	6.73567
1993.84	16.0189
1994.09	6.34267
1994.33	17.4556
1994.58	15.5527
1994.82	6.40657
1995.07	7.48787
1995.31	12.8738
1995.56	13.7748
1995.8	11.1064
1996.05	4.1602
1996.29	13.4408
1996.54	4.42828
1996.78	7.75189
1997.03	4.72023
1997.27	9.28267
1997.52	9.71376
1997.76	3.02373
1998.01	17.3329
1998.25	5.08968
1998.5	16.4652
1998.74	5.37752
1998.99	13.0357
1999.23	9.88272
1999.48	10.3285
1999.72	7.68576
1999.97	7.44862
2000.21	12.2429
2000.46	3.55405
2000.7	6.27171
2000.95	10.6895
2001.19	4.75269
2001.43	10.0784
2001.68	12.2788
2001.92	8.9765
2002.17	14.6622
2002.41	6.09988
2002.66	1.64824
2002.9	13.9777
2003.15	13.9552
2003.39	17.402
2003.64	17.5867
2003.88	12.2944
2004.13	11.5459
2004.37	8.78781
2004.61	10.8273
2004.86	14.4039
2005.1	16.7079
2005.35	22.5562
2005.59	15.5273
2005.84	12.0464
2006.08	12.1375
2006.33	11.4048
2006.57	11.7207
2006.81	12.3916
2007.06	8.54517
2007.3	12.9863
2007.55	10.9929
2007.79	5.87263
2008.04	15.375
2008.28	15.1945
2008.53	4.19012
2008.77	11.384
2009.01	12.7872
2009.26	15.1654
2009.5	11.7675
2009.75	11.7375
2009.99	13.9049
2010.24	12.0401
2010.48	1.75067
2010.73	14.6578
2010.97	14.2792
2011.21	9.47534
2011.46	16.4655
2011.7	19.0388
2011.95	16.2019
2012.19	11.0397
2012.43	18.2938
2012.68	13.5671
2012.92	12.6091
2013.17	23.8634
2013.42	7.79289
2013.67	21.8056
2013.91	14.2233
2014.16	6.63066
2014.41	10.3046
2014.66	24.2875
2014.9	10.1118
2015.15	8.20845
2015.4	13.846
2015.64	11.9934
2015.89	3.57574
2016.14	19.5574
2016.39	7.32986
2016.63	11.132
2016.88	1.87381
2017.13	3.77846
2017.37	0.0065155
2017.62	16.8922
2017.87	15.9053
2018.11	4.57355
2018.36	6.37877
2018.61	10.054
2018.86	17.4878
2019.1	0.535065
2019.35	11.7102
2019.6	7.89117
2019.84	9.72749
2020.09	7.82608
2020.34	11.557
2020.58	9.67854
2020.83	4.04907
2021.08	2.16768
2021.33	15.2892
2021.57	10.6173
2021.82	2.18753
2022.07	8.73436
2022.31	-4.39531
2022.56	18.9889
2022.81	3.97084
2023.05	8.60524
2023.3	7.6156
2023.55	-2.71587
2023.8	3.79155
2024.04	16.8422
2024.29	11.1894
2024.54	13.9559
2024.78	3.61333
2025.03	11.0221
2025.27	23.0971
2025.52	7.16351
2025.77	18.3061
2026.02	3.32474
2026.26	-0.470291
2026.51	10.7395
2026.76	11.7435
2027	16.5333
2027.25	-0.135788
2027.5	17.7874
2027.74	8.53577
2027.99	4.76826
2028.23	14.9361
2028.48	4.48103
2028.73	3.97881
2028.98	-0.201752
2029.22	7.01952
2029.47	7.58136
2029.72	13.3755
2029.96	11.1687
2030.21	0.688202
2030.45	-4.1806
2030.7	14.4643
2030.95	8.71407
2031.19	4.18872
2031.44	2.43211
2031.69	13.6015
2031.93	2.40685
2032.18	-3.1857
2032.43	5.26662
2032.67	7.19566
2032.92	-9.54732
2033.17	7.32794
2033.41	-5.70718
2033.66	3.67752
2033.91	14.9536
2034.15	0.954346
2034.4	-1.0083
2034.64	3.5423
2034.89	1.48994
2035.14	1.44385
2035.38	6.18846
2035.63	-6.81696
2035.87	4.49217
2036.12	8.36691
2036.37	-1.82384
2036.61	12.1991
2036.86	8.36121
2037.11	4.62883
2037.35	7.47998
2037.6	13.09
2037.84	1.86182
2038.09	-2.82901
2038.34	-8.45828
2038.58	14.8856
2038.83	0.83876
2039.08	10.1551
2039.32	10.1264
2039.57	5.42488
2039.81	-4.87796
2040.06	4.42177
2040.31	-3.09613
2040.55	-5.00932
2040.8	2.41058
2041.04	-6.02574
2041.29	4.1976
2041.54	-1.42662
2041.78	5.08678
2042.03	6.00958
2042.27	7.85045
2042.52	5.03418
2042.77	9.65633
2043.01	-5.26369
2043.26	-11.7842
2043.5	-0.585587
2043.75	2.26137
2044	4.20163
2044.24	2.41501
2044.49	-4.08528
2044.73	-8.75594
2044.98	-11.5925
2045.23	1.38586
2045.47	8.67853
2045.72	-4.14391
2045.96	-1.28822
2046.21	-3.83392
2046.45	11.4285
2046.7	-2.75668
2046.95	4.54784
2047.19	-8.65242
2047.44	9.09245
2047.68	2.50748
2047.93	12.6208
2048.17	-6.99294
2048.42	1.40753
2048.67	-4.17413
2048.91	-6.95628
2049.16	7.98386
2049.4	4.30519
2049.65	5.2807
2049.89	11.8695
2050.14	11.0096
2050.39	15.7339
2050.63	-1.01984
2050.88	-5.65895
2051.12	2.76184
2051.37	-6.5881
2051.61	6.45644
2051.86	12.9416
2052.11	8.27475
2052.35	3.61374
2052.6	0.844025
2052.84	4.59158
2053.09	-1.92085
2053.33	-0.953949
2053.58	-2.78313
2053.82	-6.47215
2054.07	-5.45068
2054.31	-9.15491
2054.56	1.16165
2054.8	-1.63445
2055.05	16.1391
2055.3	-8.1871
2055.54	-3.51837
2055.79	-1.68594
2056.03	16.0631
2056.28	-1.70604
2056.52	-0.783737
2056.77	7.61421
2057.01	-4.54471
2057.26	10.414
2057.5	2.94969
2057.75	-0.770676
2058	1.12622
2058.24	-7.2574
2058.49	-7.22632
2058.73	2.17606
2058.98	-2.45625
2059.22	3.20119
2059.47	-1.44574
2059.71	-0.493515
2059.96	2.32999
2060.2	-3.27827
2060.45	6.06546
2060.69	-2.3811
2060.94	2.28416
2061.18	0.439224
2061.43	5.15117
2061.67	-4.1868
2061.92	-11.6638
2062.16	-0.41951
2062.41	-0.407639
2062.65	0.547012
2062.9	-2.23778
2063.14	-6.89017
2063.39	-1.23259
2063.63	4.42477
2063.88	8.20361
2064.12	-3.01636
2064.37	12.9384
2064.61	-4.8503
2064.86	0.800842
2065.1	0.833282
2065.35	-1.93225
2065.59	3.75662
2065.84	3.81361
2066.08	4.80295
2066.33	8.60091
2066.57	6.75519
2066.82	-6.37724
2067.06	4.91719
2067.31	13.3978
2067.55	-0.669327
2067.8	-7.21562
2068.04	-10.9395
2068.29	-0.57222
2068.53	6.03238
2068.78	1.35025
2069.02	-2.37643
2069.27	1.39262
2069.51	-3.32693
2069.76	-2.43127
2070	-5.31976
2070.25	5.92676
2070.49	10.6469
2070.73	-8.99887
2070.98	8.95609
2071.22	11.8824
2071.47	-3.17346
2071.71	-6.98029
2071.96	-3.95175
2072.2	-4.81516
2072.45	7.42123
2072.69	-0.118698
2072.94	4.59058
2073.18	-5.77509
2073.43	-4.82703
2073.67	-2.94655
2073.92	1.77594
2074.16	-14.2173
2074.4	2.74854
2074.65	10.3099
2074.89	12.2368
2075.14	16.0638
2075.38	2.94392
2075.63	1.14658
2075.87	3.13646
2076.12	7.92876
2076.36	3.25111
2076.6	7.03906
2076.85	8.94298
2077.09	-3.34135
2077.34	-4.31384
2077.58	6.0327
2077.83	-1.59015
2078.07	2.16916
2078.31	-3.45999
2078.56	-10.0175
2078.8	-7.16454
2079.05	7.01115
2079.29	1.38397
2079.54	-5.17235
2079.78	-1.30533
2080.03	8.18373
2080.27	-3.11203
2080.51	-3.07578
2080.76	9.2401
2081	-0.199234
2081.25	0.735336
2081.49	-11.5523
2081.74	9.23685
2081.98	-1.15005
2082.22	-7.76204
2082.47	2.65292
2082.71	-1.10471
2082.96	-10.5362
2083.2	-2.96439
2083.45	-3.90405
2083.69	5.54668
2083.93	13.1071
2084.18	-6.72781
2084.42	-8.60701
2084.67	0.848969
2084.91	11.2549
2085.15	-4.79544
2085.4	-0.0603027
2085.64	8.45277
2085.89	-1.93295
2086.13	-3.80202
2086.37	-0.912247
2086.62	-15.9769
2086.86	-8.36343
2087.11	7.74402
2087.35	2.09917
2087.59	-2.5932
2087.84	-4.4599
2088.08	1.22861
2088.32	0.294113
2088.57	0.307907
2088.81	-3.46086
2089.06	5.07623
2089.3	-2.47845
2089.54	-6.22867
2089.79	2.33176
2090.03	4.28349
2090.28	12.8352
2090.52	3.38133
2090.76	10.0354
2091.01	9.11478
2091.25	-8.85907
2091.5	1.59377
2091.74	-6.90788
2091.98	-4.95808
2092.23	3.63716
2092.47	8.44836
2092.72	3.77364
2092.96	-8.49423
2093.2	3.90544
2093.45	11.5593
2093.69	3.06721
2093.93	5.02194
2094.18	7.92122
2094.42	6.06465
2094.66	2.2823
2094.91	-7.21585
2095.15	-1.51013
2095.39	7.04257
2095.64	0.367737
2095.88	-1.55611
2096.13	-3.47185
2096.37	5.06842
2096.61	2.21461
2096.86	-5.382
2097.1	-6.32909
2097.34	-3.49309
2097.59	6.92783
2097.83	-3.543
2098.07	-7.34508
2098.32	2.14871
2098.56	-0.697968
2098.8	3.0829
2099.05	5.94064
2099.29	-6.39233
2099.53	5.94522
2099.78	1.20204
2100.02	1.20897
2100.27	-15.8613
2100.51	0.287643
2100.75	-3.48871
2101	6.98026
2101.24	-1.50879
2101.48	-2.41354
2101.73	3.31737
2101.97	4.28902
2102.21	-3.2991
2102.45	7.15482
2102.7	-2.33173
2102.94	3.36684
2103.18	0.499146
2103.43	-5.22356
2103.67	3.31136
2103.92	-2.37886
2104.16	-6.17529
2104.4	6.17879
2104.64	-4.23761
2104.89	-0.402176
2105.13	1.53436
2105.37	12.0178
2105.62	4.46246
2105.86	-10.6883
2106.1	-3.99303
2106.35	4.59122
2106.59	-4.88516
2106.83	8.44342
2107.08	-10.5509
2107.32	2.78606
2107.56	8.50774
2107.8	-14.3186
2108.05	-0.0814514
2108.29	-1.06667
2108.53	3.64548
2108.78	-4.94044
2109.02	-8.76425
2109.26	-3.0704
2109.51	2.6451
2109.75	4.60194
2109.99	-0.0995636
2110.23	-2.93648
2110.48	5.625
2110.72	5.63574
2110.96	2.79651
2111.21	-3.84189
2111.45	-2.88249
2111.69	-2.8833
2111.93	0.902985
2112.18	2.79521
2112.42	-1.00291
2112.66	-0.99263
2112.91	-5.7126
2113.15	6.66435
2113.39	1.94783
2113.63	-0.847137
2113.88	9.65483
2114.12	3.98149
2114.36	0.180374
2114.61	2.07666
2114.85	-8.3694
2115.09	-0.747131
2115.33	2.11978
2115.58	0.220734
2115.82	1.16711
2116.06	6.86588
2116.31	-5.48988
2116.55	-12.1627
2116.79	4.91269
2117.03	-15.9855
2117.28	-8.38539
2117.52	-0.78418
2117.76	11.5799
2118	8.72357
2118.25	-9.33246
2118.49	-2.70418
2118.73	2.00621
2118.97	0.0674896
2119.22	15.2144
2119.46	4.75418
2119.7	-2.85719
2119.94	-4.77718
2120.19	1.83679
2120.43	-9.54845
2120.67	-4.808
2120.91	1.84167
2121.16	5.67395
2121.4	5.70294
2121.64	3.85968
2121.88	11.5022
2122.13	3.96806
2122.37	0.222839
2122.61	1.21658
2122.85	-10.1325
2123.1	0.34259
2123.34	-3.422
2123.58	4.19908
2123.82	2.31943
2124.07	5.1651
2124.31	8.00426
2124.55	16.5261
2124.79	9.84624
2125.03	1.24821
2125.28	-12.0966
2125.52	-8.36748
2125.76	-5.57169
2126	-1.82454
2126.25	-11.3302
2126.49	-2.84384
2126.73	6.59331
2126.97	1.83661
2127.21	1.80995
2127.46	-2.94336
2127.7	2.72633
2127.94	10.2929
2128.18	-2.94225
2128.43	7.44972
2128.67	-6.72884
2128.91	-2.93509
2129.15	6.53058
2129.39	2.7543
2129.64	3.69711
2129.88	-6.69919
2130.12	-1.96947
2130.36	-5.74596
2130.6	10.3201
2130.85	4.64861
2131.09	-1.9706
2131.33	2.74353
2131.57	-0.104385
2131.81	5.5464
2132.06	6.47702
2132.3	-5.80292
2132.54	1.74222
2132.78	-3
2133.02	2.64226
2133.27	0.749924
2133.51	-7.73277
2133.75	-7.71359
2133.99	7.4041
2134.23	-3.90617
2134.48	-3.88625
2134.72	-8.58749
2134.96	1.80156
2135.2	0.864853
2135.44	3.70303
2135.68	6.53714
2135.93	-0.0738373
2136.17	-9.526
2136.41	3.63884
2136.65	-4.88838
2136.89	8.29619
2137.14	8.3165
2137.38	-9.57617
2137.62	4.58127
2137.86	1.78458
2138.1	3.72159
2138.34	2.77702
2138.59	0.852646
2138.83	0.827393
2139.07	14.0706
2139.31	8.48604
2139.55	0.0520172
2139.79	5.6333
2140.03	-3.84793
2140.28	-4.80788
2140.52	6.48398
2140.76	7.41504
2141	2.69783
2141.24	9.28889
2141.49	-13.3161
2141.73	3.65067
2141.97	-1.08145
2142.21	6.42265
2142.45	-3.9353
2142.69	-3.92293
2142.93	6.47937
2143.18	2.75368
2143.42	-3.68471
2143.66	11.332
2143.9	-1.34053
2144.14	-8.84647
2144.38	5.29474
2144.62	-3.09088
2144.87	4.50484
2145.11	-2.97234
2145.35	-8.70042
2145.59	-9.61436
2145.83	-6.77371
2146.07	-9.59158
2146.31	-3.01212
2146.55	0.745575
2146.8	-4.8965
2147.04	3.56133
2147.28	-7.72231
2147.52	-4.91461
2147.76	-1.1671
2148	7.27858
2148.24	-0.243134
2148.48	9.14114
2148.73	-4.95537
2148.97	-6.84346
2149.21	-4.97949
2149.45	8.13922
2149.69	1.53854
2149.93	-5.08969
2150.17	1.44812
2150.42	3.28709
2150.66	8.88741
2150.9	-3.30414
2151.14	3.26567
2151.38	9.85458
2151.62	-1.35228
2151.86	-3.19753
2152.1	9.9705
2152.34	2.49271
2152.58	-4.97348
2152.83	4.39159
2153.07	11.8801
2153.31	0.607346
2153.55	-8.78365
2153.79	-20.9705
2154.03	-6.91443
2154.27	15.5587
2154.51	2.40833
2154.75	-8.87834
2154.99	-0.5121
2155.24	2.23747
2155.48	1.23424
2155.72	-5.355
2155.96	-4.45901
2156.2	-10.0975
2156.44	-2.64255
2156.68	6.69339
2156.92	-2.64423
2157.16	4.83656
2157.4	-1.68953
2157.64	-2.59897
2157.89	0.240204
2158.13	1.21913
2158.37	-2.47903
2158.61	-3.39427
2158.85	0.355438
2159.09	-5.24847
2159.33	4.09462
2159.57	-0.588394
2159.81	-1.53923
2160.05	-11.8378
2160.29	4.01031
2160.53	7.71198
2160.77	-5.38504
2161.01	9.52614
2161.25	8.58444
2161.5	-3.54419
2161.74	9.51421
2161.98	-2.61993
2162.22	6.71481
2162.46	-17.5298
2162.7	-8.18808
2162.94	1.14996
2163.18	8.60898
2163.42	-0.730576
2163.66	-1.67061
2163.9	12.3111
2164.14	-1.6837
2164.38	-2.6248
2164.62	2.0103
2164.86	4.77109
2165.11	2.8903
2165.35	5.70432
2165.59	2.93861
2165.83	1.08899
2166.07	0.171524
2166.31	3.91255
2166.55	0.17627
2166.79	2.96396
2167.03	-10.0923
2167.27	1.99376
2167.51	1.97917
2167.75	7.53563
2167.99	-1.81425
2168.23	1.83415
2168.47	-9.39069
2168.71	1.7511
2168.95	6.40688
2169.19	0.850586
2169.43	-8.41283
2169.67	10.2334
2169.91	4.71524
2170.15	-2.65628
2170.39	-0.716003
2170.63	5.85312
2170.87	-9.95151
2171.11	1.22343
2171.35	-4.38597
2171.59	5.85074
2171.83	13.2342
2172.07	-5.4848
2172.31	-9.25432
2172.56	-1.83911
2172.79	3.71777
2173.04	-1.86981
2173.28	10.2149
2173.51	0.932419
2173.76	0.0122833
2174	8.39842
2174.24	0.999222
2174.48	7.53236
2174.72	-4.53021
2174.96	1.0598
2175.2	8.50491
2175.44	-8.21617
2175.68	-1.71056
2175.92	-4.49829
2176.16	-2.63451
2176.4	1.0844
2176.64	2.01007
2176.88	4.78047
2177.12	-12.8692
2177.36	4.79175
2177.6	4.80762
2177.84	2.03496
2178.08	14.1187
2178.32	-3.51387
2178.55	10.4143
2178.8	4.80374
2179.03	7.56419
2179.28	5.71356
2179.52	-0.766876
2179.75	-0.753265
2180	10.4017
2180.23	2.05531
2180.47	5.77893
2180.71	11.3555
2180.95	3.92714
2181.19	2.99818
2181.43	12.2875
2181.67	0.218979
2181.91	3.92168
2182.15	3.91223
2182.39	1.12944
2182.63	-2.59416
2182.87	1.11137
2183.11	14.0939
2183.35	-6.338
2183.59	-1.72852
2183.83	-2.69513
2184.07	3.76726
2184.31	-3.66402
2184.55	6.51425
2184.79	-1.82239
2185.03	-3.65927
2185.27	-12.8987
2185.51	-1.75508
2185.75	4.75652
2185.99	1.0815
2186.23	-7.2225
2186.47	1.16354
2186.7	4.91464
2186.95	5.90387
2187.18	5.04042
2187.42	-3.2507
2187.66	-7.8335
2187.9	-4.07211
2188.14	2.44933
2188.38	-7.7749
2188.62	-3.15039
2188.86	7.96724
2189.1	-1.34331
2189.34	6.97707
2189.58	-4.19447
2189.82	4.10649
2190.06	7.77606
2190.3	13.3243
2190.54	-8.9205
2190.78	-5.19876
2191.01	2.24246
2191.25	2.26721
2191.49	-0.504028
2191.73	-5.11992
2191.97	12.523
2192.21	4.20345
2192.45	-3.19049
2192.69	1.47122
2192.93	3.35248
2193.17	8.95889
2193.41	6.2168
2193.65	10.897
2193.89	10.0201
2194.13	10.1087
2194.36	-1.87218
2194.6	3.77072
2194.84	1.95279
2195.08	-0.835785
2195.32	-1.77579
2195.56	-6.43051
2195.8	-7.37607
2196.04	0.0306702
2196.28	12.0661
2196.52	5.51175
2196.76	-0.105118
2197	-1.06613
2197.23	18.3944
2197.47	3.52956
2197.71	9.07797
2197.95	-12.2443
2198.19	-10.3749
2198.43	10.9881
2198.67	-0.0926971
2198.91	-0.0393219
2199.15	0.0218964
2199.38	7.52104
2199.62	-2.63573
2199.86	2.07689
2200.1	8.65175
2200.34	2.23817
2200.58	-3.24213
2200.82	11.7431
2201.06	0.650848
2201.3	-3.94679
2201.54	8.2197
2201.77	5.35925
2202.01	-4.1198
2202.25	12.247
2202.49	-8.40906
2202.73	0.0557098
2202.97	14.3074
2203.21	1.44019
2203.45	1.40015
2203.68	7.88145
2203.92	-3.11934
2204.16	11.4409
2204.4	-7.42628
2204.64	1.89403
2204.88	13.1236
2205.12	3.68623
2205.36	-7.63524
2205.59	0.616226
2205.83	0.528549
2206.07	-3.20753
2206.31	2.38345
2206.55	3.36259
2206.79	8.02733
2207.03	6.10985
2207.26	5.20004
2207.5	17.3233
2207.74	14.5776
2207.98	-16.072
2208.22	0.71817
2208.46	8.20915
2208.7	3.60066
2208.93	5.50334
2209.17	13.9181
2209.41	12.0839
2209.65	2.79106
2209.89	-0.924408
2210.13	5.59825
2210.36	-0.90596
2210.6	-9.25842
2210.84	-2.70531
2211.08	3.85297
2211.32	-0.769363
2211.56	1.1295
2211.8	0.235031
2212.03	7.7404
2212.27	3.12451
2212.51	0.361099
2212.75	1.3154
2212.99	5.04323
2213.23	9.69716
2213.46	-0.570755
2213.7	5.00505
2213.94	-7.13802
2214.18	-7.12053
2214.42	5.04367
2214.66	-9.80212
2214.89	-12.5309
2215.13	-5.0381
2215.37	-10.6165
2215.61	5.27313
2215.85	-3.11319
2216.08	9.97047
2216.32	3.44385
2216.56	-9.62166
2216.8	11.8556
2217.04	5.32011
2217.28	4.38754
2217.51	-3.07332
2217.75	7.2108
2217.99	9.09445
2218.23	9.10188
2218.47	-7.69807
2218.7	-0.213455
2218.94	-2.98979
2219.18	1.71144
2219.42	2.68431
2219.66	1.7905
2219.9	6.48972
2220.13	0.912857
2220.37	6.5457
2220.61	-8.4044
2220.85	-10.2731
2221.09	2.81229
2221.32	5.60548
2221.56	7.43939
2221.8	2.729
2222.04	-0.103256
2222.27	-4.7964
2222.51	-5.74348
2222.75	5.46089
2222.99	-1.987
2223.23	-2.88863
2223.46	1.81299
2223.7	2.78404
2223.94	-5.57477
2224.18	-12.9946
2224.42	-0.785767
2224.65	3.94614
2224.89	-3.48524
2225.13	0.301224
2225.37	9.70317
2225.6	14.4355
2225.84	6.07008
2226.08	0.498444
2226.32	13.6553
2226.56	-11.5927
2226.79	-3.12741
2227.03	-10.582
2227.27	9.14244
2227.51	5.42838
2227.74	12.0209
2227.98	-6.7149
2228.22	-7.64966
2228.46	-9.53044
2228.69	0.77861
2228.93	-1.10133
2229.17	8.27188
2229.41	5.45679
2229.64	-2.0363
2229.88	10.1885
2230.12	-2.88721
2230.36	4.66579
2230.6	4.70448
2230.83	1.92986
2231.07	5.72707
2231.31	-9.25067
2231.55	-0.753799
2231.78	3.05219
2232.02	-6.30264
2232.26	-3.44348
2232.5	-7.16324
2232.73	-7.12407
2232.97	6.07718
2233.21	-12.6922
2233.45	5.21602
2233.68	0.550873
2233.92	9.05943
2234.16	3.44475
2234.39	4.41243
2234.63	6.29192
2234.87	-5.00993
2235.11	2.50516
2235.34	-0.342148
2235.58	8.06876
2235.82	-4.19498
2236.06	8.03987
2236.29	-4.17131
2236.53	2.42764
2236.77	8.08711
2237	-1.30479
2237.24	3.41389
2237.48	-1.24249
2237.72	-9.66957
2237.95	12.0516
2238.19	9.30937
2238.43	-5.69031
2238.67	-1.86818
2238.9	7.61003
2239.14	4.84164
2239.38	14.3459
2239.61	-0.730072
2239.85	-2.62537
2240.09	7.73361
2240.33	-0.797012
2240.56	4.82436
2240.8	2.92464
2241.04	5.8343
2241.27	3.07755
2241.51	10.643
2241.75	-2.54878
2241.99	7.85065
2242.22	-4.40016
2242.46	15.4404
2242.7	-7.18681
2242.93	15.4967
2243.17	-1.48648
2243.41	7.00922
2243.64	8.87941
2243.88	5.08321
2244.12	0.357056
2244.36	7.90753
2244.59	-8.12387
2244.83	-2.42998
2245.07	-5.2068
2245.3	4.31235
2245.54	3.43755
2245.78	-6.91217
2246.01	-6.87399
2246.25	-3.05115
2246.49	6.44626
2246.72	9.32019
2246.96	2.72202
2247.2	1.80806
2247.43	5.62529
2247.67	8.48865
2247.91	-4.74799
2248.14	1.88074
2248.38	-4.74748
2248.62	3.76527
2248.85	7.54523
2249.09	13.2188
2249.33	-0.979126
2249.56	4.69662
2249.8	1.89378
2250.04	1.92073
2250.27	-2.80792
2250.51	-11.3407
2250.75	-0.0119781
2250.98	-1.93369
2251.22	-7.64316
2251.46	-1.994
2251.69	5.55099
2251.93	3.65594
2252.17	-7.67746
2252.4	0.856033
2252.64	5.61699
2252.88	-1.90913
2253.11	-10.3659
2253.35	0.140793
2253.59	4.94733
2253.82	2.16301
2254.06	0.314255
2254.3	9.82965
2254.53	0.389999
2254.77	-8.11479
2255.01	-4.31367
2255.24	-0.532074
2255.48	-5.25917
2255.72	9.91792
2255.95	0.448044
2256.19	-1.43582
2256.42	1.4438
2256.66	-2.31264
2256.9	-2.27808
2257.13	4.39732
2257.37	2.53403
2257.61	5.41545
2257.84	-2.14716
2258.08	6.42253
2258.32	0.740448
2258.55	-6.84406
2258.79	-0.17984
2259.02	-2.05789
2259.26	3.67123
2259.5	-3.89807
2259.73	-3.87672
2259.97	4.69519
2260.2	-1.93214
2260.44	-3.81009
2260.68	-8.54158
2260.91	-1.86595
2261.15	5.77248
2261.39	10.5899
2261.62	3.02257
2261.86	0.18158
2262.1	-1.70581
2262.33	1.16832
2262.57	8.80183
2262.8	-13.0598
2263.04	-7.30899
2263.28	12.7303
2263.51	-0.551163
2263.75	-5.25772
2263.98	-5.19461
2264.22	-7.03107
2264.46	-2.19415
2264.69	2.6409
2264.93	11.2875
2265.16	-6.80437
2265.4	6.60463
2265.64	-0.0447845
2265.87	2.83168
2266.11	4.75456
2266.34	4.74582
2266.58	-1.97263
2266.81	-8.69069
2267.05	1.77405
2267.29	13.1931
2267.52	0.763397
2267.76	17.9158
2267.99	-1.18694
2268.23	-4.0806
2268.47	-3.15038
2268.7	-6.01604
2268.94	-13.6338
2269.17	-6.93156
2269.41	11.232
2269.65	2.69817
2269.88	-1.06491
2270.12	3.76447
2270.35	1.92026
2270.59	1.02452
2270.82	-19.9594
2271.06	7.77927
2271.3	-0.779678
2271.53	8.81654
2271.77	-8.36707
2272	-7.38269
2272.24	-2.56412
2272.47	-1.58499
2272.71	-7.31631
2272.95	-4.43344
2273.18	-3.46278
2273.42	2.29318
2273.65	4.22128
2273.89	-4.37683
2274.12	-11.0618
2274.36	4.26463
2274.6	-2.42209
2274.83	-5.27979
2275.07	11.965
2275.3	-0.462158
2275.54	15.828
2275.77	-4.26118
2276.01	2.44051
2276.24	-7.10448
2276.48	1.55997
2276.72	-6.05656
2276.95	-8.89005
2277.18	-1.18445
2277.42	-2.09993
2277.66	3.71486
2277.89	-2.93024
2278.13	4.81894
2278.36	4.89912
2278.6	-5.63316
2278.83	3.02823
2279.07	9.75867
2279.3	-4.64948
2279.54	3.02789
2279.78	-10.4413
2280.01	5.80791
2280.24	-1.91461
2280.48	7.63731
2280.72	-3.90753
2280.95	-2.01727
2281.19	-0.119263
2281.42	-0.130981
2281.66	3.68633
2281.89	-1.11722
2282.13	-9.72025
2282.36	1.79987
2282.6	2.78859
2282.83	3.78708
2283.07	-0.962662
2283.3	-2.83733
2283.54	4.89333
2283.77	10.7288
2284.01	-12.2346
2284.24	13.7835
2284.48	10.0301
2284.71	7.19879
2284.95	7.22491
2285.19	8.2336
2285.42	-5.19278
2285.65	1.56155
2285.89	15.0454
2286.12	-12.8927
2286.36	8.21301
2286.59	-3.3291
2286.83	0.536194
2287.06	-10.9751
2287.3	12.205
2287.54	-1.19849
2287.77	4.6105
2288	0.782394
2288.24	3.72502
2288.47	3.71771
2288.71	-2.08269
2288.94	0.786621
2289.18	-7.90536
2289.41	17.0788
2289.65	-6.08078
2289.88	6.37335
2290.12	11.113
2290.35	2.4397
2290.59	4.35019
2290.82	5.3176
2291.06	1.48122
2291.29	2.47345
2291.53	-0.360703
2291.76	-4.14685
2292	1.67043
2292.23	-7.9193
2292.47	0.778519
2292.7	8.52005
2292.94	1.82625
2293.17	10.5402
2293.41	7.68706
2293.64	-6.73575
2293.88	4.85345
2294.11	3.90541
2294.34	-6.70387
2294.58	5.80988
2294.81	-12.519
2295.05	6.7235
2295.28	6.70381
2295.52	9.57414
2295.75	-3.92754
2295.99	3.75746
2296.22	-13.5868
2296.46	-0.143066
2296.69	-7.9041
2296.93	-2.13535
2297.16	0.770706
2297.39	2.7252
2297.63	1.80045
2297.86	3.77065
2298.1	-2.91542
2298.33	-4.77921
2298.57	-1.84651
2298.8	5.89278
2299.04	-14.3081
2299.27	2.12834
2299.51	2.17149
2299.74	3.17241
2299.97	7.05391
2300.21	5.12773
2300.44	11.887
2300.68	-2.58121
2300.91	-14.1328
2301.15	-9.27568
2301.38	11.9821
2301.61	2.35692
2301.85	9.13142
2302.08	-1.47672
2302.32	3.35004
2302.55	4.30539
2302.79	10.09
2303.02	-5.34193
2303.25	-7.27017
2303.49	9.1328
2303.72	-6.30519
2303.96	3.35464
2304.19	-2.41348
2304.43	6.30954
2304.66	-2.34612
2304.89	7.33517
2305.13	-16.7779
2305.36	-5.15099
2305.6	-3.19405
2305.83	3.5834
2306.07	4.57002
2306.3	13.2958
2306.53	0.760147
2306.77	0.773727
2307	9.48242
2307.24	4.65324
2307.47	8.51985
2307.7	2.71075
2307.94	-9.86734
2308.17	-0.210632
2308.41	9.44165
2308.64	-0.22847
2308.87	1.70958
2309.11	-6.00574
2309.34	3.68832
2309.58	3.72414
2309.81	-2.02654
2310.04	-0.0330963
2310.28	-7.72842
2310.51	0.0325775
2310.75	5.84811
2310.98	2.94708
2311.21	15.5097
2311.45	-8.70393
2311.68	11.5068
2311.92	-0.19487
2312.15	4.57903
2312.38	-5.11208
2312.62	-1.26939
2312.85	4.49704
2313.08	11.2347
2313.32	2.55444
2313.55	10.3009
2313.79	8.43175
2314.02	-1.1492
2314.25	0.839111
2314.49	5.72729
2314.72	8.68733
2314.95	-1.87549
2315.19	2.05696
2315.42	-1.77686
2315.66	3.9882
2315.89	6.85194
2316.12	7.78938
2316.36	-5.78346
2316.59	6.69115
2316.82	-3.01015
2317.06	-4.95868
2317.29	0.837433
2317.52	1.81854
2317.76	7.62888
2317.99	-1.97672
2318.23	5.78889
2318.46	3.80392
2318.69	2.8158
2318.93	8.59244
2319.16	10.5014
2319.39	7.58192
2319.63	21.0732
2319.86	-3.06583
2320.09	-4.03651
2320.33	6.58475
2320.56	7.5611
2320.79	8.5313
2321.03	-4.9557
2321.26	-2.02885
2321.5	8.6248
2321.73	0.940338
2321.96	13.5392
2322.2	6.83562
2322.43	15.5948
2322.66	-1.7494
2322.9	9.87498
2323.13	3.10641
2323.36	12.7884
2323.6	11.8418
2323.83	11.8591
2324.06	4.14262
2324.3	4.15465
2324.53	14.7903
2324.76	19.6228
2325	7.0161
2325.23	24.3627
2325.46	27.1979
2325.7	20.3975
2325.93	20.3666
2326.16	38.6789
2326.4	40.5729
2326.63	65.6254
2326.86	97.4204
2327.09	122.449
2327.33	178.329
2327.56	243.823
2327.79	272.69
2328.03	250.453
2328.26	208.969
2328.49	131.887
2328.73	85.6307
2328.96	73.1133
2329.19	57.652
2329.43	44.1251
2329.66	33.4785
2329.89	19.9813
2330.13	21.9055
2330.36	9.41481
2330.59	16.1509
2330.82	7.47371
2331.06	10.3527
2331.29	1.68558
2331.52	4.59297
2331.76	0.772186
2331.99	4.66045
2332.22	2.78168
2332.46	0.813828
2332.69	11.3812
2332.92	4.61986
2333.16	-8.87871
2333.39	10.3618
2333.62	4.56926
2333.85	11.2941
2334.09	-7.00374
2334.32	5.4903
2334.55	6.42915
2334.79	3.5036
2335.02	-5.1725
2335.25	5.39526
2335.48	1.54865
2335.72	7.31477
2335.95	-1.32715
2336.18	3.49937
2336.41	-1.30862
2336.65	4.44923
2336.88	6.36714
2337.11	-5.17268
2337.34	-4.21159
2337.58	-10.944
2337.81	-3.25356
2338.04	4.42879
2338.28	-5.18996
2338.51	-3.26915
2338.74	-3.27139
2338.97	7.30205
2339.21	-9.0256
2339.44	-7.09352
2339.67	4.44617
2339.91	-2.28175
2340.14	-2.28964
2340.37	-8.07059
2340.6	-0.405518
2340.84	-5.23227
2341.07	10.1041
2341.3	-10.1046
2341.53	-12.0701
2341.77	-3.48874
2342	-8.32745
2342.23	0.280365
2342.46	2.17523
2342.7	4.07201
2342.93	-7.44609
2343.16	0.218338
2343.39	5.01331
2343.63	-5.52428
2343.86	-9.36096
2344.09	8.84979
2344.32	5.98186
2344.56	7.9164
2344.79	11.7625
2345.02	3.13463
2345.25	16.5485
2345.49	4.07368
2345.72	5.00882
2345.95	0.177795
2346.18	6.85666
2346.41	-1.79115
2346.65	-2.75624
2346.88	-3.71838
2347.11	10.6415
2347.34	-0.859512
2347.58	-1.82556
2347.81	9.66431
2348.04	-11.3904
2348.27	2.98628
2348.5	1.09624
2348.74	-0.80101
2348.97	2.07565
2349.2	-0.808884
2349.43	-0.832748
2349.67	1.9709
2349.9	-7.6646
2350.13	-9.65402
2350.36	-8.7896
2350.59	-3.17348
2350.83	10.919
2351.06	3.87961
2351.29	0.345367
2351.52	-5.76419
2351.75	8.77008
2351.99	-7.83324
2352.22	-8.96431
2352.45	13.9608
2352.68	4.44113
2352.91	-2.33963
2353.15	-12.973
2353.38	0.254181
2353.61	4.11159
2353.84	9.81519
2354.07	0.259369
2354.31	-8.30753
2354.54	5.97556
2354.77	1.25858
2355	-2.50966
2355.23	3.20506
2355.47	3.19652
2355.7	3.18369
2355.93	9.83827
2356.16	2.19928
2356.39	14.5527
2356.63	2.11888
2356.86	5.84608
2357.09	-5.63351
2357.32	4.79668
2357.55	-8.54425
2357.79	-1.91364
2358.02	-16.1961
2358.25	0.892593
2358.48	7.5287
2358.71	6.56587
2358.94	0.828506
2359.18	-5.83784
2359.41	-1.09853
2359.64	6.49185
2359.87	-4.92609
2360.1	-1.15511
2360.33	-4.03897
2360.57	1.61842
2360.8	1.57925
2361.03	7.23279
2361.26	-0.397018
2361.49	6.20009
2361.72	15.6374
2361.96	2.32085
2362.19	-6.25253
2362.42	-2.50935
2362.65	-0.659821
2362.88	3.08891
2363.11	-3.57346
2363.34	-10.2296
2363.58	-3.63052
2363.81	-2.70503
2364.04	-12.1863
2364.27	-3.69183
2364.5	3.85017
2364.73	11.3887
2364.97	-7.5526
