#Acq. time (s)=	30
#Accumulations=	2
#Range (cm-¹)=	1200...2365
#Windows=	3
#Auto scanning=	Off
#Autofocus=	Off
#Macrospot=	Off
#AutoExposure=	Off
#Spike filter=	Multiple accum.
#Delay time (s)=	2
#Binning=	1
#Readout mode=	Signal
#DeNoise=	Off
#ICS correction=	On
#Dark correction=	Off
#Inst. Process=	Off
#Detector Gain=	Best Dynamic
#Detector ADC=	50 kHz HS
#Detector temperature (°C)=	-60.28
#Instrument=	LabRAM HR Evol
#Detector=	SIN-EM FIVIS
#Objective=	x100_VIS
#Grating=	1800 (450-850nm)
#ND Filter=	100%
#Laser=	532nm_Edge
#Hole=	49.98
#Temperature=	0
#Range=	Visible
#StageXY=	75x50mm Scan+
#StageZ=	Z motor
#X (µm)=	0
#Y (µm)=	0
#Z (µm)=	-263.7
#Full time(mm:ss)=	3:18
#Project=	21_11_04
#Sample=	BU19w
#Site=	
#Title=	BU19w-E-FF11b-FI05-V_1800 (450-850nm)_532nm_Edge_100%_x100_VIS_H50um_30sX2
#Remark=	
#Date=	04.11.2021 18:58
#Acquired=	04.11.2021 18:58:56
#Base:Fit=	16.12.2021 17:39:50
#Base:Fit=	16.12.2021 17:44:46
#Base:Sub=	16.12.2021 17:44:47
1202.73	1.03671
1203.01	-0.0760975
1203.29	3.10588
1203.57	2.00032
1203.85	0.891083
1204.12	0.872499
1204.4	0.844524
1204.68	-1.33644
1204.96	0.778585
1205.24	0.744884
1205.51	1.78316
1205.79	-1.4699
1206.07	-1.50297
1206.35	2.75111
1206.63	0.574448
1206.9	-0.526703
1207.18	-0.55472
1207.46	-0.582142
1207.74	0.461748
1208.01	-0.636568
1208.29	0.404545
1208.57	2.51528
1208.85	2.48861
1209.13	-2.88077
1209.4	-2.90377
1209.68	-0.79038
1209.96	-1.88687
1210.23	-0.84798
1210.51	0.191566
1210.79	2.2981
1211.07	2.26935
1211.35	-2.02591
1211.62	-0.987507
1211.9	-2.07998
1212.18	1.09144
1212.46	1.06506
1212.73	3.17003
1213.01	1.01705
1213.29	-1.13557
1213.57	4.16688
1213.84	-2.23893
1214.12	3.06594
1214.4	0.917967
1214.68	-4.42431
1214.95	-1.24966
1215.23	-3.39801
1215.51	-1.29068
1215.78	2.94125
1216.06	-0.276873
1216.34	3.94934
1216.62	-2.45296
1216.9	1.77407
1217.17	-0.373985
1217.45	-2.51975
1217.73	-1.47899
1218	1.68408
1218.28	0.602976
1218.56	-0.475992
1218.84	1.62814
1219.11	-1.57262
1219.39	-2.65312
1219.67	-1.6096
1219.94	-1.62462
1220.22	1.54097
1220.5	-0.596451
1220.77	-0.615303
1221.05	3.60769
1221.33	2.52706
1221.61	0.38488
1221.88	-3.87537
1222.16	1.39483
1222.44	2.42708
1222.72	3.46054
1222.99	2.37737
1223.27	-0.813999
1223.55	0.220749
1223.82	2.31306
1224.1	4.40711
1224.38	3.33351
1224.65	5.43012
1224.93	0.140215
1225.21	0.131042
1225.49	0.120874
1225.76	4.33294
1226.04	2.207
1226.32	4.30309
1226.59	5.34182
1226.87	3.21007
1227.15	3.17918
1227.42	5.25541
1227.7	-1.08893
1227.98	0.98768
1228.25	4.1108
1228.53	4.09033
1228.81	0.958881
1229.08	2.05509
1229.36	-0.0586414
1229.64	3.07206
1229.91	1.99352
1230.19	0.928707
1230.47	7.23139
1230.74	4.02168
1231.02	1.89477
1231.3	1.88622
1231.57	1.87604
1231.85	3.96552
1232.13	-0.24791
1232.4	0.792507
1232.68	2.88225
1232.96	4.97261
1233.23	1.81287
1233.51	2.85645
1233.79	1.79931
1234.06	1.79363
1234.34	1.78935
1234.62	-0.318806
1234.89	2.82816
1235.17	-0.330919
1235.45	0.714775
1235.72	0.707605
1236	-0.353691
1236.27	-0.364578
1236.55	-1.42683
1236.83	-0.389982
1237.1	2.7459
1237.38	-1.46997
1237.66	0.614737
1237.93	3.74673
1238.21	0.584713
1238.49	1.62205
1238.76	0.563292
1239.04	3.69901
1239.31	-2.59915
1239.59	-1.55824
1239.87	-0.516798
1240.14	-2.61909
1240.42	-1.57615
1240.7	2.61228
1240.97	-0.538712
1241.25	-0.548737
1241.52	2.58599
1241.8	-1.61238
1242.08	-1.61611
1242.35	-0.572449
1242.63	0.475086
1242.91	-0.577793
1243.18	-0.583857
1243.46	0.460716
1243.74	1.50514
1244.01	1.49867
1244.29	-1.65246
1244.56	-0.612223
1244.84	-0.622559
1245.11	0.414478
1245.39	2.49558
1245.67	-1.70187
1245.94	-1.70752
1246.22	-0.666016
1246.49	3.5173
1246.77	0.371689
1247.05	1.4129
1247.32	-3.82462
1247.6	0.35239
1247.87	1.3871
1248.15	-0.710093
1248.43	6.60776
1248.7	-0.714941
1248.98	-0.718119
1249.25	-1.76869
1249.53	0.319893
1249.8	-2.82261
1250.08	3.4425
1250.36	0.297636
1250.63	1.33525
1250.91	0.283386
1251.18	-2.85717
1251.46	1.31479
1251.74	-3.91352
1252.01	0.257092
1252.29	2.3381
1252.56	0.24354
1252.84	1.2818
1253.11	-1.85172
1253.39	1.27898
1253.66	-2.89392
1253.94	2.32817
1254.22	2.32984
1254.49	0.240597
1254.77	-1.84845
1255.04	-0.805096
1255.32	1.28118
1255.59	1.27992
1255.87	0.235727
1256.14	-1.85163
1256.42	1.2826
1256.7	5.45934
1256.97	2.32185
1257.25	2.31817
1257.52	4.4037
1257.8	3.35655
1258.07	3.35359
1258.35	3.34717
1258.62	2.29996
1258.9	3.34528
1259.18	0.214729
1259.45	0.224895
1259.73	2.31083
1260	4.39329
1260.28	7.51449
1260.55	5.41904
1260.83	4.37041
1261.1	7.4962
1261.38	10.6472
1261.65	10.6825
1261.93	12.831
1262.2	13.8248
1262.48	14.8237
1262.75	19.9907
1263.03	20.0284
1263.31	20.0635
1263.58	22.1843
1263.85	18.0566
1264.13	16.9826
1264.41	11.7421
1264.68	8.60568
1264.96	6.51783
1265.23	5.46566
1265.51	9.64478
1265.78	5.46753
1266.06	3.38157
1266.33	4.4321
1266.61	7.57505
1266.88	0.264145
1267.16	4.45566
1267.43	0.279818
1267.71	5.52299
1267.98	2.3963
1268.26	5.54534
1268.53	5.55152
1268.81	3.46165
1269.08	8.70369
1269.36	0.318451
1269.63	2.40875
1269.91	4.49791
1270.18	3.44723
1270.46	2.39693
1270.73	2.39611
1271.01	6.58136
1271.28	0.304182
1271.56	2.40327
1271.83	8.69279
1272.1	4.5167
1272.38	2.43247
1272.65	1.39315
1272.93	3.49785
1273.2	4.55526
1273.48	4.5647
1273.75	4.57275
1274.03	3.52882
1274.3	6.67797
1274.58	5.63112
1274.85	5.63552
1275.13	1.44562
1275.4	4.60023
1275.68	6.70776
1275.95	5.66677
1276.22	1.47501
1276.5	4.63201
1276.78	6.74108
1277.05	6.75105
1277.32	6.76106
1277.6	7.82134
1277.87	9.93254
1278.15	9.94393
1278.42	7.85011
1278.7	7.85873
1278.97	8.9146
1279.24	12.0715
1279.52	8.91561
1279.79	12.0717
1280.07	15.2318
1280.34	20.4969
1280.62	22.6126
1280.89	29.9968
1281.17	51.0634
1281.44	59.4882
1281.71	71.0748
1281.99	113.206
1282.26	156.365
1282.54	201.571
1282.81	273.935
1283.09	360.983
1283.36	418.789
1283.63	367.183
1283.91	273.345
1284.18	178.669
1284.46	117.588
1284.73	73.2909
1285.01	44.8219
1285.28	30.0782
1285.55	17.4579
1285.83	18.5215
1286.1	15.3562
1286.38	12.201
1286.65	10.0987
1286.93	9.04655
1287.2	7.99252
1287.47	6.93978
1287.75	6.94308
1288.02	6.94827
1288.3	4.84882
1288.57	0.646515
1288.84	8.02425
1289.12	2.76946
1289.39	1.7258
1289.67	2.78879
1289.94	-0.364447
1290.21	2.79746
1290.49	5.9599
1290.76	0.697807
1291.04	0.702396
1291.31	1.7599
1291.58	1.76377
1291.86	3.87649
1292.13	2.82894
1292.4	0.72438
1292.68	2.83546
1292.95	1.79136
1293.23	1.80704
1293.5	0.767067
1293.77	3.94345
1294.05	5.00177
1294.32	3.95244
1294.59	2.90262
1294.87	0.807146
1295.14	5.04512
1295.42	2.95532
1295.69	1.91916
1295.96	0.872217
1296.24	0.878204
1296.51	0.882706
1296.79	4.0547
1297.06	1.94191
1297.33	2.99845
1297.61	2.99771
1297.88	3.00089
1298.15	-3.3284
1298.43	1.95378
1298.7	4.06721
1298.97	5.12459
1299.25	1.96106
1299.52	-0.142384
1299.79	4.08976
1300.07	4.09673
1300.34	-0.121502
1300.61	3.05054
1300.89	0.944788
1301.16	-1.15881
1301.44	0.962622
1301.71	0.970924
1301.98	0.977791
1302.26	-0.072691
1302.53	-0.0678978
1302.8	-2.17647
1303.08	-0.0615616
1303.35	0.998035
1303.62	-1.108
1303.9	-0.0459881
1304.17	1.01571
1304.44	-0.036026
1304.72	2.07796
1304.99	-1.08747
1305.26	2.07963
1305.54	-3.1951
1305.81	3.13549
1306.08	1.0289
1306.36	-0.0206032
1306.63	-0.0133038
1306.9	-0.00608063
1307.18	2.10944
1307.45	2.11508
1307.72	1.06757
1307.99	1.07287
1308.27	0.024395
1308.54	1.08816
1308.81	0.0425186
1309.09	0.0519276
1309.36	0.0608177
1309.63	1.12269
1309.91	0.0721817
1310.18	2.1884
1310.45	0.0847321
1310.73	1.14751
1311	-0.955978
1311.27	-2.00418
1311.54	0.116381
1311.82	4.34958
1312.09	0.134832
1312.36	2.2538
1312.64	1.20064
1312.91	0.14925
1313.18	1.21018
1313.45	0.158968
1313.73	0.164669
1314	0.171833
1314.27	1.2357
1314.55	-0.866749
1314.82	1.25402
1315.09	3.37537
1315.36	-0.839613
1315.64	0.223896
1315.91	2.34134
1316.18	-1.87782
1316.46	-0.815857
1316.73	-1.86566
1317	-0.801435
1317.28	-1.84862
1317.55	-0.784218
1317.82	1.3362
1318.09	-1.82586
1318.37	0.293888
1318.64	-0.756306
1318.91	1.3624
1319.18	0.311789
1319.46	2.43179
1319.73	0.326374
1320	1.38892
1320.27	2.44945
1320.55	-2.82898
1320.82	-2.82707
1321.09	-4.93715
1321.36	-2.82353
1321.64	0.343554
1321.91	0.346193
1322.18	-0.704729
1322.45	-0.700823
1322.73	1.41031
1323	0.36318
1323.27	2.48026
1323.54	-1.73007
1323.82	-0.66934
1324.09	0.39217
1324.36	-1.71071
1324.63	1.46115
1324.91	2.51925
1325.18	-1.6989
1325.45	-1.70175
1325.72	3.55378
1325.99	-0.658747
1326.27	0.396139
1326.54	1.45804
1326.81	2.53267
1327.08	0.442863
1327.36	-2.70387
1327.63	1.52614
1327.9	4.70557
1328.17	-3.7173
1328.45	1.56964
1328.72	0.517164
1328.99	-0.528288
1329.26	0.533381
1329.53	1.59389
1329.81	-1.56623
1330.08	-0.507757
1330.35	-2.61417
1330.62	2.65867
1330.9	2.65771
1331.17	0.547033
1331.44	0.545467
1331.71	1.59914
1331.98	1.59961
1332.26	-3.66089
1332.53	3.70109
1332.8	-1.55657
1333.07	-1.55578
1333.34	-2.60501
1333.62	-0.502575
1333.89	-0.50103
1334.16	-1.54911
1334.43	0.552673
1334.7	-0.49383
1334.98	1.60754
1335.25	2.65948
1335.52	-2.58163
1335.79	0.568405
1336.06	1.62097
1336.34	1.62511
1336.61	-1.51499
1336.88	0.586693
1337.15	2.68797
1337.42	1.6432
1337.69	1.64346
1337.96	1.64694
1338.24	-0.443888
1338.51	-1.48728
1338.78	-0.434139
1339.05	0.620081
1339.32	1.6756
1339.6	1.6835
1339.87	0.643681
1340.14	2.74631
1340.41	-0.388384
1340.68	0.665028
1340.95	-0.376343
1341.23	0.675858
1341.5	-0.367023
1341.77	-1.41064
1342.04	2.77763
1342.31	1.7321
1342.58	0.688602
1342.86	-1.39807
1343.13	-1.39204
1343.4	3.84386
1343.67	-2.424
1343.94	3.85843
1344.21	1.77269
1344.48	1.77665
1344.76	-0.31171
1345.03	-1.35542
1345.3	-0.309147
1345.57	-1.35251
1345.84	1.77862
1346.11	-3.44214
1346.39	1.77683
1346.66	0.733942
1346.93	-0.30805
1347.2	-2.39064
1347.47	1.78325
1347.74	-0.296583
1348.01	3.87769
1348.28	-1.32856
1348.55	-0.282999
1348.83	3.88696
1349.1	4.9309
1349.37	3.89201
1349.64	2.85356
1349.91	0.774515
1350.18	2.85834
1350.45	-3.38324
1350.73	-1.29911
1351	2.86383
1351.27	2.86737
1351.54	-0.246113
1351.81	0.802059
1352.08	1.85286
1352.35	2.90648
1352.62	-0.203928
1352.89	5.02067
1353.17	0.884363
1353.44	5.05431
1353.71	0.865278
1353.98	1.88442
1354.25	0.846319
1354.52	-0.183022
1354.79	3.97586
1355.06	-0.18088
1355.33	3.98454
1355.6	-1.19367
1355.88	-1.19257
1356.15	4.00606
1356.42	4.01087
1356.69	-1.17697
1356.96	0.904642
1357.23	5.06161
1357.5	5.06439
1357.77	1.95308
1358.04	-0.119392
1358.31	5.07191
1358.58	1.96129
1358.86	4.03911
1359.13	0.931828
1359.4	3.0089
1359.67	6.11796
1359.94	4.04521
1360.21	-0.0978374
1360.48	4.05033
1360.75	0.948853
1361.02	1.99136
1361.29	5.10432
1361.56	5.10919
1361.83	3.04171
1362.1	2.01104
1362.37	2.01634
1362.65	4.0946
1362.92	5.1401
1363.19	1.00848
1363.46	1.01767
1363.73	3.09791
1364	5.17498
1364.27	5.17974
1364.54	7.25415
1364.81	7.25536
1365.08	5.1856
1365.35	8.29132
1365.62	2.08382
1365.89	1.05116
1366.16	4.155
1366.43	8.28943
1366.7	-1.01315
1366.97	3.12562
1367.24	3.13294
1367.52	3.14273
1367.79	7.28572
1368.06	6.26052
1368.33	16.6071
1368.6	21.7861
1368.87	17.6602
1369.14	16.6319
1369.41	11.465
1369.68	8.36725
1369.95	7.33511
1370.22	5.27002
1370.49	8.37239
1370.76	2.17509
1371.03	8.37041
1371.3	6.30239
1371.57	3.2036
1371.84	6.29629
1372.11	8.35749
1372.38	6.29658
1372.65	6.2995
1372.92	9.3948
1373.19	8.36775
1373.46	11.4632
1373.73	6.31585
1374	11.4722
1374.27	9.41632
1374.54	10.4499
1374.81	10.4559
1375.08	12.5258
1375.35	8.41273
1375.62	12.5416
1375.89	9.45344
1376.16	11.5127
1376.43	16.658
1376.7	12.5329
1376.97	14.5954
1377.24	11.5213
1377.51	11.5387
1377.78	14.6496
1378.05	16.7373
1378.32	16.7552
1378.59	13.6702
1378.86	15.7353
1379.13	17.7988
1379.4	20.8909
1379.67	17.7946
1379.94	17.773
1380.21	20.8462
1380.48	18.7752
1380.75	23.9281
1381.02	22.9015
1381.29	22.891
1381.56	26.9864
1381.83	23.8907
1382.1	24.9082
1382.37	26.9492
1382.64	27.9683
1382.91	27.9595
1383.18	25.9061
1383.45	32.055
1383.72	41.2884
1383.99	35.1462
1384.26	47.4669
1384.53	50.5636
1384.8	60.8607
1385.07	74.2319
1385.34	110.198
1385.61	150.261
1385.87	227.332
1386.14	387.603
1386.41	601.284
1386.68	898.047
1386.95	894.271
1387.22	573.347
1387.49	324.195
1387.76	160.86
1388.03	103.817
1388.3	74.2373
1388.57	50.7354
1388.84	35.3356
1389.11	34.3322
1389.38	25.0886
1389.65	26.0949
1389.92	20.9311
1390.19	17.877
1390.46	12.7362
1390.73	16.837
1390.99	11.7187
1391.26	13.7682
1391.53	11.7171
1391.8	10.6916
1392.07	7.62057
1392.34	6.59917
1392.61	9.67334
1392.88	11.7238
1393.15	8.65674
1393.42	10.7075
1393.69	7.64155
1393.96	5.59967
1394.23	8.67422
1394.5	6.63453
1394.76	7.66918
1395.03	5.63202
1395.3	6.66413
1395.57	8.71757
1395.84	5.65125
1396.11	7.7018
1396.38	5.65789
1396.65	8.72998
1396.92	4.63863
1397.19	8.73306
1397.46	4.64682
1397.73	2.60822
1397.99	5.68541
1398.26	3.64787
1398.53	6.72477
1398.8	4.6875
1399.07	5.72045
1399.34	0.61171
1399.61	1.64207
1399.88	2.67338
1400.14	8.82692
1400.41	5.76607
1400.68	4.74887
1400.95	7.82847
1401.22	8.86006
1401.49	6.82302
1401.76	5.81655
1402.03	-0.315014
1402.3	6.88249
1402.57	2.79279
1402.83	5.88346
1403.1	5.8913
1403.37	8.97414
1403.64	8.96774
1403.91	5.89268
1404.18	3.84688
1404.45	8.97983
1404.72	4.87872
1404.99	4.88038
1405.25	11.0342
1405.52	13.0855
1405.79	11.0374
1406.06	11.0405
1406.33	10.0216
1406.6	15.1545
1406.87	20.289
1407.13	18.2473
1407.4	21.3313
1407.67	34.6688
1407.94	37.754
1408.21	44.9421
1408.48	48.0303
1408.75	38.8114
1409.01	29.5907
1409.28	15.2388
1409.55	17.2981
1409.82	11.145
1410.09	12.169
1410.36	3.96402
1410.62	3.96388
1410.89	7.03944
1411.16	7.04135
1411.43	4.99595
1411.7	7.05275
1411.97	7.06431
1412.23	6.05532
1412.5	6.08938
1412.77	3.03814
1413.04	3.03967
1413.31	1.98488
1413.58	0.961044
1413.84	2.0041
1414.11	3.05103
1414.38	5.10978
1414.65	2.03633
1414.92	4.09559
1415.19	4.10157
1415.45	5.13573
1415.72	3.08991
1415.99	2.07085
1416.26	1.05154
1416.53	2.08683
1416.8	2.09499
1417.06	1.07585
1417.33	1.0831
1417.6	0.0617523
1417.87	1.09528
1418.14	1.1027
1418.4	6.24628
1418.67	0.087328
1418.94	0.0917339
1419.21	-0.933275
1419.48	2.15044
1419.74	1.12516
1420.01	5.23471
1420.28	2.15488
1420.55	-0.92334
1420.82	3.18498
1421.08	2.16423
1421.35	3.19943
1421.62	2.18731
1421.89	4.25213
1422.16	1.18583
1422.42	5.31742
1422.69	2.26124
1422.96	1.23963
1423.23	5.24558
1423.5	2.20301
1423.76	3.21406
1424.03	2.17804
1424.3	-1.89905
1424.57	2.20362
1424.83	2.2366
1425.1	3.2465
1425.37	-0.836006
1425.64	5.32319
1425.91	0.197538
1426.17	3.27447
1426.44	3.27426
1426.71	0.198465
1426.98	5.32081
1427.24	1.219
1427.51	2.24445
1427.78	2.24766
1428.05	2.2528
1428.32	5.33095
1428.58	3.2901
1428.85	-0.798767
1429.12	-0.790981
1429.38	0.242113
1429.65	2.30163
1429.92	-1.78767
1430.19	0.271879
1430.46	3.36154
1430.72	1.32402
1430.99	4.41298
1431.26	4.41994
1431.53	0.317663
1431.79	0.318396
1432.06	1.34574
1432.33	-1.72985
1432.6	1.34486
1432.86	1.34228
1433.13	2.36356
1433.4	3.38633
1433.67	2.36421
1433.93	3.39718
1434.2	1.36298
1434.47	0.344496
1434.73	1.37481
1435	-0.669727
1435.27	3.43355
1435.54	1.38818
1435.8	5.49031
1436.07	2.42005
1436.34	0.374315
1436.6	1.40202
1436.87	1.40605
1437.14	0.385687
1437.41	-0.635084
1437.67	-0.629805
1437.94	1.42587
1438.21	-0.615473
1438.48	-0.609398
1438.74	4.51894
1439.01	1.4527
1439.28	4.53624
1439.54	0.446777
1439.81	6.60721
1440.08	1.48744
1440.35	3.544
1440.61	-2.60306
1440.88	-0.547468
1441.15	-0.544834
1441.41	3.55886
1441.68	-2.58606
1441.95	0.496605
1442.21	1.52974
1442.48	0.509096
1442.75	3.58741
1443.02	1.5384
1443.28	1.54097
1443.55	-1.53069
1443.82	1.54983
1444.08	1.55881
1444.35	-0.482471
1444.62	0.553982
1444.88	-0.466055
1445.15	1.58899
1445.42	0.566254
1445.69	4.6725
1445.95	1.59853
1446.22	1.60181
1446.49	0.579586
1446.75	0.58267
1447.02	-0.440125
1447.28	0.587809
1447.55	3.66708
1447.82	-0.426889
1448.09	0.607414
1448.35	0.614395
1448.62	1.64515
1448.89	-0.402512
1449.15	-1.4253
1449.42	-2.44851
1449.69	-2.44657
1449.95	-0.393442
1450.22	-1.41519
1450.49	-0.386927
1450.75	2.69084
1451.02	1.66876
1451.29	0.646749
1451.55	2.69893
1451.82	1.67778
1452.09	0.657839
1452.35	0.662958
1452.62	-1.37991
1452.88	0.676151
1453.15	-0.343214
1453.42	4.7844
1453.68	-0.336229
1453.95	0.692789
1454.22	-1.35199
1454.48	0.701813
1454.75	2.75444
1455.02	-0.315809
1455.28	1.74111
1455.55	-2.35141
1455.81	2.77837
1456.08	0.732124
1456.35	-0.29092
1456.61	3.80851
1456.88	-0.286982
1457.15	-4.38146
1457.41	1.76838
1457.68	-1.30031
1457.95	-0.271341
1458.21	-1.29042
1458.48	0.763968
1458.74	0.768953
1459.01	-1.27499
1459.28	-1.27095
1459.54	-1.26755
1459.81	0.784594
1460.08	2.83631
1460.34	2.83874
1460.61	0.792049
1460.87	1.81805
1461.14	2.8437
1461.41	-1.25037
1461.67	-1.24896
1461.94	0.79882
1462.2	0.799198
1462.47	1.82221
1462.74	-1.24633
1463	3.86627
1463.27	1.82242
1463.54	2.85227
1463.8	-2.24757
1464.07	-0.190809
1464.33	1.86731
1464.6	-1.19161
1464.86	-1.2275
1465.13	-0.219532
1465.4	-0.224056
1465.66	-0.212597
1465.93	1.83578
1466.19	-2.24997
1466.46	0.807737
1466.73	-2.24492
1466.99	-1.22141
1467.26	-0.198406
1467.52	1.84478
1467.79	-0.191624
1468.05	0.832253
1468.32	2.87571
1468.59	0.83816
1468.85	0.840099
1469.12	-0.178194
1469.38	2.87985
1469.65	-1.19742
1469.92	-2.21496
1470.18	0.844046
1470.45	0.846159
1470.71	-2.20741
1470.98	-0.16951
1471.24	3.90514
1471.51	0.852171
1471.77	-1.1812
1472.04	-2.19595
1472.31	2.89869
1472.57	-0.152811
1472.84	1.8852
1473.1	-2.18567
1473.37	0.86956
1473.64	0.871681
1473.9	0.875044
1474.17	-2.17321
1474.43	0.885773
1474.7	-1.14554
1474.96	-1.14179
1475.23	-0.121243
1475.49	-2.15476
1475.76	-1.13536
1476.02	-1.13279
1476.29	0.9037
1476.55	2.93846
1476.82	0.905745
1477.09	1.92572
1477.35	-0.10487
1477.62	-3.15281
1477.88	0.915337
1478.15	-1.11718
1478.41	-1.1158
1478.68	0.917801
1478.94	-0.0978451
1479.21	0.91818
1479.47	-0.097662
1479.74	-2.12982
1480	1.92906
1480.27	-1.11616
1480.53	1.92935
1480.8	0.91588
1481.07	2.94833
1481.33	2.95483
1481.6	-3.12685
1481.86	-2.10531
1482.12	-2.09885
1482.39	-0.0636539
1482.65	-2.08941
1482.92	-4.11523
1483.19	1.98164
1483.45	5.03131
1483.72	-0.0468178
1483.98	1.97761
1484.25	-1.07723
1484.51	1.94333
1484.78	-1.10418
1485.04	-0.101627
1485.31	-1.08924
1485.57	-0.0551777
1485.84	-1.0584
1486.1	1.97492
1486.37	-0.0487118
1486.63	-1.05324
1486.9	-0.0386696
1487.16	6.0381
1487.43	2.99924
1487.69	-0.0382633
1487.96	2.99913
1488.22	2.9978
1488.49	0.972994
1488.75	0.973936
1489.02	1.98745
1489.28	-0.0339756
1489.54	-2.05434
1489.81	-1.03927
1490.07	-1.03712
1490.34	-0.0251007
1490.6	-1.03645
1490.87	0.986967
1491.13	-0.0217915
1491.4	0.99225
1491.66	-0.0146713
1491.93	-0.0113888
1492.19	-1.0198
1492.46	1.00475
1492.72	-1.01378
1492.99	-0.000370026
1493.25	1.01293
1493.52	-2.01633
1493.78	-1.00137
1494.04	-0.996494
1494.31	-2.00396
1494.57	-0.99143
1494.84	0.0185127
1495.1	-0.99456
1495.37	0.0134029
1495.63	-2.00658
1495.9	-0.996056
1496.16	-2.00421
1496.43	3.04331
1496.69	0.0178566
1496.96	-1.9974
1497.22	-0.985662
1497.48	1.03537
1497.75	0.0294209
1498.01	2.05141
1498.28	-0.972496
1498.54	-0.968626
1498.81	0.0448685
1499.07	1.05894
1499.33	0.0544109
1499.6	-0.950972
1499.86	1.07158
1500.13	2.08375
1500.39	0.0674095
1500.66	0.0696068
1500.92	-2.9587
1501.18	0.0706043
1501.45	3.10061
1501.71	4.11222
1501.98	-1.94015
1502.24	0.0779762
1502.51	-2.94904
1502.77	-0.930109
1503.03	-0.930504
1503.3	4.11278
1503.56	1.09283
1503.83	-0.919775
1504.09	0.092186
1504.35	0.0949192
1504.62	2.11326
1504.88	-1.91908
1505.15	0.0971603
1505.41	3.11508
1505.68	-0.914204
1505.94	0.0957813
1506.2	-1.91663
1506.47	-0.903109
1506.73	-0.899389
1507	1.11998
1507.26	1.12338
1507.52	1.1254
1507.79	1.12683
1508.05	0.122293
1508.32	1.13366
1508.58	0.12948
1508.84	1.14006
1509.11	3.15774
1509.37	-0.869123
1509.63	1.15328
1509.9	0.144987
1510.16	0.144922
1510.43	0.14395
1510.69	1.1497
1510.95	1.14652
1511.22	0.133854
1511.48	2.13849
1511.75	2.13223
1512.01	-0.888988
1512.27	-0.890604
1512.54	0.112551
1512.8	-2.90016
1513.07	-2.89954
1513.33	5.1348
1513.59	-1.88171
1513.86	1.13834
1514.12	-1.87379
1514.38	2.14383
1514.65	2.14074
1514.91	3.14313
1515.17	3.13986
1515.44	2.13326
1515.7	-0.878141
1515.96	0.125662
1516.23	0.127102
1516.49	-0.874123
1516.76	2.1358
1517.02	-0.869238
1517.28	-0.865723
1517.55	1.14518
1517.81	0.14706
1518.07	1.15389
1518.34	-0.848261
1518.6	3.16831
1518.86	-1.84335
1519.13	1.1702
1519.39	2.17638
1519.65	0.171425
1519.92	2.17908
1520.18	-0.827539
1520.44	-0.823456
1520.71	0.184164
1520.97	2.19467
1521.23	2.19719
1521.5	2.19854
1521.76	-2.81686
1522.02	0.193474
1522.29	2.20024
1522.55	-0.808388
1522.81	1.19547
1523.08	0.189316
1523.34	1.1884
1523.6	-0.816654
1523.87	1.18597
1524.13	4.18971
1524.39	-0.814409
1524.66	-0.810555
1524.92	-1.80874
1525.18	0.198641
1525.45	0.204239
1525.71	3.21694
1525.97	1.21979
1526.24	1.2248
1526.5	1.22773
1526.76	1.22852
1527.02	0.227184
1527.29	-0.773689
1527.55	1.23162
1527.81	2.2342
1528.08	1.23277
1528.34	-0.769936
1528.6	0.233208
1528.87	1.2369
1529.13	2.24022
1529.39	-1.76564
1529.65	0.238255
1529.92	-1.76139
1530.18	-1.75637
1530.44	1.25471
1530.71	2.26241
1530.97	2.26636
1531.23	1.26609
1531.5	-0.735376
1531.76	2.27145
1532.02	-0.731464
1532.28	1.27873
1532.55	0.284786
1532.81	-1.71249
1533.07	0.299116
1533.34	2.30972
1533.6	-0.69684
1533.86	0.308107
1534.12	2.31547
1534.39	0.310097
1534.65	3.31958
1534.91	2.31656
1535.17	2.31108
1535.44	-1.70164
1535.7	-0.701202
1535.96	2.3005
1536.22	-0.707329
1536.49	1.29058
1536.75	0.289005
1537.01	3.28836
1537.28	1.28928
1537.54	0.289259
1537.8	1.28628
1538.06	0.285973
1538.33	0.28606
1538.59	2.29006
1538.85	0.30102
1539.11	1.31648
1539.38	2.33089
1539.64	2.34175
1539.9	1.35054
1540.16	3.36416
1540.43	1.36551
1540.69	3.36726
1540.95	3.36701
1541.21	2.36281
1541.48	-0.645769
1541.74	2.35761
1542	1.35355
1542.26	2.35271
1542.52	1.34963
1542.79	2.34844
1543.05	3.34566
1543.31	1.33966
1543.57	3.34102
1543.84	-1.65647
1544.1	0.348587
1544.36	2.35715
1544.62	3.36414
1544.89	-1.63163
1545.15	1.37918
1545.41	0.382568
1545.67	1.38913
1545.93	0.389069
1546.2	0.39143
1546.46	1.39717
1546.72	0.39949
1546.98	2.40846
1547.25	-0.596352
1547.51	0.398149
1547.77	1.39987
1548.03	4.40449
1548.29	2.41343
1548.56	1.40313
1548.82	1.38449
1549.08	1.37634
1549.34	-0.615227
1549.61	4.40277
1549.87	4.43777
1550.13	-3.56269
1550.39	1.48243
1550.65	0.47065
1550.91	1.47662
1551.18	3.4859
1551.44	2.47483
1551.7	1.47805
1551.96	-1.5226
1552.22	0.487616
1552.49	1.49259
1552.75	2.48354
1553.01	2.47991
1553.27	1.47751
1553.53	0.473715
1553.79	0.471201
1554.06	2.47293
1554.32	1.46497
1554.58	2.46557
1554.84	4.46939
1555.1	4.47075
1555.37	1.46844
1555.63	0.47039
1555.89	4.47606
1556.15	0.470905
1556.41	1.47565
1556.68	2.48067
1556.94	1.48172
1557.2	-0.520258
1557.46	0.481815
1557.72	3.48201
1557.98	-1.52609
1558.25	5.47632
1558.51	0.468813
1558.77	3.46648
1559.03	0.463799
1559.29	0.462505
1559.55	1.46141
1559.82	4.45974
1560.08	1.46168
1560.34	2.4616
1560.6	0.464386
1560.86	0.46674
1561.12	0.471371
1561.38	3.47631
1561.65	1.48548
1561.91	2.48915
1562.17	-0.509762
1562.43	1.49096
1562.69	1.49324
1562.95	2.4943
1563.21	1.49437
1563.48	3.50046
1563.74	-0.491655
1564	2.51613
1564.26	1.51772
1564.52	1.51398
1564.78	1.49186
1565.04	-0.541269
1565.3	1.4164
1565.57	0.468298
1565.83	2.50887
1566.09	3.51179
1566.35	2.49973
1566.61	3.50726
1566.87	2.52834
1567.13	0.532658
1567.39	3.52328
1567.66	1.52285
1567.92	0.527428
1568.18	-0.468836
1568.44	3.53249
1568.7	1.52911
1568.96	0.526421
1569.22	0.5271
1569.48	4.52746
1569.75	4.53019
1570.01	3.53306
1570.27	1.53596
1570.53	1.5372
1570.79	0.53845
1571.05	1.53717
1571.31	0.536592
1571.57	1.53616
1571.83	0.537525
1572.1	1.53491
1572.36	3.53076
1572.62	2.53137
1572.88	2.53013
1573.14	-0.465324
1573.4	2.52976
1573.66	2.53403
1573.92	3.53832
1574.18	2.54632
1574.44	4.55062
1574.7	1.5605
1574.97	2.56547
1575.23	-0.428886
1575.49	2.57017
1575.75	3.57074
1576.01	4.57047
1576.27	1.56997
1576.53	1.56506
1576.79	3.55663
1577.05	0.557438
1577.31	2.54875
1577.57	3.54173
1577.83	0.5476
1578.1	2.54149
1578.36	0.548914
1578.62	2.54433
1578.88	3.543
1579.14	4.54232
1579.4	1.55555
1579.66	-0.435255
1579.92	3.55602
1580.18	1.56303
1580.44	4.5545
1580.7	2.55908
1580.96	2.55829
1581.22	2.5566
1581.48	0.561033
1581.74	2.55342
1582	4.5463
1582.26	1.55781
1582.53	0.562191
1582.79	1.55925
1583.05	2.55676
1583.31	-0.431215
1583.57	1.56164
1583.83	2.56051
1584.09	2.56364
1584.35	3.56248
1584.61	4.56053
1584.87	4.56116
1585.13	4.56227
1585.39	1.57475
1585.65	4.56032
1585.91	1.56996
1586.17	6.54468
1586.43	2.56207
1586.69	1.56641
1586.95	4.5513
1587.21	2.56171
1587.47	1.5681
1587.73	0.575838
1587.99	6.54959
1588.25	1.57852
1588.51	2.57782
1588.77	3.57743
1589.03	-0.400986
1589.29	3.58413
1589.55	1.59441
1589.81	2.59268
1590.07	2.59635
1590.33	2.60035
1590.59	2.60188
1590.85	3.59935
1591.12	0.612438
1591.38	4.59578
1591.64	4.5937
1591.9	3.59361
1592.16	4.58459
1592.42	4.58335
1592.68	3.5838
1592.94	1.58932
1593.2	3.57053
1593.46	3.5658
1593.72	3.56363
1593.98	6.54391
1594.24	1.58062
1594.5	1.58579
1594.76	2.5837
1595.02	3.58187
1595.28	1.58802
1595.54	1.58728
1595.8	5.5616
1596.06	2.58356
1596.32	1.59237
1596.58	1.59504
1596.84	3.58481
1597.09	3.58853
1597.35	1.60337
1597.61	2.59713
1597.87	1.60271
1598.13	5.57183
1598.39	6.5604
1598.65	2.58693
1598.91	1.59274
1599.17	3.57572
1599.43	2.58172
1599.69	5.55593
1599.95	5.55351
1600.21	4.55866
1600.47	2.57158
1600.73	1.57597
1600.99	3.5526
1601.25	4.53851
1601.51	1.56505
1601.77	2.55293
1602.03	6.50927
1602.29	4.52637
1602.55	2.54461
1602.81	1.5532
1603.07	3.52982
1603.33	1.55172
1603.59	4.51861
1603.85	4.5202
1604.11	4.5224
1604.37	2.54665
1604.63	5.51485
1604.89	3.5394
1605.14	2.5531
1605.4	4.53483
1605.66	5.5281
1605.92	2.56484
1606.18	6.52587
1606.44	1.58242
1606.7	0.59535
1606.96	2.57587
1607.22	3.52818
1607.48	9.39794
1607.74	6.50811
1608	5.50889
1608.26	-0.206474
1608.52	5.27072
1608.78	4.62313
1609.04	1.96383
1609.29	2.39342
1609.55	6.3152
1609.81	5.08299
1610.07	2.20002
1610.33	5.23472
1610.59	4.38373
1610.85	3.53603
1611.11	3.60278
1611.37	3.62524
1611.63	4.69341
1611.89	2.62098
1612.15	5.26522
1612.4	4.34746
1612.66	6.59429
1612.92	3.5506
1613.18	3.95928
1613.44	5.62287
1613.7	3.42453
1613.96	3.67401
1614.22	5.6028
1614.48	5.08643
1614.74	2.48937
1615	3.8979
1615.25	2.73665
1615.51	3.76455
1615.77	4.14959
1616.03	2.70477
1616.29	3.03135
1616.55	5.25424
1616.81	4.03069
1617.07	5.10711
1617.33	3.65181
1617.59	1.69791
1617.84	3.13174
1618.1	5.00858
1618.36	4.35797
1618.62	2.34465
1618.88	4.48911
1619.14	2.79329
1619.4	3.50438
1619.66	2.41176
1619.91	5.79653
1620.17	4.99381
1620.43	4.62044
1620.69	4.26083
1620.95	1.22105
1621.21	2.37952
1621.47	5.11141
1621.73	4.50209
1621.98	4.8795
1622.24	4.18268
1622.5	3.18756
1622.76	3.26026
1623.02	5.73941
1623.28	4.49308
1623.54	5.25491
1623.79	4.81399
1624.05	3.35963
1624.31	5.04567
1624.57	4.62776
1624.83	4.83706
1625.09	4.36942
1625.35	3.33758
1625.6	3.53402
1625.86	4.30028
1626.12	4.74853
1626.38	4.41691
1626.64	4.41586
1626.9	6.22696
1627.16	4.32545
1627.41	6.79093
1627.67	4.91658
1627.93	1.96331
1628.19	4.35436
1628.45	3.32041
1628.71	1.53595
1628.96	4.69046
1629.22	4.54483
1629.48	2.87794
1629.74	4.45875
1630	1.75076
1630.26	4.57135
1630.51	3.5434
1630.77	1.71704
1631.03	0.733498
1631.29	2.55789
1631.3	2.63269
1631.56	2.63764
1631.82	6.58107
1632.08	3.63026
1632.34	3.64143
1632.6	3.63936
1632.86	4.61605
1633.13	6.58402
1633.39	6.58786
1633.65	3.63643
1633.91	3.63944
1634.17	1.67021
1634.43	5.61437
1634.69	4.62947
1634.96	3.64418
1635.22	6.60071
1635.48	2.65819
1635.74	4.62802
1636	3.64168
1636.26	3.64047
1636.52	3.63882
1636.79	5.60596
1637.05	3.63579
1637.31	5.60586
1637.57	6.58999
1637.83	6.58908
1638.09	1.66677
1638.35	1.66847
1638.61	3.63881
1638.87	0.687067
1639.13	4.62586
1639.4	4.62716
1639.66	5.61214
1639.92	0.691946
1640.18	1.68144
1640.44	2.67041
1640.7	0.703682
1640.96	6.61221
1641.22	2.67278
1641.48	5.62631
1641.75	3.65771
1642.01	5.62717
1642.27	4.64328
1642.53	3.65975
1642.79	1.69206
1643.05	4.64619
1643.31	4.64606
1643.57	5.62943
1643.83	3.6598
1644.09	1.69036
1644.35	0.707457
1644.62	7.59636
1644.88	2.68189
1645.14	3.66876
1645.4	5.63946
1645.66	4.65489
1645.92	3.66993
1646.18	-0.265989
1646.44	4.65289
1646.7	1.70172
1646.96	4.6515
1647.22	2.68429
1647.48	1.70148
1647.74	2.68715
1648.01	2.6916
1648.27	2.69677
1648.53	3.69039
1648.79	4.68397
1649.05	2.71377
1649.31	6.65082
1649.57	2.714
1649.83	4.68919
1650.09	3.71219
1650.35	8.64225
1650.61	5.69328
1650.87	2.74194
1651.13	4.71567
1651.39	6.68838
1651.65	7.67537
1651.92	3.73572
1652.18	1.76515
1652.44	8.66137
1652.7	3.73498
1652.96	1.7659
1653.22	5.70928
1653.48	5.71285
1653.74	3.74519
1654	3.7476
1654.26	2.76484
1654.52	5.72571
1654.78	8.68912
1655.04	-0.177813
1655.3	3.77555
1655.56	3.78258
1655.82	6.74848
1656.08	3.7912
1656.34	3.79384
1656.6	7.74355
1656.86	3.79504
1657.12	3.79439
1657.38	2.80752
1657.64	1.82083
1657.9	0.833765
1658.16	4.77919
1658.42	6.75045
1658.69	1.81708
1658.95	1.81587
1659.21	6.7446
1659.47	0.826496
1659.73	2.8002
1659.99	3.79005
1660.25	2.80857
1660.51	4.78609
1660.77	2.81865
1661.03	1.83768
1661.29	1.84084
1661.55	3.82019
1661.81	4.78408
1662.07	4.82299
1662.33	3.86435
1662.59	4.84374
1662.85	0.888302
1663.11	3.85875
1663.37	4.79095
1663.63	4.81808
1663.89	3.839
1664.15	2.85315
1664.41	5.82792
1664.67	3.86237
1664.93	2.86031
1665.19	2.82339
1665.45	1.89719
1665.71	-0.0724468
1665.97	3.87911
1666.23	2.88863
1666.49	3.77599
1666.75	3.85458
1667.01	1.87763
1667.27	3.84917
1667.53	1.87566
1667.79	0.887173
1668.05	1.8746
1668.31	5.8302
1668.56	3.87192
1668.83	0.913176
1669.09	1.90278
1669.35	1.905
1669.6	3.88122
1669.86	3.88027
1670.12	5.86755
1670.38	3.90265
1670.64	4.8907
1670.9	2.91349
1671.16	1.92588
1671.42	3.90434
1671.68	1.93111
1671.94	3.91034
1672.2	4.90055
1672.46	1.93628
1672.72	5.89245
1672.98	3.91776
1673.24	3.92062
1673.5	-1.01954
1673.76	2.93959
1674.02	4.92175
1674.28	1.95854
1674.54	5.92069
1674.8	1.96813
1675.06	2.96108
1675.32	2.96323
1675.58	3.95411
1675.83	6.92505
1676.1	5.93821
1676.35	2.97131
1676.61	2.97275
1676.87	0.00425911
1677.13	1.98363
1677.39	2.97224
1677.65	-1.97632
1677.91	4.94573
1678.17	2.96539
1678.43	3.95287
1678.69	0.985979
1678.95	2.96302
1679.21	0.985794
1679.47	1.97389
1679.73	2.96222
1679.98	3.9501
1680.25	0.985308
1680.5	1.97326
1680.76	4.9376
1681.02	4.93868
1681.28	2.96421
1681.54	2.96573
1681.8	0.991596
1682.06	3.95732
1682.32	0.994547
1682.58	0.99556
1682.84	0.996857
1683.1	1.98624
1683.35	3.96309
1683.61	-0.975492
1683.87	1.9869
1684.13	2.97426
1684.39	2.97471
1684.65	2.97558
1684.91	4.95164
1685.17	1.9907
1685.43	1.00491
1685.69	3.96923
1685.95	1.99701
1686.2	-0.960891
1686.46	1.01828
1686.72	5.96017
1686.98	-0.954689
1687.24	3.98383
1687.5	2.00772
1687.76	2.99513
1688.02	4.96954
1688.28	2.00644
1688.54	0.0297165
1688.79	2.98928
1689.05	1.01398
1689.31	0.0257282
1689.57	1.99617
1689.83	1.99492
1690.09	2.00131
1690.35	1.01885
1690.6	2.99546
1690.86	1.02472
1691.12	0.0409527
1691.38	0.0443649
1691.64	4.98096
1691.9	3.99466
1692.16	3.00689
1692.42	2.01816
1692.68	0.0429764
1692.93	3.98474
1693.19	4.96614
1693.45	1.02038
1693.71	3.97506
1693.97	-0.953752
1694.23	1.01546
1694.49	5.94144
1694.74	1.01884
1695	2.00661
1695.26	2.99444
1695.52	-0.943681
1695.78	1.03058
1696.04	3.00509
1696.3	1.0359
1696.55	3.00698
1696.81	1.03477
1697.07	3.00213
1697.33	2.01383
1697.59	2.99588
1697.85	1.02531
1698.11	2.00824
1698.36	1.02317
1698.62	-0.944654
1698.88	-0.943555
1699.14	3.97861
1699.4	2.01264
1699.66	2.99854
1699.92	3.98124
1700.17	1.02987
1700.43	2.01455
1700.69	2.99888
1700.95	1.03161
1701.21	-0.936341
1701.46	0.0455914
1701.72	3.97668
1701.98	-0.940283
1702.24	0.041214
1702.5	4.95485
1702.76	0.0426044
1703.01	1.02585
1703.27	3.97336
1703.53	-0.93853
1703.79	-1.91839
1704.05	0.0503807
1704.3	3.00085
1704.56	3.00178
1704.82	1.03699
1705.08	1.03848
1705.34	2.02294
1705.6	1.03963
1705.85	1.03768
1706.11	2.01731
1706.37	2.99613
1706.63	0.0482883
1706.89	2.00914
1707.14	-0.937131
1707.4	-1.92108
1707.66	2.97815
1707.92	-0.94669
1708.18	0.0290833
1708.43	1.00456
1708.69	1.00202
1708.95	1.00082
1709.21	1.00107
1709.47	1.98124
1709.72	0.0253029
1709.98	1.98535
1710.24	1.98812
1710.5	0.0343609
1710.76	-0.94175
1711.01	1.02006
1711.27	1.02312
1711.53	2.98441
1711.79	0.0461636
1712.04	1.02302
1712.3	3.95391
1712.56	1.01195
1712.82	-0.94974
1713.08	0.0245323
1713.33	-0.957925
1713.59	0.994719
1713.85	0.99412
1714.11	-2.91309
1714.36	1.97136
1714.62	0.995792
1714.88	3.92981
1715.14	-1.9254
1715.4	1.00767
1715.65	-0.945971
1715.91	3.93812
1716.17	0.0289478
1716.43	-0.950193
1716.68	-1.92981
1716.94	2.94445
1717.2	2.93686
1717.46	-0.969474
1717.71	0.000843048
1717.97	-1.95131
1718.23	-0.00537109
1718.49	1.94133
1718.74	2.91595
1719	-1.95057
1719.26	2.91832
1719.52	-0.00025177
1719.78	1.95007
1720.03	-0.970578
1720.29	0.00199127
1720.55	-0.000457764
1720.81	-0.975602
1721.06	1.94156
1721.32	0.966557
1721.58	2.9087
1721.83	-0.98283
1722.09	-0.0132084
1722.35	0.956163
1722.61	0.954119
1722.86	0.952711
1723.12	-0.0188484
1723.38	-1.95978
1723.64	-0.016964
1723.89	-0.0163498
1724.15	-0.016798
1724.41	3.8631
1724.66	0.946796
1724.92	2.88184
1725.18	1.90701
1725.44	0.934492
1725.69	1.90286
1725.95	-0.0329828
1726.21	-0.0318956
1726.46	-1.00138
1726.72	1.9014
1726.98	-0.0356998
1727.24	1.90661
1727.49	0.939629
1727.75	1.90726
1728.01	-0.0336361
1728.27	-1.98543
1728.52	0.891424
1728.78	-0.0843782
1729.04	0.888586
1729.29	2.83103
1729.55	-1.02405
1729.81	-1.0289
1730.06	1.864
1730.32	1.86318
1730.58	1.88206
1730.83	-1.01133
1731.09	-1.00911
1731.35	1.89172
1731.61	0.926123
1731.86	1.8925
1732.12	-0.0400295
1732.38	-0.0406075
1732.63	-0.0420494
1732.89	1.88625
1733.15	0.915855
1733.4	-1.01959
1733.66	-1.98698
1733.92	-0.0612125
1734.17	-1.02855
1734.43	-0.0681677
1734.69	-1.03482
1734.95	-1.0376
1735.2	1.84923
1735.46	-0.0773087
1735.72	-1.0396
1735.97	-0.0768661
1736.23	-1.03957
1736.49	-1.03984
1736.74	-1.04029
1737	0.883116
1737.26	0.882817
1737.51	0.881757
1737.77	-1.04293
1738.03	0.87804
1738.28	0.87627
1738.54	-0.0867205
1738.8	0.871104
1739.05	1.82701
1739.31	-0.0987701
1739.57	0.8553
1739.82	-3.94428
1740.08	-2.02924
1740.34	0.844127
1740.59	-0.11607
1740.85	1.79801
1741.1	0.838305
1741.36	-1.07813
1741.62	0.836883
1741.88	0.837536
1742.13	-0.119214
1742.39	0.838088
1742.64	-0.118591
1742.9	-0.117311
1743.16	-0.116751
1743.41	-2.98878
1743.67	-0.119357
1743.93	-1.07647
1744.18	-2.03269
1744.44	-0.117995
1744.69	-0.11604
1744.95	-0.114156
1745.21	-0.113063
1745.46	0.843295
1745.72	0.841887
1745.98	-0.116547
1746.23	1.79187
1746.49	-1.07717
1746.74	-0.124142
1747	-1.08137
1747.26	0.826525
1747.51	1.78035
1747.77	-0.127543
1748.03	-1.08021
1748.28	0.831285
1748.54	1.7888
1748.8	-0.117072
1749.05	0.842094
1749.31	-2.97332
1749.56	-0.102675
1749.82	-0.0971813
1750.08	-1.04769
1750.33	-1.04428
1750.59	-1.041
1750.84	-0.0824385
1751.1	1.82959
1751.36	-1.0403
1751.61	-1.04311
1751.87	-0.0898533
1752.12	3.7283
1752.38	1.81619
1752.64	0.859443
1752.89	-0.0964165
1753.15	-0.0973988
1753.4	0.855803
1753.66	1.80785
1753.92	-0.101529
1754.17	1.80447
1754.43	-0.102876
1754.68	-0.102992
1754.94	-0.103184
1755.2	-0.103958
1755.45	-2.01089
1755.71	-1.05997
1755.96	1.7946
1756.22	0.838854
1756.47	-0.116402
1756.73	1.7834
1756.99	0.831297
1757.24	-2.02232
1757.5	-0.117921
1757.75	-2.966
1758.01	1.79494
1758.27	1.79734
1758.52	1.79937
1758.78	1.80138
1759.03	1.80409
1759.29	0.85418
1759.54	0.854818
1759.8	-2.95074
1760.05	0.855422
1760.31	-0.0959148
1760.57	-1.04769
1760.82	3.70589
1761.08	0.851666
1761.33	-1.05011
1761.59	-1.04944
1761.84	-0.0984249
1762.1	0.85689
1762.36	-0.0899658
1762.61	0.863276
1762.87	1.8149
1763.12	-2.93696
1763.38	0.869246
1763.63	-1.98024
1763.89	-0.0740414
1764.14	-1.01709
1764.4	-0.0611849
1764.66	-1.00898
1764.91	-1.95767
1765.17	-1.00284
1765.42	1.85578
1765.68	2.80979
1765.93	0.907036
1766.19	-0.996351
1766.44	0.9079
1766.7	-0.0422373
1766.95	0.910193
1767.21	0.9099
1767.46	1.86039
1767.72	-0.0425224
1767.98	0.908614
1768.23	-0.0411329
1768.48	-0.0450029
1768.74	0.898025
1769	0.891498
1769.25	-0.063695
1769.51	1.83743
1769.76	0.892599
1770.02	-0.0501747
1770.27	-1.94828
1770.53	0.904695
1770.78	-0.0402708
1771.04	-1.9337
1771.29	0.923257
1771.55	-0.0252428
1771.8	-0.972196
1772.06	-0.9674
1772.31	1.89118
1772.57	-1.91097
1772.82	-0.955886
1773.08	-0.000713348
1773.33	-2.85301
1773.59	0.957708
1773.84	1.91256
1774.1	0.963162
1774.35	-3.79397
1774.61	-0.934134
1774.86	0.974838
1775.12	0.0305929
1775.37	-0.915815
1775.63	0.994768
1775.88	-0.909227
1776.14	0.998697
1776.39	-1.86103
1776.65	1.95063
1776.9	0.997328
1777.16	0.0435839
1777.41	0.0424986
1777.67	0.0413637
1777.92	3.84933
1778.18	0.0387735
1778.43	0.0365057
1778.69	0.985455
1778.94	0.0327187
1779.2	-0.917501
1779.45	-1.86382
1779.71	0.0429258
1779.96	0.997612
1780.21	-2.80657
1780.47	1.95628
1780.73	1.0067
1780.98	-0.894928
1781.23	1.96442
1781.49	0.0640421
1781.74	0.068347
1782	0.0737371
1782.25	1.98372
1782.51	-0.871019
1782.76	0.0854301
1783.02	-0.863902
1783.27	-2.76671
1783.53	1.0506
1783.78	0.10165
1784.04	-0.846322
1784.29	-0.841976
1784.54	0.115364
1784.8	2.02559
1785.05	0.118427
1785.31	1.07263
1785.56	-1.7893
1785.82	-0.833628
1786.07	0.123173
1786.33	3.94382
1786.58	0.132425
1786.84	4.91128
1787.09	-0.809379
1787.34	-0.798785
1787.6	0.168633
1787.85	-0.775664
1788.11	-0.766681
1788.36	2.10981
1788.62	-0.757566
1788.87	-1.70784
1789.12	2.13085
1789.38	-3.6153
1789.63	1.18044
1789.89	0.226186
1790.14	-0.73033
1790.4	4.06383
1790.65	-1.68756
1790.91	0.219519
1791.16	-0.73771
1791.41	2.13524
1791.67	0.221695
1791.92	-0.733479
1792.18	0.226479
1792.43	-1.68533
1792.68	2.14958
1792.94	1.19426
1793.19	-2.63667
1793.45	-1.67462
1793.7	-0.714272
1793.96	1.2044
1794.21	0.245053
1794.46	1.20708
1794.72	0.263703
1794.97	0.274505
1795.23	-0.678892
1795.48	-1.63482
1795.73	2.21019
1795.99	-1.62615
1796.24	-0.661099
1796.49	-0.656288
1796.75	-1.61261
1797	0.313717
1797.26	3.20145
1797.51	0.321233
1797.76	-3.52138
1798.02	-0.634205
1798.27	2.25254
1798.53	0.330387
1798.78	1.29191
1799.04	-2.55408
1799.29	-0.632667
1799.54	0.327095
1799.8	0.326443
1800.05	-0.634511
1800.3	-0.634226
1800.56	0.327019
1800.81	0.328138
1801.07	1.29024
1801.32	0.33192
1801.57	-0.625969
1801.83	2.25919
1802.08	-0.619299
1802.33	0.345824
1802.59	-1.57171
1802.84	0.355778
1803.1	2.28364
1803.35	1.32558
1803.6	-0.595263
1803.86	0.369908
1804.11	2.29863
1804.36	-1.54517
1804.62	-2.50293
1804.87	1.35275
1805.13	-1.53013
1805.38	-1.52532
1805.63	1.36895
1805.89	-0.553615
1806.14	-0.549814
1806.39	1.38077
1806.65	2.34697
1806.9	0.421276
1807.15	0.423006
1807.41	1.38865
1807.66	1.39061
1807.91	0.428806
1808.17	-2.46075
1808.42	1.39712
1808.67	3.32741
1808.93	4.29378
1809.18	0.440006
1809.43	1.40646
1809.69	-1.48373
1809.94	4.30313
1810.2	-0.516649
1810.45	-0.515813
1810.7	-0.514503
1810.95	0.450871
1811.21	-0.511825
1811.46	-3.40226
1811.71	1.42028
1811.97	-1.46891
1812.22	1.42759
1812.47	0.467746
1812.73	-0.492599
1812.98	-2.41973
1813.23	1.44299
1813.49	-2.41206
1813.74	0.489136
1813.99	-1.43627
1814.25	-0.4636
1814.5	1.47328
1814.75	0.51151
1815.01	1.48099
1815.26	-0.449385
1815.51	-0.447147
1815.77	-2.37781
1816.02	0.524245
1816.27	1.49442
1816.53	-1.40529
1816.78	-1.4047
1817.03	-0.443387
1817.29	0.517569
1817.54	-3.34361
1817.79	3.42159
1818.04	1.49567
1818.3	2.46763
1818.55	0.535047
1818.8	1.5041
1819.06	-1.39204
1819.31	3.44474
1819.56	0.547671
1819.81	4.41856
1820.07	-2.34626
1820.32	2.49255
1820.57	0.561239
1820.83	2.4996
1821.08	1.53654
1821.33	1.54063
1821.58	-2.3269
1821.84	0.579556
1822.09	0.582281
1822.34	0.584702
1822.6	-0.380987
1822.85	0.588633
1823.1	-0.379206
1823.35	0.588759
1823.61	2.5251
1823.86	-0.375842
1824.11	2.53115
1824.37	-0.370133
1824.62	-0.367166
1824.87	2.54096
1825.12	-1.32965
1825.38	2.54599
1825.63	-1.32633
1825.88	-0.356232
1826.14	1.58274
1826.39	0.616094
1826.64	-0.350132
1826.89	-1.3159
1827.15	-0.344108
1827.4	-1.30992
1827.65	0.629789
1827.9	0.630564
1828.16	0.630743
1828.41	5.47327
1828.66	0.629658
1828.91	-0.338134
1829.17	-1.3057
1829.42	2.56875
1829.67	0.63164
1829.92	0.631114
1830.18	0.630917
1830.43	1.60005
1830.68	6.4443
1830.93	-2.26643
1831.19	0.642271
1831.44	-0.322811
1831.69	2.58678
1831.94	-1.28483
1832.2	0.657402
1832.45	0.661463
1832.7	0.663531
1832.95	-0.304125
1833.2	-2.24025
1833.46	0.670322
1833.71	3.58114
1833.96	1.6405
1834.21	0.664582
1834.47	0.657681
1834.72	-0.316241
1834.97	3.55046
1835.22	0.644789
1835.47	0.645011
1835.73	-1.29045
1835.98	1.6652
1836.23	2.65573
1836.48	3.60113
1836.74	1.65205
1836.99	1.6428
1837.24	-1.27085
1837.49	0.651471
1837.75	0.641258
1838	1.60554
1838.25	-0.305319
1838.5	2.61629
1838.75	-0.281737
1839.01	3.59823
1839.26	2.63298
1839.51	-1.23883
1839.76	-3.18452
1840.01	0.678782
1840.26	-0.296827
1840.52	-1.27018
1840.77	-0.309284
1841.02	-0.31474
1841.27	2.57689
1841.53	1.60634
1841.78	0.637012
1842.03	-0.331512
1842.28	-1.29352
1842.53	-0.328296
1842.79	-0.325938
1843.04	2.56939
1843.29	1.60597
1843.54	-1.28787
1843.79	0.642099
1844.04	1.60965
1844.3	-0.317737
1844.55	-0.318501
1844.8	1.61189
1845.05	2.57796
1845.3	-1.27418
1845.56	0.663912
1845.81	-0.294166
1846.06	0.6834
1846.31	1.64502
1846.56	0.659575
1846.81	-3.21872
1847.06	0.626613
1847.32	0.627129
1847.57	-0.327603
1847.82	-0.318698
1848.07	-2.24984
1848.32	-0.327032
1848.58	-0.325701
1848.83	2.56109
1849.08	-2.25476
1849.33	-1.29556
1849.58	-0.336519
1849.83	-0.341119
1850.08	-0.344375
1850.34	-1.3082
1850.59	-2.27082
1850.84	0.609405
1851.09	-2.27304
1851.34	0.607531
1851.59	-2.2729
1851.85	2.52922
1852.1	1.5702
1852.35	-2.2696
1852.6	0.611913
1852.85	1.57226
1853.1	-2.26851
1853.36	2.52975
1853.61	-0.352811
1853.86	-0.356494
1854.11	-0.359947
1854.36	-0.361449
1854.61	-2.27979
1854.86	3.46881
1855.11	0.588967
1855.37	0.586618
1855.62	-0.371603
1855.87	-0.371452
1856.12	0.587366
1856.37	1.54632
1856.62	1.54673
1856.87	-1.32662
1857.13	0.58798
1857.38	-0.370317
1857.63	-0.371466
1857.88	2.49816
1858.13	-3.24643
1858.38	3.44883
1858.63	-0.38056
1858.88	-0.383322
1859.14	1.52684
1859.39	-0.384926
1859.64	1.52841
1859.89	-1.33813
1860.14	-2.29094
1860.39	2.49471
1860.64	-1.32798
1860.89	-0.367675
1861.14	2.50666
1861.39	0.59503
1861.64	1.55243
1861.9	-1.31929
1862.15	2.50532
1862.4	0.589324
1862.65	1.54271
1862.9	2.49575
1863.15	-2.28587
1863.4	-2.28746
1863.65	-2.28887
1863.9	0.575447
1864.16	1.52866
1864.41	0.571397
1864.66	1.52306
1864.91	-0.389573
1865.16	-0.393521
1865.41	-2.30547
1865.66	1.5032
1865.91	1.49697
1866.16	2.44333
1866.41	0.53272
1866.66	-1.3762
1866.92	1.4733
1867.17	1.469
1867.42	-0.434984
1867.67	-1.38653
1867.92	0.514596
1868.17	-0.435134
1868.42	1.46794
1868.67	1.46896
1868.92	0.518373
1869.17	1.4689
1869.42	0.518245
1869.67	1.46881
1869.92	1.46886
1870.17	2.41946
1870.42	0.519051
1870.68	2.42044
1870.93	-1.38107
1871.18	0.518742
1871.43	-0.433017
1871.68	0.515784
1871.93	-0.434792
1872.18	1.46299
1872.43	-0.438607
1872.68	0.50936
1872.93	0.509241
1873.18	0.508994
1873.43	1.45687
1873.68	2.40361
1873.93	3.34933
1874.18	-1.397
1874.43	0.496809
1874.68	2.38938
1874.93	0.489736
1875.18	3.32743
1875.44	1.4247
1875.69	-1.42102
1875.94	3.3068
1876.19	-0.481216
1876.44	1.40893
1876.69	-2.37928
1876.94	0.448464
1877.19	0.432901
1877.44	3.27331
1877.69	0.490874
1877.94	-4.24934
1878.19	1.42023
1878.44	1.41869
1878.69	-0.461649
1878.94	2.38971
1879.19	-1.40154
1879.44	0.488539
1879.69	3.32821
1879.94	-0.45918
1880.19	-1.40286
1880.44	1.4363
1880.69	0.488802
1880.94	-0.462347
1881.19	-1.41476
1881.44	-0.475551
1881.69	1.40725
1881.94	0.453969
1882.19	0.444019
1882.44	-0.504317
1882.69	-1.45602
1882.94	1.46229
1883.19	1.42238
1883.44	-3.34021
1883.69	3.25307
1883.94	-2.39416
1884.19	1.37247
1884.44	1.3768
1884.69	0.442391
1884.94	2.33319
1885.19	-0.49474
1885.44	3.28836
1885.69	0.461236
1885.94	0.46452
1886.19	1.40863
1886.44	0.458935
1886.69	0.45559
1886.94	0.452557
1887.19	0.449327
1887.44	0.445928
1887.69	-0.500676
1887.94	-0.50576
1888.19	1.3739
1888.44	-1.45636
1888.69	0.422804
1888.94	-0.521145
1889.19	-0.520973
1889.44	0.419842
1889.69	1.36282
1889.94	-0.516171
1890.19	0.43001
1890.44	-5.21953
1890.69	-2.39353
1890.94	1.37271
1891.19	4.19842
1891.44	-0.51091
1891.69	-0.511359
1891.94	0.430563
1892.19	-1.45412
1892.44	-1.45626
1892.69	1.3631
1892.94	1.3543
1893.19	2.28622
1893.43	1.34259
1893.69	-0.532205
1893.93	0.402151
1894.18	0.3996
1894.43	0.398525
1894.68	2.27823
1894.93	-0.538699
1895.18	-1.4764
1895.43	0.405129
1895.68	1.34741
1895.93	1.35042
1896.18	-0.5263
1896.43	1.35751
1896.68	-0.520817
1896.93	-0.518908
1897.18	-2.39903
1897.43	-1.4579
1897.68	1.36366
1897.93	-2.39982
1898.17	0.419558
1898.42	-1.46379
1898.67	-0.527086
1898.92	-0.529783
1899.17	1.34829
1899.42	1.34672
1899.67	-4.29163
1899.92	-0.534363
1900.17	1.345
1900.42	1.34692
1900.67	-1.46901
1900.92	1.35373
1901.17	2.29721
1901.42	1.361
1901.67	2.30535
1901.91	0.428807
1902.16	3.25181
1902.41	-1.45249
1902.66	0.427558
1902.91	2.30672
1903.16	-0.515555
1903.41	-0.516245
1903.66	0.423527
1903.91	-0.516865
1904.16	-0.517047
1904.41	1.36271
1904.66	-2.3981
1904.9	1.36225
1905.15	4.18188
1905.4	0.418659
1905.65	1.35213
1905.9	2.28933
1906.15	0.4091
1906.4	-2.40965
1906.65	0.406732
1906.9	-1.47128
1907.15	-1.47011
1907.39	1.34901
1907.64	0.413302
1907.89	-1.46396
1908.14	0.416053
1908.39	-0.521889
1908.64	1.36011
1908.89	-1.45635
1909.14	-2.39301
1909.39	-1.44859
1909.63	-1.44392
1909.88	-1.43897
1910.13	-0.492901
1910.38	0.452438
1910.63	-0.486591
1910.88	-1.42677
1911.13	3.28402
1911.38	-0.483802
1911.62	-0.484447
1911.87	0.456373
1912.12	-0.485713
1912.37	2.33988
1912.62	2.3401
1912.87	1.39881
1913.12	-1.42496
1913.37	-0.47888
1913.61	-0.474015
1913.86	2.35823
1914.11	0.475857
1914.36	0.479422
1914.61	1.42608
1914.86	0.48521
1915.11	0.486461
1915.36	-0.457247
1915.6	-2.3454
1915.85	-0.459181
1916.1	0.482692
1916.35	0.479374
1916.6	-0.466447
1916.85	0.47431
1917.1	1.41539
1917.34	0.471612
1917.59	1.41452
1917.84	0.473758
1918.09	0.477118
1918.34	-0.462045
1918.59	1.42954
1918.84	2.37879
1919.08	3.33003
1919.33	0.503161
1919.58	1.4514
1919.83	-1.38223
1920.08	0.506253
1920.32	1.4512
1920.57	-0.434925
1920.82	2.40508
1921.07	0.517166
1921.32	-2.31776
1921.57	2.41237
1921.82	-0.424743
1922.06	0.51997
1922.31	1.46328
1922.56	1.46075
1922.81	-0.431717
1923.06	2.40287
1923.3	0.510846
1923.55	0.50873
1923.8	0.505913
1924.05	1.44847
1924.3	1.44756
1924.55	1.44795
1924.79	0.504922
1925.04	2.3981
1925.29	-0.432958
1925.54	1.46247
1925.79	1.46671
1926.03	3.36344
1926.28	1.47618
1926.53	5.26656
1926.78	2.42924
1927.03	0.537695
1927.27	1.48668
1927.52	-0.405878
1927.77	0.542918
1928.02	1.49139
1928.27	-0.401774
1928.52	0.547673
1928.76	5.28883
1929.01	1.50107
1929.26	-1.33893
1929.51	0.561692
1929.75	-0.382689
1930	2.46812
1930.25	-0.375418
1930.5	1.52496
1930.75	0.575816
1930.99	0.574726
1931.24	1.52188
1931.49	-0.378899
1931.74	1.51694
1931.99	-1.33232
1932.23	1.51166
1932.48	4.35649
1932.73	0.559638
1932.98	0.559774
1933.22	-2.28311
1933.47	-2.27745
1933.72	3.42991
1933.97	0.593266
1934.22	2.5098
1934.46	0.618339
1934.71	-2.23056
1934.96	-0.317441
1935.21	-0.312357
1935.45	0.633426
1935.7	-0.323508
1935.95	-1.27756
1936.2	0.626353
1936.45	0.623016
1936.69	0.61898
1936.94	2.5199
1937.19	-1.29252
1937.44	-0.34349
1937.68	1.55673
1937.93	1.5557
1938.18	-0.343744
1938.43	1.56272
1938.67	1.56477
1938.92	-2.24259
1939.17	2.52179
1939.42	0.618773
1939.66	-2.23898
1939.91	1.57534
1940.16	1.57919
1940.41	0.634884
1940.65	4.45846
1940.9	-0.312242
1941.15	-0.314294
1941.4	-0.319395
1941.64	2.53206
1941.89	1.58154
1942.14	1.59672
1942.39	0.647888
1942.63	-0.306429
1942.88	-1.26629
1943.13	-2.22707
1943.37	0.629206
1943.62	-1.27225
1943.87	0.640613
1944.12	0.643408
1944.36	1.60154
1944.61	3.51563
1944.86	2.56441
1945.1	0.656983
1945.35	-0.295754
1945.6	2.57495
1945.85	-1.24765
1946.09	0.666259
1946.34	1.62333
1946.59	0.666333
1946.83	-0.291677
1947.08	-0.293638
1947.33	1.61781
1947.58	0.660954
1947.82	0.660357
1948.07	0.658797
1948.32	0.658755
1948.57	-0.295531
1948.81	2.57658
1949.06	-0.290393
1949.31	1.62676
1949.55	1.63068
1949.8	1.63683
1950.05	-1.23022
1950.3	-0.267117
1950.54	-1.22072
1950.79	-0.256326
1951.04	0.708504
1951.28	1.67289
1951.53	-0.24419
1951.78	-0.242353
1952.02	0.719917
1952.27	1.67968
1952.52	-1.20003
1952.76	-1.19717
1953.01	1.68139
1953.26	0.714452
1953.5	1.66401
1953.75	1.65382
1954	1.64427
1954.25	-1.23871
1954.49	-1.24195
1954.74	-0.285298
1954.98	1.63165
1955.23	-0.281341
1955.48	-1.23454
1955.72	2.61145
1955.97	-3.14094
1956.22	-0.257784
1956.47	-1.21561
1956.71	1.66814
1956.96	-1.21066
1957.21	2.63463
1957.45	-0.246121
1957.7	-3.12828
1957.95	-0.244573
1958.19	-2.16673
1958.44	1.6764
1958.69	2.63373
1958.93	0.709343
1959.18	-0.252829
1959.43	1.66588
1959.67	1.66258
1959.92	0.698968
1960.17	2.61615
1960.41	-0.268014
1960.66	-1.23126
1960.9	-0.274362
1961.15	0.682942
1961.4	-0.277141
1961.64	0.682738
1961.89	-1.23683
1962.14	2.60238
1962.38	-2.19684
1962.63	1.64262
1962.88	0.682606
1963.12	1.64247
1963.37	2.60258
1963.62	-0.276483
1963.86	-0.275431
1964.11	1.64439
1964.36	0.682194
1964.6	-0.27851
1964.85	0.680445
1965.09	-0.280285
1965.34	-0.279693
1965.59	-1.23817
1965.83	-1.23579
1966.08	1.64936
1966.33	-0.270723
1966.57	0.691859
1966.82	-0.270368
1967.06	-0.271124
1967.31	1.65194
1967.56	-1.23198
1967.8	1.65196
1968.05	1.65114
1968.3	2.61028
1968.54	1.64551
1968.79	-0.281116
1969.03	1.63484
1969.28	1.62866
1969.53	-0.296795
1969.77	1.61897
1970.02	0.655883
1970.26	-0.307045
1970.51	1.60859
1970.76	-0.312793
1971	2.56257
1971.25	1.6012
1971.49	-0.31723
1971.74	3.52065
1971.99	2.56163
1972.23	-1.27657
1972.48	1.59942
1972.72	0.636858
1972.97	-1.28521
1973.22	-0.330005
1973.46	1.58434
1973.71	2.54049
1973.95	-0.336617
1974.2	1.57952
1974.45	-1.29635
1974.69	0.621068
1974.94	0.622187
1975.18	0.623738
1975.43	0.625105
1975.68	1.58511
1975.92	0.626283
1976.17	1.58532
1976.41	0.625399
1976.66	1.5834
1976.9	4.45903
1977.15	3.49705
1977.4	0.616568
1977.64	-1.30445
1977.89	0.610015
1978.13	-0.351198
1978.38	-1.3116
1978.63	-4.18807
1978.87	0.603873
1979.12	1.56172
1979.36	0.60281
1979.61	1.56091
1979.85	0.600242
1980.1	-1.32004
1980.34	0.593032
1980.59	-0.367557
1980.84	0.58764
1981.08	1.54268
1981.33	1.54056
1981.57	-0.376552
1981.82	3.45293
1982.06	0.576689
1982.31	-0.384413
1982.55	3.44038
1982.8	2.47711
1983.05	-0.398204
1983.29	0.555794
1983.54	-0.402826
1983.78	1.50783
1984.03	1.50517
1984.27	1.50274
1984.52	1.4993
1984.76	0.538314
1985.01	0.534882
1985.25	-0.421992
1985.5	1.48955
1985.75	5.31452
1985.99	-0.419662
1986.24	-0.4191
1986.48	0.535876
1986.73	1.49189
1986.97	4.35749
1987.22	0.527434
1987.46	-1.38983
1987.71	3.38013
1987.95	0.5068
1988.2	2.40381
1988.44	0.483259
1988.69	1.42575
1988.93	1.40055
1989.18	-0.505072
1989.42	3.22774
1989.67	0.426437
1989.91	1.35816
1990.16	-0.68365
1990.41	-2.27896
1990.65	-1.41816
1990.89	2.28656
1991.14	-1.18252
1991.39	1.11992
1991.63	0.349926
1991.88	-1.42011
1992.12	-1.15614
1992.37	-0.0549974
1992.61	1.56057
1992.86	1.87499
1993.1	0.625298
1993.35	0.44688
1993.59	-1.45619
1993.84	3.01785
1994.08	-0.669341
1994.33	3.77099
1994.57	0.441681
1994.82	0.619539
1995.06	2.5097
1995.31	-1.67476
1995.55	0.621898
1995.8	0.179245
1996.04	-0.566792
1996.29	2.13747
1996.53	1.38775
1996.78	-0.443701
1997.02	0.318995
1997.26	-0.223668
1997.51	-0.813595
1997.76	-1.62281
1998	-0.778116
1998.24	-0.363536
1998.49	-0.229379
1998.73	-0.354369
1998.98	1.30997
1999.22	-0.71852
1999.47	1.41964
1999.71	0.548035
1999.96	-0.57522
2000.2	0.290932
2000.45	1.3683
2000.69	0.444399
2000.94	-0.114257
2001.18	0.510652
2001.43	0.122637
2001.67	0.460032
2001.92	0.373215
2002.16	0.445287
2002.4	0.739248
2002.65	1.13275
2002.89	-0.173768
2003.14	-1.09439
2003.38	0.0637846
2003.63	0.73941
2003.87	-0.733099
2004.12	0.875217
2004.36	1.34303
2004.6	0.518243
2004.85	-0.526618
2005.1	0.25444
2005.34	1.07343
2005.58	0.971011
2005.83	1.02741
2006.07	0.730196
2006.32	0.267874
2006.56	0.499007
2006.81	0.909012
2007.05	2.1604
2007.3	0.599597
2007.54	-0.496904
2007.78	0.250886
2008.03	1.00297
2008.27	-0.221734
2008.52	-0.56045
2008.76	-0.744579
2009	-1.65459
2009.25	-0.0874205
2009.49	0.644094
2009.74	-1.65441
2009.98	0.179281
2010.23	-0.495564
2010.47	-0.509707
2010.72	0.177044
2010.96	-0.696342
2011.2	-0.600848
2011.45	0.238416
2011.69	1.15292
2011.94	1.10005
2012.18	0.1708
2012.42	1.11956
2012.67	2.05474
2012.92	1.10331
2013.16	-0.783032
2013.41	1.09064
2013.66	0.14279
2013.91	0.133755
2014.15	1.06281
2014.4	-0.81795
2014.65	0.119879
2014.9	-0.817931
2015.14	0.12244
2015.39	2.00114
2015.64	0.121846
2015.88	-0.818018
2016.13	0.13351
2016.38	2.01529
2016.63	1.07358
2016.87	-2.68871
2017.12	2.00493
2017.37	-0.819086
2017.61	0.113241
2017.86	-1.77136
2018.11	-0.839528
2018.35	-0.845876
2018.6	1.02201
2018.85	-0.859485
2019.1	1.0097
2019.34	-0.866935
2019.59	0.0670538
2019.84	-0.870943
2020.08	0.063921
2020.33	-0.874397
2020.58	0.061594
2020.82	0.998304
2021.07	2.87079
2021.32	1.93238
2021.57	-0.879834
2021.81	-0.882851
2022.06	-0.886613
2022.31	0.980896
2022.55	0.975209
2022.8	0.0347805
2023.05	-2.77569
2023.29	-1.84447
2023.54	-2.78349
2023.79	1.88662
2024.03	0.0114202
2024.28	1.87317
2024.53	1.8662
2024.77	1.85953
2025.02	-0.0132217
2025.27	-0.0186129
2025.51	-1.89027
2025.76	-0.958516
2026.01	-0.954729
2026.25	-0.0135946
2026.5	-2.80576
2026.75	-1.86095
2026.99	0.0173445
2027.24	0.951643
2027.49	-0.928781
2027.73	-0.00846958
2027.98	0.884882
2028.23	1.8457
2028.47	0.97121
2028.72	0.949389
2028.97	-1.85036
2029.21	0.934083
2029.46	-0.954244
2029.71	5.55657
2029.95	-1.90806
2030.2	-0.989891
2030.45	-0.981813
2030.69	-0.0394049
2030.94	-0.0425491
2031.19	-0.0435114
2031.43	0.888204
2031.68	-1.9081
2031.92	-0.0374594
2032.17	-1.90062
2032.42	-0.962669
2032.66	1.84402
2032.91	-0.957846
2033.16	1.85022
2033.4	3.72503
2033.65	-0.960294
2033.89	0.899249
2034.14	-2.8534
2034.39	0.871155
2034.64	-0.05548
2034.88	-0.985157
2035.13	-0.978587
2035.37	-0.0337105
2035.62	1.84448
2035.87	0.910463
2036.11	2.76911
2036.36	-1.90709
2036.6	-0.0336924
2036.85	-1.90488
2037.1	0.898644
2037.34	1.83105
2037.59	-0.976509
2037.84	0.889816
2038.08	-0.982847
2038.33	-3.78937
2038.57	-0.0552826
2038.82	1.80925
2039.07	-0.996543
2039.31	-1.00052
2039.56	1.79475
2039.8	-1.0107
2040.05	-1.01553
2040.3	-0.0873871
2040.54	-0.0916882
2040.79	-1.9602
2041.03	2.69877
2041.28	1.7646
2041.53	-1.96693
2041.77	-1.03772
2042.02	-0.109508
2042.26	-0.112453
2042.51	-0.113393
2042.76	1.75017
2043	0.82138
2043.25	-0.105534
2043.49	-1.96542
2043.74	-0.0975437
2043.99	-0.0988503
2044.23	-1.03574
2044.48	-0.110441
2044.72	2.67093
2044.97	-1.97776
2045.22	0.828571
2045.46	0.846226
2045.71	-0.0627069
2045.95	-1.00442
2046.2	1.78197
2046.44	1.76754
2046.69	-1.96871
2046.94	-1.03934
2047.18	-0.118234
2047.43	1.74009
2047.67	0.80713
2047.92	0.80709
2048.16	1.73958
2048.41	2.67283
2048.66	-1.98676
2048.9	2.67946
2049.15	-1.04882
2049.39	-0.111052
2049.64	0.826383
2049.88	-2.90587
2050.13	1.76651
2050.37	-1.97015
2050.62	0.83102
2050.87	0.827183
2051.11	-2.91342
2051.36	-1.98133
2051.6	-1.04818
2051.85	0.820649
2052.09	-0.11307
2052.34	-0.11224
2052.58	0.823547
2052.83	-1.04284
2053.08	2.69834
2053.32	-1.03418
2053.57	1.77413
2053.81	-0.0949163
2054.06	-0.0949678
2054.3	0.839438
2054.55	0.837816
2054.79	-1.03453
2055.04	0.831405
2055.29	-1.97661
2055.53	3.63181
2055.78	-1.98006
2056.02	1.75671
2056.27	-0.114817
2056.51	2.68826
2056.76	0.818798
2057	-0.115595
2057.25	-0.114541
2057.49	0.822292
2057.74	1.75891
2057.98	-0.108315
2058.23	-0.105473
2058.47	-1.97462
2058.72	-1.03689
2058.96	2.70782
2059.21	0.83567
2059.45	1.77212
2059.7	0.833056
2059.95	-1.04191
2060.19	1.76252
2060.44	-1.04408
2060.68	-1.04259
2060.93	-2.91402
2061.17	-1.04159
2061.42	0.83058
2061.66	-1.04224
2061.91	-0.105584
2062.15	-0.104678
2062.4	-0.10325
2062.64	0.835631
2062.89	-1.03601
2063.13	1.77659
2063.38	1.77799
2063.62	-0.0957003
2063.87	-0.0950966
2064.11	-1.03157
2064.36	-1.03001
2064.6	-3.84111
2064.85	0.852484
2065.09	-1.02022
2065.34	1.79872
2065.58	1.80177
2065.83	-1.01316
2066.07	-0.073823
2066.32	-1.01238
2066.56	2.74598
2066.81	-1.01041
2067.05	1.80916
2067.29	2.75103
2067.54	-0.0660601
2067.78	0.874939
2068.03	0.875538
2068.27	-1.94317
2068.52	-1.94292
2068.76	0.874684
2069.01	1.80954
2069.25	-1.01638
2069.5	-1.02054
2069.74	0.858205
2069.99	0.863605
2070.23	-1.00851
2070.48	0.879591
2070.72	-1.00117
2070.97	0.874643
2071.21	-1.93524
2071.46	0.898384
2071.7	-0.986107
2071.94	-0.0462294
2072.19	1.83585
2072.43	0.892496
2072.68	3.71618
2072.92	-1.93401
2073.17	-0.0511837
2073.41	-0.0510683
2073.66	1.83249
2073.9	-0.991299
2074.15	0.894571
2074.39	-0.043766
2074.64	-0.981453
2074.88	0.910149
2075.13	-1.91169
2075.37	-0.963035
2075.61	0.927582
2075.86	-0.960004
2076.1	1.87228
2076.35	-0.0175571
2076.59	-0.0210133
2076.84	0.918644
2077.08	0.910836
2077.32	-0.978437
2077.57	-0.977591
2077.81	-1.91813
2078.06	-0.973735
2078.3	-0.0293903
2078.55	-1.9149
2078.79	3.75031
2079.03	0.926727
2079.28	0.930033
2079.52	-0.956747
2079.77	-1.89954
2080.01	0.93709
2080.26	0.937375
2080.5	-1.89955
2080.74	1.87841
2080.99	-1.90188
2081.23	-0.957393
2081.48	-0.958675
2081.72	-0.0130167
2081.97	0.932821
2082.21	-0.956429
2082.45	-0.0113478
2082.7	-0.0118589
2082.94	-0.957784
2083.19	-0.958796
2083.43	0.930681
2083.67	3.76562
2083.92	-1.90466
2084.16	1.87504
2084.41	2.82035
2084.65	-0.959693
2084.89	-1.90514
2085.14	-0.0151987
2085.38	-0.960053
2085.63	1.87913
2085.87	-1.89785
2086.12	-0.948494
2086.36	2.83663
2086.6	1.89241
2086.85	1.89505
2087.09	1.8971
2087.34	0.950594
2087.58	-2.8349
2087.82	-2.83484
2088.07	2.84427
2088.31	1.89855
2088.56	-0.940463
2088.8	0.0080204
2089.04	-1.88316
2089.29	2.85558
2089.53	-0.930991
2089.77	0.0168648
2090.02	0.965149
2090.26	1.91395
2090.51	-2.82209
2090.75	-0.925466
2090.99	-2.81957
2091.24	0.975273
2091.48	0.980046
2091.72	0.98524
2091.97	-0.907283
2092.21	-1.85153
2092.45	1.00089
2092.7	1.00507
2092.94	-0.890764
2093.19	4.8144
2093.43	0.066371
2093.67	1.01997
2093.92	-4.68317
2094.16	1.02133
2094.41	1.97129
2094.65	0.0686874
2094.89	0.0661945
2095.14	1.96392
2095.38	-0.889386
2095.62	1.95902
2095.87	-0.892506
2096.11	-0.89319
2096.35	-1.84372
2096.6	1.95387
2096.84	1.95044
2097.08	-2.80052
2097.33	0.0462685
2097.57	-0.903975
2097.81	-0.90456
2098.06	1.94052
2098.3	1.94044
2098.55	-0.907223
2098.79	-0.908096
2099.03	1.93824
2099.28	0.039876
2099.52	0.0399847
2099.76	0.040451
2100	-0.907753
2100.25	0.042469
2100.49	0.995983
2100.74	-0.899682
2100.98	-0.8976
2101.22	0.0533867
2101.47	0.0535955
2101.71	-0.896658
2101.95	1.00327
2102.2	-0.8969
2102.44	1.00027
2102.68	0.996727
2102.92	-0.904079
2103.17	0.994398
2103.41	0.0440855
2103.65	1.94286
2103.9	-0.903699
2104.14	0.0481911
2104.39	1.0004
2104.63	-0.89664
2104.87	1.00582
2105.11	0.0595827
2105.36	2.91417
2105.6	0.0650492
2105.84	1.01751
2106.09	1.96935
2106.33	1.01949
2106.57	0.070426
2106.82	0.0716267
2107.06	1.97174
2107.3	-0.88291
2107.54	0.063899
2107.79	2.90978
2108.03	0.0556335
2108.27	-1.84701
2108.52	-0.89869
2108.76	1.95032
2109	0.0549364
2109.25	-0.89057
2109.49	1.00985
2109.73	1.01016
2109.97	-1.83952
2110.22	-0.88932
2110.46	1.96095
2110.7	1.01114
2110.95	-0.889351
2111.19	-0.890978
2111.43	1.00696
2111.68	-0.893047
2111.92	-0.893022
2112.16	-0.891505
2112.4	0.0603342
2112.65	1.96227
2112.89	0.0662432
2113.13	0.0702324
2113.38	2.92379
2113.62	1.0227
2113.86	1.9718
2114.1	-0.879433
2114.35	-1.8289
2114.59	1.02317
2114.83	-0.877884
2115.07	-0.878765
2115.32	-0.879577
2115.56	-1.83056
2115.8	1.01729
2116.04	1.01432
2116.29	1.01286
2116.53	1.01236
2116.77	0.0624685
2117.02	1.01291
2117.26	-1.83649
2117.5	2.90886
2117.74	1.0077
2117.99	1.00402
2118.23	1.9483
2118.47	-0.901069
2118.71	0.992857
2118.96	-1.85455
2119.2	-0.90904
2119.44	2.87962
2119.68	-0.913119
2119.93	-1.86118
2120.17	0.0346451
2120.41	1.93281
2120.65	2.88304
2120.9	0.0433512
2121.14	0.995965
2121.38	1.94875
2121.62	0.0557232
2121.86	0.0592747
2122.11	0.0623474
2122.35	1.01422
2122.59	0.067544
2122.84	-1.82916
2123.08	1.96965
2123.32	0.0704556
2123.56	-0.87987
2123.81	-0.881652
2124.05	-2.78237
2124.29	0.0588217
2124.53	3.84408
2124.77	0.992916
2125.02	-1.85423
2125.26	2.87694
2125.5	-0.914742
2125.74	0.0283184
2125.98	0.0255709
2126.23	-1.86919
2126.47	0.965982
2126.71	0.962784
2126.95	1.90736
2127.2	3.79801
2127.44	1.90687
2127.68	0.960263
2127.92	0.959629
2128.16	3.7961
2128.41	0.961189
2128.65	0.0161276
2128.89	1.9059
2129.13	1.9053
2129.38	-0.929982
2129.62	-0.929973
2129.86	0.0148449
2130.1	1.90422
2130.34	0.0136499
2130.58	-0.932171
2130.83	2.84467
2131.07	0.95367
2131.31	2.84051
2131.55	0.00675869
2131.79	2.83821
2132.04	-0.94012
2132.28	0.945109
2132.52	-0.943166
2132.76	0.000790596
2133	0.945817
2133.25	1.891
2133.49	2.83578
2133.73	0.949682
2133.97	-1.88001
2134.21	0.951717
2134.46	0.952039
2134.7	-0.93502
2134.94	-0.934854
2135.18	0.00821209
2135.42	0.00653458
2135.67	0.946134
2135.91	0.941646
2136.15	1.88229
2136.39	-0.94479
2136.63	-0.000213623
2136.87	-1.88473
2137.12	0.00314999
2137.36	0.00717735
2137.6	-0.934948
2137.84	1.89028
2138.08	4.71482
2138.32	1.88971
2138.57	-0.932536
2138.81	1.90181
2139.05	-0.932013
2139.29	0.94677
2139.53	2.82933
2139.77	0.943061
2140.02	2.82587
2140.26	-0.0010519
2140.5	-0.943291
2140.74	-0.00171089
2140.98	-0.000847816
2141.22	1.88102
2141.46	-0.00501919
2141.71	-0.947123
2141.95	-0.00499725
2142.19	1.88138
2142.43	0.943808
2142.67	0.0139875
2142.91	1.89727
2143.15	-0.019949
2143.4	0.911817
2143.64	-0.0226774
2143.88	2.80346
2144.12	0.930141
2144.36	-0.946404
2144.6	-1.89209
2144.85	2.80915
2145.09	0.930996
2145.33	0.931343
2145.57	1.87121
2145.81	0.930665
2146.05	0.93035
2146.29	1.87
2146.53	-0.95017
2146.78	-0.011364
2147.02	1.86674
2147.26	-0.013341
2147.5	-0.0139456
2147.74	1.86387
2147.98	-0.0154123
2148.22	0.922701
2148.46	1.86018
2148.7	-0.0195827
2148.95	-0.0220947
2149.19	-0.965322
2149.43	0.907805
2149.67	2.77968
2149.91	2.77681
2150.15	1.83846
2150.39	-0.0355663
2150.63	-0.0333719
2150.88	0.907847
2151.12	-0.964478
2151.36	1.85229
2151.6	0.916792
2151.84	3.73473
2152.08	1.85755
2152.32	-0.956868
2152.56	0.916742
2152.8	0.914921
2153.05	-0.0226641
2153.29	-1.89721
2153.53	0.913068
2153.77	-0.0264196
2154.01	-0.0303402
2154.25	1.83638
2154.49	-0.976465
2154.73	3.69444
2154.97	-0.985772
2155.21	1.81521
2155.45	-0.0572109
2155.7	0.875121
2155.94	-0.0597897
2156.18	2.74318
2156.42	-1.92679
2156.66	1.81089
2156.9	-0.989342
2157.14	0.882435
2157.38	-0.0477829
2157.62	-1.91301
2157.86	2.76255
2158.1	-0.0403662
2158.34	-0.974388
2158.59	-0.0397062
2158.83	1.8287
2159.07	-0.0415125
2159.31	0.890934
2159.55	-0.0457544
2159.79	-0.982181
2160.03	-1.91765
2160.27	3.68062
2160.51	-0.986473
2160.75	0.88038
2160.99	0.880266
2161.23	0.879809
2161.47	-0.985453
2161.72	0.881611
2161.95	-0.0499258
2162.2	-0.98168
2162.44	0.884299
2162.68	-0.0493793
2162.92	0.882822
2163.16	3.68001
2163.4	1.81445
2163.64	1.81371
2163.88	-0.984578
2164.12	-0.0554619
2164.36	2.73826
2164.6	-0.0556326
2164.84	-0.984165
2165.08	-1.91443
2165.32	-0.0491734
2165.56	0.884242
2165.8	0.88408
2166.04	1.81521
2166.28	-0.980502
2166.53	0.880782
2166.76	-0.0516882
2167.01	-1.91569
2167.25	2.73546
2167.49	-0.99274
2167.73	0.861707
2167.97	-0.999697
2168.21	-1.92854
2168.45	2.72198
2168.69	0.865997
2168.93	-0.0594187
2169.17	-0.0538197
2169.41	1.81396
2169.65	-0.970784
2169.89	-0.965685
2170.13	0.899879
2170.37	-0.0306711
2170.61	-0.0319958
2170.85	0.898702
2171.09	-0.0363092
2171.33	-1.90516
2171.57	-2.83917
2171.81	1.80668
2172.05	0.875783
2172.29	2.73317
2172.53	0.875586
2172.77	-0.981438
2173.01	1.80699
2173.25	1.80948
2173.49	-0.0454664
2173.73	0.886882
2173.97	-0.969577
2174.21	3.6792
2174.45	-0.0370674
2174.69	-2.82403
2174.93	-0.0353136
2175.17	1.82368
2175.41	0.895263
2175.65	0.895925
2175.89	-1.89123
2176.13	-0.0339632
2176.37	0.895241
2176.61	-0.9612
2176.85	-1.88829
2177.09	-0.028554
2177.33	1.83036
2177.57	0.903728
2177.81	-0.0247889
2178.05	0.901165
2178.29	0.898891
2178.53	-0.0287476
2178.77	0.901997
2179.01	-0.953242
2179.25	-0.0230532
2179.49	1.8354
2179.73	-0.0201941
2179.97	-0.0190563
2180.21	0.909916
2180.45	3.69532
2180.69	-1.8737
2180.93	-0.0163279
2181.17	-1.873
2181.41	2.76706
2181.65	-0.0162029
2181.89	-0.944694
2182.13	-0.944706
2182.37	-0.0164928
2182.61	0.909559
2182.85	0.907695
2183.09	-0.0228958
2183.33	-1.87865
2183.57	-0.025753
2183.81	-0.953353
2184.05	1.82696
2184.28	0.902217
2184.53	-0.947914
2184.76	1.83495
2185	-1.86953
2185.24	-1.8664
2185.48	-0.0086031
2185.72	-1.85858
2185.96	-1.85497
2186.2	-0.921978
2186.44	0.0119009
2186.68	0.946212
2186.92	-1.83292
2187.16	2.81549
2187.4	-0.896646
2187.64	-0.896465
2187.88	-1.82598
2188.12	2.81495
2188.36	-0.900229
2188.6	0.0258589
2188.84	0.0232038
2189.07	-1.83502
2189.31	1.87084
2189.55	0.015954
2189.79	0.0164366
2190.03	2.79944
2190.27	0.020813
2190.51	0.951355
2190.75	-0.901633
2190.99	-2.75374
2191.23	0.0306559
2191.47	-0.893774
2191.71	0.0365009
2191.95	0.0393238
2192.19	0.969815
2192.42	0.0460253
2192.67	1.90639
2192.9	0.0544109
2193.14	0.0592623
2193.38	1.92399
2193.62	-1.78223
2193.86	-0.846446
2194.1	1.01728
2194.34	0.0890417
2194.58	-0.841073
2194.82	1.01799
2195.06	1.01709
2195.3	-0.843019
2195.53	0.0834017
2195.77	-2.706
2196.01	-0.852221
2196.25	1.00156
2196.49	2.85548
2196.73	-0.856781
2196.97	0.0700464
2197.21	1.92612
2197.45	1.00083
2197.69	1.00371
2197.92	2.86452
2198.16	1.0146
2198.4	0.092453
2198.64	-0.829446
2198.88	1.03449
2199.12	1.04118
2199.36	2.90739
2199.6	-0.802949
2199.84	3.85898
2200.07	0.145852
2200.31	4.81072
2200.55	2.02361
2200.79	1.09754
2201.03	-0.768901
2201.27	-2.64268
2201.51	0.121264
2201.75	1.95249
2201.99	0.10356
2202.23	1.99074
2202.46	2.93969
2202.7	2.00572
2202.94	-1.71565
2203.18	1.0772
2203.42	1.14741
2203.66	2.0578
2203.9	-0.740831
2204.14	-1.66737
2204.37	-0.742454
2204.61	-0.754189
2204.85	0.165878
2205.09	1.08735
2205.33	0.156273
2205.57	-0.772281
2205.8	-0.767568
2206.05	0.166169
2206.28	2.01984
2206.52	-0.766952
2206.76	2.02603
2207	-0.759365
2207.24	1.10544
2207.48	0.180032
2207.71	2.04601
2207.95	0.189442
2208.19	1.12474
2208.43	2.05978
2208.67	1.1319
2208.91	0.203184
2209.15	-0.726447
2209.38	2.99967
2209.62	2.07007
2209.86	-0.720614
2210.1	1.14598
2210.34	2.08176
2210.58	-4.43719
2210.81	3.95413
2211.05	1.16214
2211.29	-0.697878
2211.53	1.17216
2211.77	-2.55506
2212.01	0.246299
2212.24	-0.686107
2212.48	-1.61885
2212.72	1.17896
2212.96	0.245777
2213.2	-0.688549
2213.44	0.245546
2213.67	-1.61527
2213.91	3.05523
2214.15	0.265218
2214.39	-1.59853
2214.63	1.20455
2214.87	2.1406
2215.1	1.20918
2215.34	-0.65632
2215.58	0.278789
2215.82	2.14726
2216.06	0.280863
2216.29	-1.58568
2216.53	1.21571
2216.77	0.283333
2217.01	-3.44928
2217.25	-2.51375
2217.49	-0.645039
2217.72	-0.644032
2217.96	1.22512
2218.2	1.22792
2218.44	-0.63638
2218.68	1.23554
2218.91	-0.628579
2219.15	-1.55981
2219.39	-1.55708
2219.63	-3.42341
2219.87	-1.55302
2220.1	0.316648
2220.34	-0.61716
2220.58	2.1862
2220.82	-1.55337
2221.06	1.2461
2221.29	2.1774
2221.53	3.10887
2221.77	-1.55996
2222.01	1.24103
2222.25	0.309666
2222.48	2.18029
2222.72	1.25034
2222.96	-1.5477
2223.2	1.2591
2223.43	3.13393
2223.67	3.14079
2223.91	-0.592779
2224.15	2.21793
2224.39	-0.583457
2224.62	-2.45055
2224.86	0.361456
2225.1	1.30319
2225.34	1.30828
2225.58	1.31283
2225.81	-3.36668
2226.05	0.384424
2226.29	1.3258
2226.53	0.392909
2226.76	-2.41611
2227	0.39967
2227.24	-0.535825
2227.48	0.402885
2227.72	1.34055
2227.95	-2.41015
2228.19	1.34031
2228.43	-0.534604
2228.67	-0.534329
2228.9	-0.533464
2229.14	-0.530393
2229.38	1.35006
2229.62	-0.520977
2229.85	1.35939
2230.09	-0.513442
2230.33	-0.509455
2230.57	-0.505328
2230.8	1.37723
2231.04	0.442924
2231.28	2.32613
2231.52	2.33058
2231.75	1.39511
2231.99	-0.480857
2232.23	-0.477148
2232.47	1.40752
2232.7	1.4115
2232.94	-1.40701
2233.18	2.36051
2233.42	0.481778
2233.65	0.484538
2233.89	4.25005
2234.13	3.30823
2234.37	0.483798
2234.6	1.42297
2234.84	0.477792
2235.08	-0.466007
2235.31	-2.34616
2235.55	2.35723
2235.79	-1.4028
2236.03	0.479854
2236.26	-0.45919
2236.5	2.36424
2236.74	-0.453722
2236.97	-1.39077
2237.21	-1.38504
2237.45	-0.436771
2237.69	0.511875
2237.92	1.45969
2238.16	1.46484
2238.4	-1.35833
2238.64	1.47729
2238.87	-1.35018
2239.11	-1.35041
2239.35	2.42151
2239.58	2.41801
2239.82	0.528249
2240.06	-0.415583
2240.29	2.41813
2240.53	1.48416
2240.77	0.542476
2241.01	0.544174
2241.24	-0.397599
2241.48	1.49151
2241.72	-0.394084
2241.96	2.4399
2242.19	-1.3334
2242.43	0.556062
2242.67	-0.388005
2242.9	1.4989
2243.14	0.553054
2243.38	-0.391436
2243.61	0.552356
2243.85	1.497
2244.09	0.555924
2244.32	1.50491
2244.56	-2.26593
2244.8	-0.370771
2245.03	1.52379
2245.27	-3.19892
2245.51	-0.359383
2245.75	1.53561
2245.98	-0.352685
2246.22	1.54148
2246.46	3.43649
2246.69	-1.29147
2246.93	1.54973
2247.17	1.55112
2247.4	-0.341409
2247.64	1.55119
2247.88	-0.342117
2248.11	-0.342599
2248.35	1.54953
2248.59	-2.23585
2248.82	-0.343654
2249.06	2.49763
2249.3	-1.28517
2249.53	1.55473
2249.77	-0.339457
2250.01	-1.28806
2250.24	1.54751
2250.48	1.54399
2250.72	-0.350184
2250.95	0.593472
2251.19	1.53809
2251.43	3.42975
2251.66	-0.350294
2251.9	1.54363
2252.14	-0.344615
2252.37	-1.28612
2252.61	-2.22555
2252.85	0.621438
2253.08	-1.26834
2253.32	-2.2123
2253.55	1.58163
2253.79	2.53306
2254.03	1.58775
2254.26	-1.25597
2254.5	0.63934
2254.74	-2.2046
2254.97	1.58852
2255.21	1.58916
2255.45	0.641818
2255.68	-1.25249
2255.92	1.59605
2256.16	1.59914
2256.39	0.653099
2256.63	1.60495
2256.87	1.60782
2257.1	1.61055
2257.34	0.663086
2257.57	-0.285397
2257.81	-2.18396
2258.05	-2.18311
2258.28	0.66754
2258.52	1.61965
2258.76	-3.12825
2258.99	-1.22658
2259.23	-2.17569
2259.47	2.57775
2259.7	0.678641
2259.94	0.680215
2260.17	-3.12115
2260.41	-0.266904
2260.64	0.688536
2260.88	0.692175
2261.12	-0.258197
2261.35	-0.257431
2261.59	-1.2079
2261.83	-2.15849
2262.06	-3.10869
2262.3	-0.250383
2262.53	-0.247195
2262.77	2.61398
2263.01	-2.1447
2263.24	1.67208
2263.48	0.724975
2263.71	1.68474
2263.95	1.69051
2264.19	-1.16815
2264.42	1.69938
2264.66	1.70278
2264.89	-1.15983
2265.13	-0.204075
2265.37	-3.06949
2265.6	2.66074
2265.84	-0.208093
2266.07	-0.211858
2266.31	-1.17035
2266.55	1.68929
2266.78	0.731906
2267.02	0.729201
2267.25	-0.22749
2267.49	-0.231009
2267.73	-2.14109
2267.96	-1.18896
2268.2	0.717955
2268.43	-0.234073
2268.67	0.7224
2268.91	1.68025
2269.14	0.730221
2269.38	-0.220109
2269.61	1.69458
2269.85	-1.1663
2270.08	-0.208291
2270.32	-0.206808
2270.56	-0.204101
2270.79	0.754275
2271.03	-2.11263
2271.26	-1.15502
2271.5	0.760218
2271.73	-2.10833
2271.97	-0.195176
2272.2	1.71841
2272.44	-1.15153
2272.68	-0.194405
2272.91	-0.194139
2273.15	2.677
2273.38	0.76341
2273.62	0.763686
2273.85	1.72096
2274.09	-0.193085
2274.33	0.764378
2274.56	1.72205
2274.8	0.765195
2275.03	-4.02151
2275.27	0.764485
2275.5	-0.19166
2275.74	0.76897
2275.97	-1.14377
2276.21	0.775208
2276.45	-0.180676
2276.68	1.73915
2276.92	-1.13306
2277.15	-0.169228
2277.39	-0.164191
2277.62	1.76234
2277.86	-0.156201
2278.09	-1.1161
2278.33	1.76482
2278.56	2.72395
2278.8	3.68263
2279.03	-0.161756
2279.27	1.75014
2279.5	1.74426
2279.74	-1.13902
2279.98	-0.184147
2280.21	0.770889
2280.45	0.76763
2280.68	-3.0693
2280.92	0.762413
2281.15	0.759493
2281.39	-1.15655
2281.62	-1.15657
2281.86	1.72064
2282.09	-0.194817
2282.33	0.766971
2282.56	1.72905
2282.8	1.73272
2283.03	0.778203
2283.27	-1.13604
2283.5	0.790554
2283.74	-0.163826
2283.97	3.68647
2284.21	-0.159737
2284.44	-1.11932
2284.68	1.77003
2284.91	-1.11666
2285.15	-0.154349
2285.38	0.804333
2285.62	-3.05103
2285.85	-0.167286
2286.09	1.75651
2286.32	0.795372
2286.56	-0.160548
2286.79	0.807725
2287.03	1.77242
2287.26	2.73563
2287.5	2.74054
2287.74	-0.151754
2287.97	2.73465
2288.2	-0.158446
2288.44	-0.161963
2288.67	1.75793
2288.91	1.75024
2289.14	2.70583
2289.38	0.773178
2289.61	-0.191697
2289.85	2.68934
2290.08	-0.195715
2290.32	-2.11954
2290.55	2.68843
2290.79	1.72999
2291.02	1.73475
2291.26	2.69994
2291.49	-0.185558
2291.73	-0.184147
2291.96	-0.182608
2292.2	-1.1433
2292.43	0.785356
2292.67	0.787024
2292.9	-0.175359
2293.14	3.68024
2293.37	1.75285
2293.6	1.75046
2293.84	3.67466
2294.07	-2.11069
2294.31	1.73892
2294.54	-1.15449
2294.78	-2.12083
2295.01	-1.16099
2295.25	-0.20147
2295.48	-1.16729
2295.72	1.71666
2295.95	2.66953
2296.19	-0.21938
2296.42	1.70469
2296.65	0.743426
2296.89	0.744982
2297.12	2.67256
2297.36	-0.212806
2297.59	2.68113
2297.83	-1.17002
2298.06	0.757908
2298.3	0.759543
2298.53	-1.16583
2298.77	-2.12837
2299	-0.198318
2299.23	2.69621
2299.47	-3.09342
2299.7	2.69343
2299.94	1.72659
2300.17	-1.16723
2300.41	-0.201151
2300.64	1.7295
2300.87	1.73016
2301.11	-1.16565
2301.34	-1.16665
2301.58	0.762156
2301.81	1.72461
2302.05	0.756576
2302.28	-1.17464
2302.51	0.754045
2302.75	-1.17853
2302.98	1.71497
2303.22	-1.18151
2303.45	-1.18175
2303.69	-0.215453
2303.92	0.751191
2304.15	0.751596
2304.39	0.752283
2304.62	1.71997
2304.86	0.754705
2305.09	3.65246
2305.33	2.6863
2305.56	2.68703
2305.79	2.68816
2306.03	0.754478
2306.26	-0.213079
2306.5	-2.14784
2306.73	1.71655
2306.97	-0.219186
2307.2	-1.18901
2307.43	1.70727
2307.67	1.70448
2307.9	0.735134
2308.13	0.733747
2308.37	-1.19962
2308.6	0.733637
2308.84	1.70136
2309.07	-1.19626
2309.3	-0.22607
2309.54	-0.223936
2309.77	1.71101
2310.01	1.71018
2310.24	0.741063
2310.47	-0.229202
2310.71	0.733392
2310.94	-0.24268
2311.18	1.67694
2311.41	0.703894
2311.64	0.697887
2311.88	-0.270955
2312.11	2.62005
2312.34	0.68625
2312.58	-1.24545
2312.81	3.57941
2313.05	1.65262
2313.28	0.692566
2313.51	0.696
2313.75	-0.266947
2313.98	-1.23021
2314.21	-1.22663
2314.45	1.67911
2314.68	0.71334
2314.92	-2.19289
2315.15	-0.263894
2315.39	-2.20194
2315.62	0.69298
2315.85	0.683569
2316.09	0.676676
2316.32	2.60415
2316.55	0.670941
2316.79	-1.2609
2317.02	0.669956
2317.25	-0.293577
2317.49	1.64044
2317.72	0.668882
2317.95	0.664031
2318.19	0.660764
2318.42	1.62236
2318.66	-0.312243
2318.89	-1.2809
2319.12	0.646182
2319.35	-0.321259
2319.59	0.642275
2319.82	0.641467
2320.06	-0.324736
2320.29	2.57028
2320.52	1.60653
2320.76	-1.28791
2320.99	-1.28652
2321.22	0.646785
2321.46	1.61603
2321.69	1.62016
2321.92	2.59023
2322.16	3.55811
2322.39	1.62307
2322.62	2.5891
2322.86	0.655717
2323.09	0.655607
2323.32	3.55644
2323.56	0.655116
2323.79	1.62051
2324.02	2.58553
2324.26	2.58072
2324.49	3.54056
2324.72	1.6007
2324.96	2.56113
2325.19	4.48788
2325.42	8.34485
2325.66	6.40845
2325.89	6.4028
2326.12	13.1511
2326.36	9.28539
2326.59	16.9947
2326.82	25.6647
2327.06	33.3698
2327.29	48.784
2327.52	69.0153
2327.76	86.3658
2327.99	81.5481
2328.22	61.3079
2328.46	39.129
2328.69	21.7735
2328.92	16.9469
2329.15	13.0893
2329.39	10.1979
2329.62	9.23657
2329.85	6.34552
2330.09	6.34288
2330.32	6.34026
2330.55	0.560572
2330.78	0.560783
2331.02	-0.40084
2331.25	-0.398957
2331.48	2.49472
2331.72	-1.36287
2331.95	3.44934
2332.18	2.48298
2332.42	0.554115
2332.65	-1.37413
2332.88	-2.33909
2333.12	2.47185
2333.35	-0.417758
2333.58	0.542243
2333.81	-0.422996
2334.05	-1.38903
2334.28	-1.39181
2334.51	0.529782
2334.74	-0.4329
2334.98	-1.39556
2335.21	2.45109
2335.44	-0.433048
2335.68	-0.433473
2335.91	-1.39673
2336.14	-0.436358
2336.37	-2.3602
2336.61	0.523616
2336.84	0.522774
2337.07	2.44483
2337.3	0.520777
2337.54	-1.40292
2337.77	-2.3648
2338	1.47933
2338.24	1.47886
2338.47	-2.36528
2338.7	-1.40356
2338.93	0.519031
2339.17	-1.40359
2339.4	1.47897
2339.63	-0.444793
2339.86	1.47475
2340.1	-2.37063
2340.33	1.46889
2340.56	2.42489
2340.79	-1.4201
2341.03	1.45383
2341.26	0.48988
2341.49	0.487244
2341.72	0.4851
2341.96	0.483191
2342.19	-0.476768
2342.42	-1.43577
2342.65	-0.476865
2342.89	0.482542
2343.12	0.482693
2343.35	2.39984
2343.58	1.44221
2343.82	-2.39036
2344.05	2.40434
2344.28	-0.471006
2344.51	-0.470972
2344.75	1.44551
2344.98	-2.38948
2345.21	-1.43354
2345.44	-0.4773
2345.68	-1.4367
2345.91	1.43618
2346.14	-0.478765
2346.37	0.47929
2346.6	-0.478218
2346.84	0.479319
2347.07	0.480221
2347.3	1.43933
2347.53	1.44176
2347.77	-0.470037
2348	1.44819
2348.23	1.44991
2348.46	2.40778
2348.69	1.44918
2348.93	-1.42692
2349.16	-1.43121
2349.39	-0.480084
2349.62	2.37999
2349.85	1.41432
2350.09	1.39573
2350.32	-0.539809
2350.55	-4.33447
2350.78	-0.472859
2351.02	0.508035
2351.25	1.4403
2351.48	-0.48893
2351.71	-1.44212
2351.94	1.42587
2352.18	1.41982
2352.41	-2.40554
2352.64	1.3974
2352.87	-0.503503
2353.1	0.451469
2353.34	2.35609
2353.57	-0.49893
2353.8	2.3607
2354.03	1.4143
2354.26	-3.34256
2354.5	-0.48134
2354.73	-1.43213
2354.96	0.475116
2355.19	0.476692
2355.42	-0.474538
2355.66	-0.473774
2355.89	-1.42699
2356.12	1.42463
2356.35	0.469776
2356.58	2.37203
2356.81	-2.38227
2357.05	0.471407
2357.28	-0.478061
2357.51	-0.476506
2357.74	0.47567
2357.97	1.42908
2358.21	0.478808
2358.44	-0.469048
2358.67	0.483712
2358.9	-1.41293
2359.13	0.489153
2359.36	-0.458992
2359.6	1.44093
2359.83	-2.35566
2360.06	1.4417
2360.29	-0.455378
2360.52	-1.40302
2360.75	-2.35025
2360.99	2.3917
2361.22	0.496133
2361.45	1.44441
2361.68	0.497119
2361.91	0.497666
2362.14	0.498968
2362.38	2.39414
2362.61	-1.39018
2362.84	1.4519
2363.07	0.508784
2363.3	-1.38003
2363.53	1.46191
2363.77	-1.37287
2364	-0.423613
2364.23	-0.420493
2364.46	-3.25278
2364.69	-1.35872
2364.92	0.535278
