#Acq. time (s)=	20
#Accumulations=	3
#Range (cm-¹)=	100...4000
#Windows=	1
#Auto scanning=	Off
#Autofocus=	Off
#Macrospot=	Off
#AutoExposure=	Off
#Spike filter=	Multiple accum.
#Delay time (s)=	0
#Binning=	1
#Readout mode=	Signal
#DeNoise=	Lite
#ICS correction=	On
#Dark correction=	Off
#Inst. Process=	Off
#Detector temperature (°C)=	-60.09
#Instrument=	LabRAM HR Evol
#Detector=	SIN-EM FIVIS
#Objective=	x100_VIS
#Grating=	150 (500nm)
#ND Filter=	100%
#Laser=	633nm_Edge
#Hole=	30.0125
#Temperature=	0
#Range=	Visible
#StageXY=	75x50mm Scan+
#StageZ=	Z motor
#X (µm)=	8694.4
#Y (µm)=	4538.1
#Z (µm)=	1850.8
#Full time(mm:ss)=	1:02
#Project=	Buranga
#Sample=	BU18FA20_C
#Site=	C_Bertoss2
#Title=	20-C_brt2_FI04
#Remark=	
#Date=	30.07.2019 15:34
#Acquired=	30.07.2019 15:34:25
#Data Range:Extract=	16.12.2021 15:36:30
#Base:Fit=	16.12.2021 15:36:40
#Base:Edit=	16.12.2021 15:39:41
#Base:Edit=	16.12.2021 15:39:42
#Base:Edit=	16.12.2021 15:39:42
#Base:Edit=	16.12.2021 15:39:43
#Base:Edit=	16.12.2021 15:39:44
#Base:Edit=	16.12.2021 15:39:44
#Base:Edit=	16.12.2021 15:39:44
#Base:Edit=	16.12.2021 15:39:45
#Base:Edit=	16.12.2021 15:39:45
#Base:Edit=	16.12.2021 15:39:46
#Base:Edit=	16.12.2021 15:39:49
#Base:Edit=	16.12.2021 15:39:50
#Base:Sub=	16.12.2021 15:39:52
100.38	187.701
103.641	158.498
106.898	145.698
110.156	129.901
113.411	114.402
116.666	100.61
119.918	88.2595
123.17	72.6918
126.419	64.9398
129.669	58.7009
132.916	53.849
136.163	49.4846
139.407	45.0166
142.651	40.9891
145.892	36.642
149.134	32.2611
152.372	27.4168
155.611	23.2484
158.847	20.3563
162.083	17.9761
165.316	16.0403
168.548	14.1844
171.781	12.6058
175.01	11.3959
178.239	9.69819
181.466	7.87007
184.693	6.47708
187.917	5.68173
191.139	5.2452
194.362	4.57285
197.582	3.97556
200.802	3.40209
204.02	2.72814
207.236	2.16055
210.452	1.30358
213.665	1.0899
216.877	0.505043
220.089	-0.147972
223.299	0.499123
226.508	-0.512459
229.715	1.01096
232.92	5.47112
236.126	10.7306
239.329	18.4125
242.53	18.6128
245.732	17.3818
248.931	11.7067
252.128	9.07413
255.326	6.98701
258.521	5.53401
261.714	4.80774
264.906	4.83043
268.099	5.51449
271.288	6.664
274.477	7.62558
277.665	12.1816
280.851	13.2282
284.035	26.1719
287.218	28.7478
290.402	26.8981
293.582	22.2377
296.761	16.4797
299.939	11.1716
303.117	6.56249
306.293	2.67094
309.466	1.35918
312.639	1.60484
315.811	3.5215
318.982	6.59569
322.151	9.31405
325.318	16.3844
328.484	24.5898
331.651	26.45
334.814	27.0473
337.977	20.507
341.138	12.7586
344.297	8.24591
347.456	5.31007
350.614	3.7182
353.77	3.75518
356.925	3.80671
360.078	4.97188
363.23	7.26486
366.381	8.9781
369.53	10.2447
372.68	9.7617
375.827	8.82124
378.972	7.16002
382.116	5.10892
385.259	2.7584
388.401	0.540588
391.541	-0.857761
394.681	-3.06247
397.818	-2.16179
400.956	-0.262688
404.092	1.30609
407.226	3.08886
410.359	2.32945
413.49	1.51779
416.62	1.4747
419.749	2.71088
422.877	4.93607
426.003	7.89304
429.128	11.494
432.252	15.7523
435.375	19.677
438.496	23.3027
441.616	25.0145
444.735	25.1661
447.852	23.1084
450.969	20.7268
454.084	18.4272
457.197	16.1614
460.31	14.0914
463.421	12.3129
466.531	11.5124
469.64	10.0529
472.747	8.62654
475.853	6.81864
478.958	3.64177
482.062	3.24002
485.164	2.56566
488.265	2.34449
491.365	2.5215
494.464	3.16483
497.561	4.11738
500.657	5.32872
503.752	6.66159
506.844	7.74285
509.937	8.53249
513.028	9.03967
516.117	8.5599
519.206	7.82166
522.293	6.96156
525.38	6.02522
528.464	5.04791
531.548	4.76943
534.63	4.8019
537.71	5.02204
540.79	5.47871
543.869	6.45583
546.946	7.40828
550.022	7.91357
553.097	7.81896
556.169	7.27757
559.242	6.69652
562.313	6.27477
565.383	6.00888
568.452	5.88117
571.519	5.95205
574.584	6.24675
577.649	6.78032
580.713	7.21872
583.775	7.01981
586.837	6.5141
589.895	7.38632
592.954	9.67875
596.012	12.2104
599.068	18.4896
602.122	22.7385
605.176	25.5178
608.229	26.0604
611.28	24.3764
614.329	22.0118
617.378	20.1012
620.426	18.9605
623.473	18.2119
626.517	18.1369
629.561	18.0954
632.604	17.9508
635.644	17.575
638.684	16.6839
641.724	15.9059
644.76	15.601
647.797	15.763
650.833	16.8941
653.867	18.4539
656.899	20.3985
659.931	21.7568
662.96	21.9412
665.99	20.8716
669.018	18.8969
672.044	16.0965
675.07	12.7044
678.095	8.95837
681.117	5.94398
684.139	4.47483
687.16	4.16018
690.179	4.2946
693.197	3.94651
696.213	2.07064
699.23	1.49989
702.245	1.96123
705.257	3.79311
708.27	4.26929
711.28	3.96093
714.29	3.549
717.298	3.20543
720.306	2.99745
723.312	2.82931
726.316	2.66374
729.321	2.7056
732.322	2.70747
735.324	2.44091
738.323	2.12925
741.323	1.50405
744.32	0.757664
747.317	0.402313
750.311	-0.34454
753.306	-0.397762
756.298	0.0398064
759.291	0.862343
762.28	1.3461
765.27	2.24387
768.258	2.81514
771.245	2.9982
774.23	2.85802
777.215	2.40639
780.198	2.12654
783.179	1.9865
786.161	2.35408
789.14	3.05087
792.119	3.13972
795.096	3.02865
798.073	1.98218
801.047	0.585384
804.021	-0.187725
806.994	-0.651497
809.965	-0.952095
812.936	-0.73
815.904	-0.0951157
818.871	0.901466
821.839	1.77393
824.804	2.5546
827.769	2.7163
830.732	2.44394
833.693	2.18909
836.655	1.91219
839.614	1.62525
842.572	1.2742
845.53	0.752064
848.485	0.38731
851.44	0.232227
854.394	0.0642166
857.346	0.0508881
860.297	0.0817375
863.248	0.178082
866.197	0.151897
869.144	0.0462189
872.091	-0.0739365
875.037	0.169193
877.981	1.30685
880.924	2.51949
883.867	2.93353
886.807	3.02268
889.746	1.49415
892.685	0.576004
895.623	-0.110706
898.559	-0.166386
901.493	0.212315
904.427	0.581963
907.359	1.0426
910.292	1.47458
913.222	1.89606
916.151	2.35594
919.078	2.7924
922.006	3.3553
924.932	3.97161
927.856	4.51261
930.779	4.35912
933.701	3.5597
936.622	4.17518
939.543	4.95581
942.461	5.98313
945.379	7.33447
948.295	9.03814
951.21	10.9642
954.124	12.743
957.037	14.246
959.95	15.6091
962.861	17.4106
965.77	18.4924
968.678	19.9202
971.585	21.9868
974.491	24.6887
977.396	27.2063
980.3	32.8676
983.202	40.0217
986.104	47.6978
989.005	55.2974
991.904	64.5008
994.802	65.9151
997.699	63.3711
1000.6	56.2987
1003.49	49.6106
1006.38	44.5386
1009.28	40.9559
1012.17	39.0818
1015.06	38.9957
1017.95	40.3565
1020.83	43.3824
1023.72	48.3879
1026.61	51.6909
1029.49	50.9385
1032.37	47.0139
1035.26	40.3215
1038.14	32.8381
1041.02	25.8958
1043.9	20.7473
1046.77	16.0596
1049.65	13.3966
1052.53	11.4481
1055.4	10.5073
1058.27	9.95181
1061.15	9.62748
1064.02	9.47423
1066.88	9.43941
1069.75	9.61135
1072.62	9.92046
1075.49	10.4179
1078.35	11.1041
1081.22	11.9673
1084.08	13.0545
1086.94	14.3454
1089.8	15.887
1092.66	17.5712
1095.52	18.8082
1098.38	20.0368
1101.23	20.5578
1104.09	20.845
1106.94	18.4121
1109.8	14.657
1112.65	11.0722
1115.5	7.95819
1118.35	5.77676
1121.2	3.97309
1124.05	2.98096
1126.89	2.42378
1129.74	2.22648
1132.58	2.8572
1135.42	4.53677
1138.27	6.00222
1141.11	7.6629
1143.95	9.82641
1146.78	11.6476
1149.62	12.9624
1152.46	13.7099
1155.29	13.7934
1158.13	12.8886
1160.96	10.9016
1163.79	8.57959
1166.62	6.74616
1169.45	5.41803
1172.28	4.12694
1175.11	2.85777
1177.93	3.85955
1180.76	4.96815
1183.59	5.99714
1186.41	6.06998
1189.23	5.72141
1192.05	4.2779
1194.87	3.41196
1197.69	2.79047
1200.51	2.80565
1203.32	2.74257
1206.14	2.59444
1208.95	2.33058
1211.77	2.08921
1214.58	1.98373
1217.39	1.40154
1220.2	1.12164
1223.01	0.857067
1225.82	0.569851
1228.62	0.467064
1231.43	0.829521
1234.23	1.47643
1237.04	1.92109
1239.84	2.4322
1242.64	3.18632
1245.44	3.58785
1248.24	5.07705
1251.04	6.36791
1253.83	7.62693
1256.63	8.79869
1259.42	9.86401
1262.22	10.6939
1265.01	6.57676
1267.8	5.8376
1270.59	3.84766
1273.38	8.99081
1276.17	18.6118
1278.96	53.9934
1281.74	121.199
1284.53	86.9835
1287.31	19.2784
1290.1	9.7078
1292.88	7.23067
1295.66	4.73207
1298.44	4.08121
1301.22	3.79385
1303.99	3.70258
1306.77	3.86685
1309.55	4.08399
1312.32	4.51945
1315.09	4.31963
1317.87	3.92688
1320.64	3.67453
1323.41	3.55277
1326.18	3.74503
1328.94	4.15793
1331.71	4.80173
1334.48	4.85391
1337.24	4.25366
1340	3.64632
1342.77	2.66285
1345.53	1.37561
1348.29	3.37222
1351.05	4.47218
1353.81	5.23886
1356.56	5.84742
1359.32	6.35388
1362.08	6.75406
1364.83	7.17176
1367.58	7.60028
1370.33	8.68951
1373.09	8.91079
1375.84	10.4048
1378.58	15.966
1381.33	34.203
1384.08	140.305
1386.82	232.355
1389.57	105.133
1392.31	22.5164
1395.06	13.5169
1397.8	9.84563
1400.54	9.61867
1403.28	11.4849
1406.02	11.5762
1408.75	9.55769
1411.49	7.03995
1414.22	5.11746
1416.96	3.6429
1419.69	2.67636
1422.42	2.05125
1425.15	1.86049
1427.88	2.0069
1430.61	2.60052
1433.34	3.00246
1436.07	2.784
1438.79	1.16273
1441.52	0.936031
1444.24	2.16983
1446.96	3.59125
1449.69	3.72791
1452.41	4.16364
1455.13	3.38471
1457.84	2.8877
1460.56	2.3222
1463.28	1.73407
1465.99	1.43926
1468.71	1.52679
1471.42	1.95353
1474.13	2.68518
1476.84	3.63034
1479.55	4.1537
1482.26	4.27853
1484.97	4.4238
1487.68	4.08119
1490.39	3.29305
1493.09	2.16921
1495.79	1.5267
1498.5	1.31856
1501.2	1.4841
1503.9	1.56381
1506.6	1.87727
1509.3	1.71085
1512	1.36779
1514.69	1.4576
1517.39	1.94174
1520.08	1.13078
1522.78	-0.259476
1525.47	-2.40141
1528.16	-1.92757
1530.85	-1.22106
1533.54	-0.496555
1536.23	0.200684
1538.92	0.775475
1541.61	1.25595
1544.29	1.67913
1546.98	2.08144
1549.66	2.43117
1552.34	2.78466
1555.02	3.09509
1557.7	2.56058
1560.38	0.627205
1563.06	-0.683578
1565.74	-0.244774
1568.42	1.5141
1571.09	3.55054
1573.77	4.42559
1576.44	4.27503
1579.11	3.8612
1581.78	3.55578
1584.45	3.10355
1587.12	2.50177
1589.79	2.04678
1592.46	1.75039
1595.12	1.66974
1597.79	1.76449
1600.45	2.00873
1603.12	2.39776
1605.78	2.9315
1608.44	3.52021
1611.1	3.61726
1613.76	3.37437
1616.42	2.96413
1619.08	2.56741
1621.73	2.22186
1624.39	1.99893
1627.04	2.01043
1629.7	2.46233
1632.35	3.50305
1635	3.86901
1637.65	2.58903
1640.3	0.552834
1642.95	-0.0664444
1645.59	-0.0198059
1648.24	1.05116
1650.88	2.78085
1653.53	4.06853
1656.17	4.77001
1658.82	5.19485
1661.46	5.14468
1664.1	3.78872
1666.74	2.42851
1669.37	1.46584
1672.01	0.908638
1674.65	0.788834
1677.28	1.0858
1679.92	2.0192
1682.55	3.28188
1685.18	4.7323
1687.82	6.28494
1690.44	6.36078
1693.07	5.38721
1695.7	3.95232
1698.33	2.45715
1700.96	1.31491
1703.58	0.58831
1706.21	0.163521
1708.83	0.155281
1711.45	0.459129
1714.07	1.09207
1716.69	2.11595
1719.31	3.11852
1721.93	2.41178
1724.55	1.7289
1727.17	1.72779
1729.78	2.32933
1732.4	2.94064
1735.01	2.1376
1737.62	2.35456
1740.23	3.08036
1742.85	3.86599
1745.46	5.19563
1748.07	6.30412
1750.67	6.88892
1753.28	6.68293
1755.89	6.23293
1758.49	5.63033
1761.09	4.45285
1763.7	2.76443
1766.3	0.748917
1768.9	-1.01438
1771.5	-0.151634
1774.1	0.807396
1776.7	1.62377
1779.29	2.45897
1781.89	3.33546
1784.49	3.77013
1787.08	3.51112
1789.67	3.28941
1792.27	3.0567
1794.86	3.00075
1797.45	2.56881
1800.04	2.44612
1802.62	3.33873
1805.21	4.26125
1807.8	4.21335
1810.38	4.58131
1812.97	5.26221
1815.55	5.17322
1818.14	4.93879
1820.72	3.95934
1823.3	1.98058
1825.88	0.409828
1828.46	-0.636871
1831.03	0.138084
1833.61	1.14743
1836.19	2.08691
1838.76	2.91537
1841.34	3.21221
1843.91	3.18063
1846.48	3.06886
1849.05	2.72933
1851.62	1.84553
1854.19	1.57436
1856.76	1.53
1859.33	1.86485
1861.89	2.25683
1864.46	2.81157
1867.02	2.56115
1869.59	2.19553
1872.15	1.61219
1874.71	1.09031
1877.27	1.94302
1879.83	2.69891
1882.39	1.84103
1884.95	0.575508
1887.51	-0.0800934
1890.06	0.184944
1892.62	0.942879
1895.17	1.52871
1897.72	2.73443
1900.27	3.70843
1902.83	4.40078
1905.38	4.58781
1907.93	4.37901
1910.47	3.40239
1913.02	1.625
1915.57	1.9716
1918.11	1.52402
1920.66	2.67583
1923.2	3.80108
1925.74	4.49873
1928.29	3.83762
1930.83	3.17233
1933.37	2.55373
1935.91	1.85207
1938.44	1.48589
1940.98	2.07851
1943.52	2.8974
1946.05	4.26971
1948.59	5.91344
1951.12	5.89951
1953.65	5.9719
1956.18	6.06472
1958.72	5.76563
1961.25	5.31729
1963.77	4.90968
1966.3	4.50708
1968.83	4.02493
1971.35	3.60574
1973.88	2.95276
1976.4	2.28793
1978.93	1.86794
1981.45	1.73985
1983.97	1.83321
1986.49	2.62469
1989.01	3.11158
1991.53	2.96912
1994.05	3.26948
1996.56	3.83801
1999.08	4.39507
2001.59	4.58694
2004.11	4.17385
2006.62	3.78127
2009.13	3.90347
2011.64	4.27093
2014.15	4.55907
2016.66	4.68117
2019.17	5.14394
2021.68	5.07101
2024.18	4.71125
2026.69	4.12827
2029.19	3.36078
2031.7	2.22044
2034.2	1.91831
2036.7	2.07081
2039.2	2.6934
2041.7	3.53594
2044.2	4.63479
2046.7	5.33866
2049.2	5.34518
2051.7	4.22216
2054.19	3.3538
2056.69	2.77123
2059.18	3.11423
2061.67	3.59399
2064.16	3.30276
2066.65	2.948
2069.15	0.350281
2071.63	0.706802
2074.12	3.03127
2076.61	4.48912
2079.1	5.57371
2081.58	6.37863
2084.07	6.61253
2086.55	5.91931
2089.03	4.9143
2091.51	3.921
2094	3.33295
2096.47	2.89196
2098.95	2.82462
2101.43	2.13599
2103.91	1.5533
2106.39	1.08602
2108.86	1.02661
2111.34	1.24452
2113.81	1.85855
2116.28	2.6881
2118.76	2.67054
2121.23	3.04448
2123.7	3.36001
2126.17	3.7918
2128.63	3.97088
2131.1	4.53229
2133.57	4.5878
2136.03	4.39825
2138.5	3.91512
2140.96	3.58383
2143.43	3.10544
2145.89	2.78172
2148.35	3.27115
2150.81	3.77241
2153.27	4.29996
2155.73	4.9534
2158.18	6.23851
2160.64	6.41014
2163.1	5.3326
2165.55	4.24239
2168	2.51597
2170.46	1.18764
2172.91	1.36688
2175.36	2.21063
2177.81	3.28954
2180.26	3.44183
2182.71	3.78416
2185.16	4.6068
2187.6	5.32011
2190.05	6.05611
2192.5	5.38
2194.94	4.18886
2197.38	3.23751
2199.83	2.53942
2202.27	2.217
2204.71	2.30405
2207.15	2.68987
2209.59	3.10315
2212.02	3.06872
2214.46	3.73007
2216.9	3.41235
2219.33	3.42154
2221.77	3.18071
2224.2	3.02074
2226.64	3.1039
2229.07	3.50674
2231.5	4.16875
2233.93	4.54372
2236.36	3.95319
2238.79	4.11174
2241.21	4.76601
2243.64	3.39315
2246.06	1.25633
2248.49	-0.424828
2250.91	-1.93099
2253.34	-3.29225
2255.76	-3.95737
2258.18	-3.24904
2260.6	-2.51153
2263.02	-0.995392
2265.44	0.494659
2267.86	1.84853
2270.27	3.10314
2272.69	3.56047
2275.11	4.14744
2277.52	4.82586
2279.93	5.53653
2282.35	6.60371
2284.76	7.05991
2287.17	7.47929
2289.58	7.61724
2291.99	5.76987
2294.4	5.92989
2296.8	6.6718
2299.21	6.48205
2301.62	6.53047
2304.02	6.91955
2306.43	7.33992
2308.83	7.73893
2311.23	6.55362
2313.63	5.07922
2316.03	5.02821
2318.43	4.5599
2320.83	4.58413
2323.23	4.9751
2325.63	5.66047
2328.02	6.71063
2330.42	7.6461
2332.81	8.06471
2335.21	7.68127
2337.6	8.68607
2339.99	8.65987
2342.38	7.07323
2344.77	5.76784
2347.16	4.77087
2349.55	4.04536
2351.94	3.86317
2354.32	4.05319
2356.71	5.40318
2359.1	6.88713
2361.48	7.96004
2363.86	7.96797
2366.25	6.89558
2368.63	5.53062
2371.01	5.09741
2373.39	4.8186
2375.77	4.52453
2378.15	4.51686
2380.52	5.18444
2382.9	5.4712
2385.28	4.89391
2387.65	7.48527
2390.03	7.56702
2392.4	6.38853
2394.77	5.47262
2397.14	5.22307
2399.51	5.06752
2401.88	5.42328
2404.25	4.37904
2406.62	4.04935
2408.99	4.24006
2411.35	4.94683
2413.72	6.14265
2416.08	5.6958
2418.45	4.6789
2420.81	3.0098
2423.17	0.844025
2425.53	1.28016
2427.89	2.81557
2430.25	4.4552
2432.61	6.22277
2434.97	6.80885
2437.33	5.48624
2439.69	3.95112
2442.04	2.79517
2444.4	2.87276
2446.75	3.40623
2449.1	4.17619
2451.45	4.89271
2453.81	5.02995
2456.16	4.29205
2458.51	4.64939
2460.85	5.89881
2463.2	5.94233
2465.55	5.87716
2467.9	5.61091
2470.24	4.79702
2472.59	4.01044
2474.93	2.94572
2477.27	2.56788
2479.62	2.9802
2481.96	3.69585
2484.3	4.51307
2486.64	5.13221
2488.98	5.69658
2491.31	5.99689
2493.65	6.49004
2495.99	6.98967
2498.32	7.4967
2500.66	7.53481
2502.99	8.59188
2505.32	8.20614
2507.66	7.43009
2509.99	6.80194
2512.32	6.4357
2514.65	5.47649
2516.98	5.59057
2519.31	4.17064
2521.63	3.99676
2523.96	5.31422
2526.28	6.9674
2528.61	7.70638
2530.93	8.47607
2533.26	8.71462
2535.58	8.32028
2537.9	7.25755
2540.22	4.7949
2542.54	2.76836
2544.86	2.242
2547.18	2.60586
2549.5	5.323
2551.81	6.72237
2554.13	6.66693
2556.44	6.54741
2558.76	6.47524
2561.07	6.33485
2563.38	5.72756
2565.69	4.86761
2568.01	4.35995
2570.32	4.11036
2572.62	4.10748
2574.93	4.33894
2577.24	3.78516
2579.55	4.29066
2581.85	5.17857
2584.16	6.74262
2586.46	8.43201
2588.77	9.02391
2591.07	8.36455
2593.37	7.04138
2595.67	4.68196
2597.97	2.49764
2600.27	2.45855
2602.57	2.06244
2604.87	1.99214
2607.17	1.87872
2609.46	1.64507
2611.76	1.36941
2614.05	2.60939
2616.35	4.6113
2618.64	6.33253
2620.93	7.74489
2623.22	8.74317
2625.51	9.2513
2627.8	9.37418
2630.09	8.57127
2632.38	6.94964
2634.67	5.43661
2636.96	4.28046
2639.24	3.49586
2641.53	3.30988
2643.81	3.57506
2646.09	4.14368
2648.38	4.94981
2650.66	4.95692
2652.94	4.64112
2655.22	4.38667
2657.5	2.30633
2659.78	2.68514
2662.06	2.52738
2664.33	2.79416
2666.61	3.30531
2668.88	3.40959
2671.16	3.12492
2673.43	2.56207
2675.71	2.61394
2677.98	3.47137
2680.25	4.02766
2682.52	3.77038
2684.79	3.08115
2687.06	2.68782
2689.33	2.61002
2691.6	3.05023
2693.86	3.77034
2696.13	4.63357
2698.39	5.09416
2700.66	5.33285
2702.92	5.14851
2705.18	4.58035
2707.45	5.03294
2709.71	4.78146
2711.97	3.72228
2714.23	3.3624
2716.49	2.63056
2718.74	1.82889
2721	1.17037
2723.26	1.13742
2725.51	0.896797
2727.77	2.01912
2730.02	2.97632
2732.28	5.58112
2734.53	7.34308
2736.78	6.47998
2739.03	5.00596
2741.28	3.81161
2743.53	3.10279
2745.78	3.02071
2748.03	3.84333
2750.27	1.35816
2752.52	0.492737
2754.77	0.331779
2757.01	0.923904
2759.26	2.20939
2761.5	3.48376
2763.74	4.64754
2765.98	4.95946
2768.22	5.00704
2770.46	4.77804
2772.7	3.96773
2774.94	3.094
2777.18	1.8477
2779.42	1.31623
2781.65	1.25443
2783.89	1.09348
2786.12	2.96613
2788.36	4.99757
2790.59	5.92622
2792.82	6.40364
2795.05	6.46433
2797.28	6.06165
2799.51	5.59779
2801.74	5.03418
2803.97	4.44678
2806.2	3.90111
2808.43	3.6422
2810.65	3.64923
2812.88	4.80595
2815.1	6.02456
2817.33	6.96501
2819.55	7.33981
2821.77	7.07233
2823.99	6.16187
2826.21	4.60417
2828.43	2.0288
2830.65	-0.584076
2832.87	-1.0827
2835.09	-0.323166
2837.3	0.797058
2839.52	2.08429
2841.74	2.77919
2843.95	2.89732
2846.17	2.90872
2848.38	3.01791
2850.59	2.71275
2852.8	2.12128
2855.01	1.853
2857.22	2.03245
2859.43	2.62323
2861.64	3.73808
2863.85	5.28037
2866.06	5.42881
2868.26	5.13037
2870.47	4.99044
2872.67	3.78201
2874.88	3.14159
2877.08	1.75664
2879.28	1.44086
2881.48	3.30143
2883.68	4.97761
2885.89	4.68336
2888.08	4.3102
2890.28	4.08322
2892.48	3.91048
2894.68	3.32139
2896.87	2.60213
2899.07	1.92824
2901.26	1.18414
2903.46	0.313644
2905.65	-0.652344
2907.85	-1.28674
2910.04	1.67844
2912.23	2.67259
2914.42	2.61864
2916.61	2.24877
2918.8	1.53434
2920.98	0.58371
2923.17	-0.363976
2925.36	-0.16758
2927.54	0.391571
2929.73	1.27975
2931.91	3.76085
2934.1	6.9044
2936.28	7.92263
2938.46	8.13288
2940.64	7.51949
2942.82	6.15305
2945	4.41548
2947.18	2.52059
2949.36	0.793198
2951.54	-1.07834
2953.72	-1.63477
2955.89	-1.30897
2958.07	-0.380997
2960.24	0.584259
2962.42	1.31709
2964.59	1.89611
2966.76	2.30015
2968.93	2.67011
2971.1	3.17511
2973.27	3.70866
2975.44	4.40688
2977.61	3.197
2979.78	2.09494
2981.95	0.649002
2984.11	-0.213219
2986.28	3.35014
2988.45	2.39143
2990.61	1.04281
2992.77	-0.677086
2994.94	-2.99458
2997.1	-5.18624
2999.26	-6.35519
3001.42	-3.75594
3003.58	-2.04612
3005.74	-0.756088
3007.9	0.325012
3010.06	0.76506
3012.21	-0.132416
3014.37	-0.97007
3016.52	-0.419212
3018.68	0.390068
3020.83	-0.217972
3022.99	-3.24706
3025.14	-3.5201
3027.29	-1.07356
3029.44	-1.31018
3031.59	-1.07126
3033.74	-0.351822
3035.89	-0.482658
3038.04	0.345299
3040.19	0.943329
3042.33	0.317322
3044.48	-0.537453
3046.62	-0.284889
3048.77	0.857094
3050.91	2.03175
3053.05	2.89875
3055.2	3.47263
3057.34	2.95243
3059.48	2.17091
3061.62	1.22711
3063.76	0.32238
3065.9	-0.2994
3068.03	-0.992279
3070.17	-1.17003
3072.31	-1.35312
3074.44	-1.47051
3076.58	-1.19432
3078.71	0.215805
3080.85	0.822456
3082.98	1.87873
3085.11	3.26827
3087.24	3.1872
3089.37	0.951958
3091.5	-1.06518
3093.63	-3.87416
3095.76	-6.47914
3097.89	-6.30888
3100.02	-4.87742
3102.14	-1.46253
3104.27	0.384529
3106.39	2.71891
3108.52	4.62003
3110.64	4.57825
3112.76	2.09497
3114.89	0.395821
3117.01	-0.500328
3119.13	-0.72258
3121.25	-1.26501
3123.37	-0.809273
3125.49	-0.117393
3127.6	0.641426
3129.72	1.40099
3131.84	1.74129
3133.95	1.22768
3136.07	0.341797
3138.18	-0.190117
3140.29	-0.335167
3142.41	0.0199051
3144.52	1.63606
3146.63	2.7005
3148.74	2.15943
3150.85	1.38104
3152.96	1.96874
3155.07	2.53529
3157.18	3.3531
3159.28	4.0369
3161.39	3.34949
3163.5	2.68314
3165.6	1.96725
3167.71	0.162369
3169.81	-3.52797
3171.91	3.84682
3174.01	6.90461
3176.12	10.2503
3178.22	12.9637
3180.32	10.1939
3182.42	6.99698
3184.51	5.5731
3186.61	5.61685
3188.71	5.2063
3190.8	4.88776
3192.9	4.84688
3195	6.27773
3197.09	7.55211
3199.18	8.43451
3201.28	8.45764
3203.37	7.15164
3205.46	2.85678
3207.55	2.70735
3209.64	0.615112
3211.73	0.915634
3213.82	3.95418
3215.91	5.26509
3218	4.5784
3220.08	3.97105
3222.17	1.89381
3224.25	-2.80143
3226.34	-7.32303
3228.42	-5.24638
3230.5	-2.96719
3232.59	-0.651901
3234.67	0.0974731
3236.75	0.849518
3238.83	1.62306
3240.91	2.3573
3242.99	4.98395
3245.07	5.69298
3247.14	4.64293
3249.22	1.33487
3251.3	-0.0889587
3253.37	0.60498
3255.45	1.15271
3257.52	1.4268
3259.6	1.61406
3261.67	2.43317
3263.74	3.77374
3265.81	5.25357
3267.88	4.42473
3269.95	0.623917
3272.02	-4.65627
3274.09	-0.477844
3276.16	1.85571
3278.22	1.53275
3280.29	1.59219
3282.36	-1.87329
3284.42	-3.30396
3286.49	-2.29453
3288.55	-0.206665
3290.61	1.18228
3292.68	2.16917
3294.74	2.53021
3296.8	2.19087
3298.86	1.0179
3300.92	-0.258392
3302.98	-0.623459
3305.04	-0.0893555
3307.09	-0.0988922
3309.15	0.0436096
3311.21	-1.4485
3313.26	-2.3937
3315.32	-2.63873
3317.37	-2.05193
3319.42	-3.15942
3321.48	-1.35342
3323.53	1.11282
3325.58	3.71835
3327.63	5.59373
3329.68	6.15489
3331.73	5.28865
3333.78	4.1752
3335.83	3.05144
3337.87	2.36093
3339.92	1.75557
3341.97	2.42688
3344.01	2.75221
3346.06	0.29129
3348.1	-5.29729
3350.14	-6.586
3352.19	-0.744415
3354.23	4.39987
3356.27	6.11241
3358.31	1.85649
3360.35	-0.379303
3362.39	-1.67586
3364.43	-2.47893
3366.47	-0.825195
3368.5	0.718964
3370.54	2.25887
3372.58	3.54585
3374.61	4.05145
3376.65	3.42561
3378.68	2.23402
3380.71	0.471146
3382.74	-0.789505
3384.78	0.188614
3386.81	1.76752
3388.84	3.78214
3390.87	6.0336
3392.9	7.43808
3394.93	8.0388
3396.95	8.58797
3398.98	8.61484
3401.01	7.0247
3403.03	4.63899
3405.06	3.37704
3407.08	4.39027
3409.1	5.79604
3411.13	7.14534
3413.15	7.731
3415.17	7.58496
3417.19	7.51651
3419.21	7.76248
3421.23	8.31497
3423.25	8.8761
3425.27	7.58333
3427.29	5.72517
3429.31	3.83257
3431.32	3.01581
3433.34	2.48578
3435.35	2.6205
3437.37	7.10448
3439.38	8.55266
3441.39	7.89082
3443.41	6.66039
3445.42	4.52196
3447.43	7.11325
3449.44	7.36429
3451.45	6.59319
3453.46	2.56051
3455.47	1.4761
3457.47	2.72239
3459.48	3.34847
3461.49	3.47221
3463.49	3.37536
3465.5	3.39911
3467.5	3.91301
3469.51	4.73403
3471.51	5.64581
3473.51	5.87005
3475.51	4.18227
3477.52	3.26167
3479.52	0.432663
3481.52	-1.39387
3483.52	-1.76524
3485.51	-0.874863
3487.51	1.04679
3489.51	2.67052
3491.51	3.90614
3493.5	2.8705
3495.5	1.58965
3497.49	0.418579
3499.49	-0.536102
3501.48	-1.11456
3503.47	-0.358757
3505.46	0.456306
3507.45	2.6245
3509.45	4.37092
3511.44	5.10671
3513.43	6.29634
3515.41	7.58136
3517.4	8.18346
3519.39	6.23257
3521.38	4.37482
3523.36	3.16402
3525.35	2.49667
3527.33	2.59494
3529.32	3.33209
3531.3	4.7288
3533.28	6.38042
3535.27	6.87208
3537.25	5.98108
3539.23	5.35486
3541.21	3.65851
3543.19	2.04359
3545.17	0.591881
3547.15	-0.609398
3549.12	-1.00362
3551.1	-0.90731
3553.08	-0.688721
3555.05	-0.170059
3557.03	0.55114
3559	1.30403
3560.98	1.93463
3562.95	2.80045
3564.92	3.7083
3566.89	4.17595
3568.87	4.41753
3570.84	4.31438
3572.81	3.71405
3574.78	2.83038
3576.74	1.96424
3578.71	1.7318
3580.68	2.88729
3582.65	5.1682
3584.61	7.60944
3586.58	4.77978
3588.54	3.68604
3590.51	2.29647
3592.47	4.64746
3594.43	6.84261
3596.4	8.16421
3598.36	8.6874
3600.32	6.90671
3602.28	5.03526
3604.24	3.49998
3606.2	1.74564
3608.16	-1.708
3610.11	-1.05256
3612.07	-1.98234
3614.03	-1.94417
3615.98	6.23943
3617.94	7.4149
3619.89	7.40383
3621.85	7.12666
3623.8	3.31535
3625.75	3.07838
3627.71	2.07952
3629.66	3.04484
3631.61	4.54661
3633.56	6.40098
3635.51	1.2718
3637.46	-0.930626
3639.41	-0.885147
3641.35	1.78596
3643.3	4.92614
3645.25	6.25875
3647.19	6.26359
3649.14	6.27939
3651.08	-2.7404
3653.03	-2.22156
3654.97	-1.48886
3656.91	2.0419
3658.85	4.7428
3660.8	6.73156
3662.74	7.534
3664.68	7.53271
3666.62	7.08405
3668.56	4.64114
3670.49	-0.481453
3672.43	4.71809
3674.37	2.55939
3676.3	0.901558
3678.24	-1.76984
3680.18	1.95356
3682.11	3.93832
3684.04	3.34598
3685.98	2.84066
3687.91	1.76923
3689.84	1.03317
3691.77	0.302078
3693.7	0.0795975
3695.63	0.118492
3697.56	1.80556
3699.49	4.53411
3701.42	7.39521
3703.35	8.20477
3705.28	8.04193
3707.2	8.28777
3709.13	8.96016
3711.05	9.33545
3712.98	8.45415
3714.9	5.17275
3716.82	1.86173
3718.75	-1.46456
3720.67	-4.86107
3722.59	-11.7753
3724.51	-6.43349
3726.43	2.36063
3728.35	2.60883
3730.27	2.61836
3732.19	2.8689
3734.11	3.983
3736.02	5.50869
3737.94	5.53211
3739.86	-1.04877
3741.77	3.87229
3743.69	3.28415
3745.6	3.19469
3747.51	3.4254
3749.43	1.42019
3751.34	1.53265
3753.25	2.20564
3755.16	3.05619
3757.07	3.55366
3758.98	3.67919
3760.89	3.80524
3762.8	3.70711
3764.71	3.6611
3766.61	3.40785
3768.52	3.21301
3770.43	3.62175
3772.33	4.39476
3774.24	5.48203
3776.14	5.96809
3778.05	5.76546
3779.95	5.13017
3781.85	4.06932
3783.75	3.41675
3785.65	1.18791
3787.55	2.03394
3789.45	3.98702
3791.35	6.19833
3793.25	8.18777
3795.15	9.4005
3797.05	9.39233
3798.95	9.03363
3800.84	7.13205
3802.74	5.85494
3804.63	4.84064
3806.53	3.38654
3808.42	2.23071
3810.31	1.55038
3812.21	1.49106
3814.1	2.77807
3815.99	4.58076
3817.88	6.24142
3819.77	7.52072
3821.66	7.69726
3823.55	7.13013
3825.44	6.12933
3827.33	4.27724
3829.21	2.11334
3831.1	-0.144249
3832.99	-0.605125
3834.87	-0.0688171
3836.76	1.32809
3838.64	2.10835
3840.52	1.80276
3842.41	2.27232
3844.29	5.06597
3846.17	7.91386
3848.05	10.1994
3849.93	11.1991
3851.81	9.94318
3853.69	9.96928
3855.57	8.8992
3857.45	8.07314
3859.33	7.72646
3861.21	5.58582
3863.08	3.91484
3864.96	3.00039
3866.83	2.89491
3868.71	3.3617
3870.58	4.34943
3872.46	5.62313
3874.33	5.35212
3876.2	3.37157
3878.07	1.68542
3879.94	0.430367
3881.81	-0.0860596
3883.68	0.381248
3885.55	2.58857
3887.42	0.373154
3889.29	-0.491699
3891.16	0.354996
3893.02	2.5387
3894.89	5.71336
3896.76	6.92279
3898.62	6.05728
3900.49	5.75819
3902.35	6.23993
3904.21	7.27311
3906.08	7.80382
3907.94	7.81367
3909.8	7.49883
3911.66	6.03759
3913.52	4.89345
3915.38	1.94832
3917.24	0.852295
3919.1	1.67117
3920.96	2.80965
3922.82	3.69589
3924.67	5.74542
3926.53	6.50035
3928.38	6.88496
3930.24	7.06683
3932.09	7.14379
3933.95	7.62889
3935.8	8.19855
3937.65	8.30455
3939.51	7.0861
3941.36	6.14304
3943.21	5.56007
3945.06	5.29295
3946.91	5.19196
3948.76	5.19886
3950.61	4.80213
3952.46	3.43076
3954.3	2.11099
3956.15	1.15208
3958	0.765129
3959.84	1.99463
3961.69	3.70754
3963.53	5.6258
3965.38	6.91489
3967.22	7.56062
3969.06	7.36803
3970.91	6.17756
3972.75	4.92524
3974.59	3.70387
3976.43	2.59678
3978.27	2.16273
3980.11	2.04324
3981.95	2.4468
3983.78	3.17672
3985.62	4.22751
3987.46	5.62767
3989.3	5.61228
3991.13	4.83958
3992.97	2.98592
3994.8	-0.288177
3996.64	2.81316
3998.47	-3.02409
