#Acq. time (s)=	40
#Accumulations=	2
#Range (cm-¹)=	1200...2365
#Windows=	3
#Auto scanning=	Off
#Autofocus=	Off
#Macrospot=	Off
#AutoExposure=	Off
#Spike filter=	Multiple accum.
#Delay time (s)=	2
#Binning=	1
#Readout mode=	Signal
#DeNoise=	Off
#ICS correction=	On
#Dark correction=	Off
#Inst. Process=	Off
#Detector Gain=	Best Dynamic
#Detector ADC=	50 kHz EM
#Detector EM gain=	400
#Detector temperature (°C)=	-60.09
#Instrument=	LabRAM HR Evol
#Detector=	SIN-EM FIVIS
#Objective=	x100_VIS_LWD
#Grating=	1800 (450-850nm)
#ND Filter=	100%
#Laser=	532nm_Edge
#Hole=	30.0125
#Temperature=	0
#Range=	Visible
#StageXY=	75x50mm Scan+
#StageZ=	Z motor
#X (µm)=	0
#Y (µm)=	0
#Z (µm)=	14.6
#Full time(mm:ss)=	4:22
#Project=	21_11_26
#Sample=	BU32
#Site=	
#Title=	BU32-A-incC-FI05-V_1800 (450-850nm)_532nm_Edge_100%_x100_VIS_LWD_H30um_40sX2
#Remark=	
#Date=	26.11.2021 18:16
#Acquired=	26.11.2021 18:16:44
#Base:Fit=	16.12.2021 14:47:12
#Base:Fit=	16.12.2021 14:47:15
#Base:Sub=	16.12.2021 14:47:17
1202.72	-13.8306
1203	-3.30957
1203.28	23.8865
1203.56	-8.65228
1203.84	27.6224
1204.11	-30.6236
1204.39	-12.4543
1204.67	-25.2418
1204.95	18.9844
1205.23	30.7911
1205.5	-32.7277
1205.78	1.52747
1206.06	29.2823
1206.34	-9.52557
1206.61	56.8179
1206.89	-4.47455
1207.17	16.7977
1207.45	54.1636
1207.73	5.91449
1208	18.7198
1208.28	12.295
1208.56	27.2535
1208.84	-2.78247
1209.11	19.6218
1209.39	38.8141
1209.67	33.4849
1209.95	5.75006
1210.23	18.615
1210.5	44.2411
1210.78	44.0893
1211.06	22.588
1211.34	1.14429
1211.61	1.03033
1211.89	7.35907
1212.17	38.1574
1212.45	41.2237
1212.72	40.0879
1213	20.8293
1213.28	26.075
1213.56	-16.5487
1213.83	10.0893
1214.11	50.5123
1214.39	18.6829
1214.67	-15.284
1214.94	33.7789
1215.22	-22.5707
1215.5	62.6603
1215.78	-15.0008
1216.05	-11.7675
1216.33	11.5954
1216.61	-1.27887
1216.89	4.95813
1217.16	38.8438
1217.44	-4.81433
1217.72	17.4268
1218	35.4061
1218.27	2.44275
1218.55	6.65228
1218.83	2.37646
1219.1	14.0679
1219.38	40.6378
1219.66	7.77356
1219.94	15.213
1220.21	18.3799
1220.49	-5.95306
1220.77	10.0376
1221.04	36.6019
1221.32	19.6572
1221.6	5.85577
1221.88	-5.82074
1222.15	17.4246
1222.43	9.87842
1222.71	16.0685
1222.98	26.463
1223.26	26.2822
1223.54	-22.5271
1223.81	17.5089
1224.09	-18.5243
1224.37	15.176
1224.65	18.291
1224.92	39.3806
1225.2	21.4378
1225.48	-24.9455
1225.76	6.86353
1226.03	-9.89676
1226.31	-9.75372
1226.59	4.021
1226.86	15.6743
1227.14	-30.7967
1227.42	-10.7502
1227.69	10.163
1227.97	-42.9605
1228.25	-2.09424
1228.52	30.3199
1228.8	0.430725
1229.08	49.5018
1229.35	-0.903687
1229.63	-30.0993
1229.91	21.6794
1230.18	21.2484
1230.46	27.1376
1230.74	-7.73593
1231.01	-53.9514
1231.29	-60.464
1231.57	-10.852
1231.84	-27.4977
1232.12	-27.4316
1232.4	6.2522
1232.67	13.6197
1232.95	39.9482
1233.23	-12.5371
1233.5	10.5996
1233.78	-6.146
1234.06	55.9366
1234.33	1.43207
1234.61	22.5729
1234.89	-1.4433
1235.16	-0.232422
1235.44	-16.9349
1235.71	2.10779
1235.99	-1.95953
1236.27	14.98
1236.54	-25.9594
1236.82	25.5669
1237.1	-11.2328
1237.37	3.44391
1237.65	-23.9702
1237.93	-29.3224
1238.2	46.1629
1238.48	25.0466
1238.76	-2.34775
1239.03	13.3149
1239.31	26.9285
1239.58	-5.57217
1239.86	0.738525
1240.14	11.2609
1240.41	7.12451
1240.69	-4.33411
1240.97	-29.4036
1241.24	3.19177
1241.52	5.38055
1241.79	41.0467
1242.07	-1.94946
1242.35	-24.9882
1242.62	17.011
1242.9	-10.1307
1243.18	42.4205
1243.45	-8.79767
1243.73	14.3304
1244	-15.9922
1244.28	-24.2729
1244.56	-1.14252
1244.83	19.8625
1245.11	1.01633
1245.39	16.6972
1245.66	-5.36392
1245.94	59.4657
1246.21	26.8928
1246.49	43.6382
1246.76	-25.4169
1247.04	26.995
1247.32	14.4964
1247.59	9.29147
1247.87	14.5861
1248.14	-7.37442
1248.42	30.1707
1248.7	25.9544
1248.97	-7.46634
1249.25	-9.45493
1249.52	9.48199
1249.8	30.4378
1250.08	-13.4348
1250.35	24.2954
1250.63	10.6618
1250.9	12.6892
1251.18	-31.2525
1251.45	3.20901
1251.73	-13.5253
1252.01	-16.673
1252.28	4.19711
1252.56	11.4834
1252.83	30.2505
1253.11	22.9014
1253.39	31.2204
1253.66	30.1957
1253.94	-25.0366
1254.21	-20.7124
1254.49	7.63641
1254.76	-10.9734
1255.04	8.97986
1255.31	-6.61115
1255.59	-13.8098
1255.87	29.0765
1256.14	-24.1331
1256.42	-26.1286
1256.69	-4.0874
1256.97	-18.5651
1257.24	-19.5142
1257.52	14.9993
1257.79	-12.157
1258.07	10.8438
1258.35	0.433746
1258.62	7.77106
1258.9	18.2232
1259.17	4.60193
1259.45	-23.5193
1259.72	11.0543
1260	25.8168
1260.27	-32.3783
1260.55	31.2625
1260.82	46.8611
1261.1	-6.48682
1261.37	15.3701
1261.65	7.01175
1261.92	25.9322
1262.2	25.4338
1262.48	17.8384
1262.75	-7.91455
1263.02	34.1616
1263.3	8.5437
1263.58	16.7201
1263.85	43.3978
1264.13	9.41904
1264.4	80.027
1264.68	72.0237
1264.95	92.6386
1265.23	65.3879
1265.5	18.4258
1265.78	-17.0817
1266.05	23.6499
1266.33	36.2559
1266.6	-23.196
1266.88	-12.6105
1267.15	18.9105
1267.43	10.7386
1267.7	7.80948
1267.98	13.2603
1268.25	34.4302
1268.53	37.8808
1268.8	-26.7831
1269.08	-30.8088
1269.35	55.2466
1269.63	-23.1974
1269.9	-14.7743
1270.18	-5.38531
1270.45	1.8624
1270.73	-7.59836
1271	26.8925
1271.28	-24.4093
1271.55	-37.9756
1271.83	2.83807
1272.1	21.7817
1272.38	38.72
1272.65	-22.8266
1272.93	-2.67233
1273.2	-11.9005
1273.47	0.873016
1273.75	-4.16248
1274.03	11.7658
1274.3	-5.85672
1274.57	35.2026
1274.85	27.955
1275.12	22.7578
1275.4	10.2426
1275.67	-31.5929
1275.95	14.7191
1276.22	3.33658
1276.5	-8.01846
1276.77	24.6863
1277.05	1.75723
1277.32	-27.5081
1277.6	19.9485
1277.87	45.3616
1278.14	-39.5649
1278.42	-2.61224
1278.69	-4.55261
1278.97	-3.28903
1279.24	55.7634
1279.52	9.63614
1279.79	-36.6088
1280.07	-2.91821
1280.34	17.0743
1280.61	30.7951
1280.89	21.4398
1281.16	5.78064
1281.44	-5.59735
1281.71	13.5715
1281.99	33.7105
1282.26	30.6097
1282.53	5.4635
1282.81	28.7526
1283.08	3.46881
1283.36	29.5919
1283.63	-8.64835
1283.91	36.4243
1284.18	132.104
1284.45	129.354
1284.73	382.525
1285	768.417
1285.28	785.322
1285.55	431.944
1285.83	203.226
1286.1	40.1147
1286.37	73.9992
1286.65	40.3637
1286.92	27.696
1287.2	-0.670502
1287.47	12.0001
1287.75	23.5726
1288.02	8.81363
1288.29	-29.0585
1288.57	-7.94839
1288.84	20.5472
1289.12	18.5478
1289.39	-2.35934
1289.66	12.5371
1289.94	14.8052
1290.21	-25.042
1290.49	9.87021
1290.76	-31.1471
1291.03	25.747
1291.31	-7.91809
1291.58	-11.0181
1291.86	-5.68964
1292.13	10.1566
1292.4	-17.1542
1292.68	-13.8961
1292.95	-10.6971
1293.22	37.7752
1293.5	-42.1712
1293.77	-14.5638
1294.05	-1.6489
1294.32	6.01044
1294.59	7.19122
1294.87	-16.9947
1295.14	31.5439
1295.42	-4.15186
1295.69	28.8322
1295.96	33.4098
1296.24	21.1801
1296.51	9.83685
1296.79	-12.2394
1297.06	43.8619
1297.33	15.3335
1297.61	2.6308
1297.88	3.65192
1298.15	19.4486
1298.43	-7.02133
1298.7	-2.67236
1298.97	-23.7664
1299.25	27.9594
1299.52	15.2852
1299.79	-12.1758
1300.07	26.9409
1300.34	-62.6391
1300.62	-2.34454
1300.89	-8.60016
1301.16	-13.8359
1301.44	-8.50919
1301.71	-12.6423
1301.98	-10.3828
1302.25	8.77063
1302.53	-3.79547
1302.8	5.79141
1303.08	-40.6275
1303.35	3.77087
1303.62	16.4551
1303.9	-4.69052
1304.17	-10.9784
1304.44	15.4967
1304.72	13.4512
1304.99	-15.0007
1305.26	-7.60349
1305.54	-7.62454
1305.81	23.9918
1306.08	13.3887
1306.35	-7.7688
1306.63	6.96561
1306.9	-7.77878
1307.18	9.15826
1307.45	-13.9359
1307.72	17.7849
1308	-21.1823
1308.27	24.2314
1308.54	-24.1957
1308.81	37.014
1309.09	27.6143
1309.36	24.5963
1309.63	9.96252
1309.91	9.04453
1310.18	-1.39737
1310.45	-9.78912
1310.73	38.7858
1311	44.1268
1311.27	-40.2115
1311.55	26.3654
1311.82	-5.20984
1312.09	23.3925
1312.37	-16.5709
1312.64	5.73541
1312.91	17.4485
1313.18	7.98688
1313.46	7.97073
1313.73	1.68219
1314	10.1455
1314.28	9.11618
1314.55	4.95615
1314.82	-12.8961
1315.09	14.6625
1315.37	0.00714111
1315.64	28.64
1315.91	-11.3603
1316.18	54.2519
1316.46	20.4929
1316.73	1.51273
1317	-23.7922
1317.28	0.546387
1317.55	-11.0084
1317.82	-1.3714
1318.09	11.4145
1318.37	-19.1263
1318.64	14.7607
1318.91	28.5683
1319.18	9.61572
1319.46	-17.8043
1319.73	-6.14145
1320	31.9315
1320.28	9.84348
1320.55	13.0805
1320.82	-56.6083
1321.09	14.1585
1321.37	15.1629
1321.64	5.57898
1321.91	-4.01569
1322.18	-0.876892
1322.46	-27.3275
1322.73	-19.9466
1323	30.6703
1323.27	-0.980255
1323.55	-28.4255
1323.82	42.3327
1324.09	3.40228
1324.36	1.3623
1324.64	49.9113
1324.91	-30.1582
1325.18	25.7728
1325.45	-5.76859
1325.73	-5.83316
1326	16.1371
1326.27	-19.9016
1326.54	-9.65234
1326.81	28.142
1327.09	-28.6475
1327.36	16.8182
1327.63	36.1672
1327.9	-33.1141
1328.18	-20.2484
1328.45	18.999
1328.72	31.9126
1328.99	24.7529
1329.27	-26.8383
1329.54	9.03116
1329.81	16.5281
1330.08	13.4
1330.35	33.4615
1330.63	19.7397
1330.9	-27.7527
1331.17	-26.7499
1331.44	22.7102
1331.71	-0.610046
1331.99	18.1916
1332.26	17.0215
1332.53	-28.3209
1332.8	5.26822
1333.07	-3.25931
1333.35	37.6336
1333.62	16.4961
1333.89	-13.0234
1334.16	-22.5572
1334.43	0.475952
1334.71	-30.045
1334.98	29.7343
1335.25	3.44495
1335.52	17.0475
1335.79	3.37061
1336.07	-29.1758
1336.34	1.21814
1336.61	-7.18719
1336.88	20.0641
1337.15	10.6266
1337.43	-2.99158
1337.7	-24.9877
1337.97	-1.92572
1338.24	9.53604
1338.51	-46.0429
1338.78	28.3134
1339.06	-11.5111
1339.33	-20.9311
1339.6	31.4647
1339.87	-3.01538
1340.14	26.3881
1340.42	-12.2919
1340.69	2.44299
1340.96	36.0274
1341.23	-7.91312
1341.5	-5.78513
1341.77	9.94263
1342.04	13.0833
1342.32	-8.92636
1342.59	18.2382
1342.86	11.8806
1343.13	-22.7166
1343.4	-17.497
1343.67	-22.7078
1343.95	-6.9816
1344.22	18.1684
1344.49	16.1402
1344.76	-17.2732
1345.03	13.0648
1345.3	25.584
1345.58	26.5681
1345.85	6.60416
1346.12	-8.09351
1346.39	12.686
1346.66	-17.7822
1346.93	14.4719
1347.2	-5.44727
1347.47	25.7443
1347.75	26.6978
1348.02	18.317
1348.29	-12.9649
1348.56	39.1588
1348.83	33.9622
1349.1	2.67325
1349.37	-3.61594
1349.65	-5.74121
1349.92	26.5073
1350.19	16.0545
1350.46	49.3318
1350.73	11.8144
1351	-22.5957
1351.27	4.38815
1351.54	22.043
1351.81	-15.4728
1352.09	25.0969
1352.36	37.6176
1352.63	-47.5462
1352.9	-20.3559
1353.17	4.80914
1353.44	-32.5256
1353.71	-8.13535
1353.98	-30.5757
1354.25	3.41858
1354.53	11.0581
1354.8	-6.02191
1355.07	5.51135
1355.34	-28.6885
1355.61	-11.1387
1355.88	14.7897
1356.15	20.2039
1356.42	28.6061
1356.69	-18.1995
1356.96	-13.0021
1357.24	-20.2632
1357.51	24.3963
1357.78	29.5717
1358.05	18.1211
1358.32	-25.5133
1358.59	-19.3198
1358.86	23.1954
1359.13	4.46716
1359.4	-20.4723
1359.67	-13.2299
1359.94	-13.2412
1360.22	28.1551
1360.49	5.25122
1360.76	-14.523
1361.03	19.6235
1361.3	19.6317
1361.57	2.06302
1361.84	-17.5874
1362.11	36.293
1362.38	-33.1075
1362.65	34.2008
1362.92	6.24197
1363.19	11.45
1363.46	-24.7118
1363.73	27.196
1364	-24.48
1364.28	-10.9088
1364.55	15.0303
1364.82	7.79388
1365.09	1.57483
1365.36	14.9972
1365.63	34.6041
1365.9	5.54712
1366.17	7.55313
1366.44	16.8014
1366.71	8.45584
1366.98	-23.6949
1367.25	-33.1101
1367.52	-3.16129
1367.79	-18.6632
1368.06	4.18256
1368.33	-5.03638
1368.6	27.0841
1368.87	-14.1895
1369.15	11.7304
1369.41	13.8849
1369.68	30.5089
1369.95	52.2045
1370.23	36.6831
1370.5	-18.1138
1370.77	-3.72156
1371.04	22.0929
1371.31	8.61578
1371.58	-5.93436
1371.85	7.3739
1372.12	6.19357
1372.39	27.7166
1372.66	-4.38586
1372.93	12.0291
1373.2	34.6681
1373.47	20.2143
1373.74	17.1042
1374.01	-17.9388
1374.28	5.76514
1374.55	12.987
1374.82	-22.0295
1375.09	25.3664
1375.36	8.86591
1375.63	-21.9731
1375.9	1.82312
1376.17	-22.8693
1376.44	6.04749
1376.71	-0.213409
1376.98	-10.5848
1377.25	45.9192
1377.52	51.9182
1377.79	-5.60141
1378.06	7.94516
1378.33	0.973663
1378.6	2.28519
1378.87	12.9024
1379.14	53.2381
1379.41	21.3007
1379.68	7.87631
1379.95	16.0948
1380.22	-17.9723
1380.49	-23.2787
1380.76	52.5583
1381.03	-6.28445
1381.3	-11.5613
1381.57	11.1862
1381.84	17.2708
1382.11	-4.50266
1382.38	-43.7352
1382.65	23.8976
1382.92	12.4644
1383.19	35.918
1383.46	1.96201
1383.73	3.91357
1384	30.5284
1384.27	24.3458
1384.54	35.6818
1384.81	36.7931
1385.08	24.6217
1385.34	35.0594
1385.61	26.0656
1385.88	11.87
1386.15	48.9805
1386.42	50.1181
1386.69	67.7271
1386.96	53.4393
1387.23	119.209
1387.5	186.51
1387.77	509.987
1388.04	1208.85
1388.31	1387.8
1388.58	755.616
1388.85	225.689
1389.12	156.815
1389.39	64.85
1389.66	78.2811
1389.93	22.9337
1390.2	23.8308
1390.46	16.298
1390.73	42.817
1391	50.0156
1391.27	25.2408
1391.54	34.4601
1391.81	12.9321
1392.08	2.61353
1392.35	-1.56934
1392.62	14.7481
1392.89	46.4438
1393.16	9.55554
1393.43	-7.86346
1393.7	57.6335
1393.97	-1.73651
1394.23	0.30954
1394.5	31.0131
1394.77	13.6249
1395.04	13.6436
1395.31	26.0143
1395.58	28.1836
1395.85	-14.7091
1396.12	8.89505
1396.39	-5.41296
1396.66	2.77338
1396.93	-8.50342
1397.2	27.2892
1397.46	15.9777
1397.73	3.64902
1398	-2.49622
1398.27	-4.50955
1398.54	21.1318
1398.81	9.97504
1399.08	15.1618
1399.35	36.7108
1399.62	14.3225
1399.89	-29.5941
1400.16	-23.3732
1400.42	33.9764
1400.69	28.9666
1400.96	8.65253
1401.23	1.57852
1401.5	-4.54688
1401.77	10.9086
1402.04	-1.3483
1402.31	28.5592
1402.58	-4.94519
1402.84	-21.031
1403.11	15.1219
1403.38	6.07693
1403.65	13.3735
1403.92	41.1339
1404.19	0.00637817
1404.46	-7.40692
1404.73	18.3488
1404.99	-8.33334
1405.26	-22.7144
1405.53	24.4208
1405.8	28.4648
1406.07	16.1083
1406.34	-35.1909
1406.61	-25.9771
1406.87	-3.42917
1407.14	22.2527
1407.41	6.94818
1407.68	59.3073
1407.95	60.4002
1408.22	51.2397
1408.49	72.8373
1408.76	69.8287
1409.02	119.127
1409.29	109.987
1409.56	193.15
1409.83	118.358
1410.1	77.3933
1410.37	37.4227
1410.63	-9.82224
1410.9	22.8951
1411.17	-6.9509
1411.44	42.1654
1411.71	29.8152
1411.98	-11.197
1412.25	21.604
1412.51	-3.9072
1412.78	38.284
1413.05	6.84741
1413.32	-12.0506
1413.59	-16.8707
1413.86	-16.1619
1414.12	22.228
1414.39	5.96417
1414.66	12.4773
1414.93	37.3788
1415.2	17.8733
1415.47	-3.63513
1415.73	18.9877
1416	6.71552
1416.27	15.0035
1416.54	38.7005
1416.81	-11.5383
1417.07	-25.8361
1417.34	-5.20432
1417.61	-48.2646
1417.88	19.6284
1418.15	-8.05386
1418.42	8.42978
1418.68	5.40033
1418.95	35.2591
1419.22	36.3267
1419.49	-20.1544
1419.76	-0.645538
1420.02	21.9025
1420.29	5.40054
1420.56	-0.818085
1420.83	21.7086
1421.1	25.7408
1421.36	45.1837
1421.63	-30.7806
1421.9	27.7837
1422.17	10.4958
1422.44	61.017
1422.7	1.64053
1422.97	35.8516
1423.24	7.51324
1423.51	40.9228
1423.77	-1.35355
1424.04	-1.284
1424.31	2.97742
1424.58	28.1631
1424.85	13.8556
1425.11	33.4991
1425.38	2.09103
1425.65	41.1596
1425.92	-11.1832
1426.19	40.3027
1426.45	11.5741
1426.72	21.7759
1426.99	3.22284
1427.26	53.3539
1427.52	-5.18317
1427.79	10.0233
1428.06	25.2574
1428.33	14.969
1428.59	24.1836
1428.86	30.3652
1429.13	-0.292511
1429.4	-10.4624
1429.67	18.2989
1429.93	5.08975
1430.2	13.4196
1430.47	-6.91632
1430.74	28.0656
1431	-1.48679
1431.27	-0.222992
1431.54	8.17944
1431.81	9.31946
1432.07	-17.3341
1432.34	30.8441
1432.61	-10.2828
1432.87	4.03891
1433.14	40.8429
1433.41	-2.37442
1433.68	-2.54367
1433.95	17.7871
1434.21	27.938
1434.48	12.558
1434.75	18.9603
1435.01	9.87146
1435.28	-19.7953
1435.55	-33.0844
1435.82	-9.49649
1436.08	9.98047
1436.35	-6.41385
1436.62	34.5657
1436.89	-4.38107
1437.15	2.7735
1437.42	4.81052
1437.69	55.0159
1437.95	-10.5593
1438.22	15.0493
1438.49	3.83749
1438.76	32.6211
1439.02	6.06168
1439.29	22.4977
1439.56	-7.15829
1439.82	14.4618
1440.09	4.35217
1440.36	30.1455
1440.63	36.3895
1440.89	34.399
1441.16	-5.55649
1441.43	28.3405
1441.69	38.5858
1441.96	-13.7594
1442.23	46.7159
1442.49	2.75827
1442.76	36.6389
1443.03	4.97388
1443.3	19.2993
1443.56	-0.238098
1443.83	9.97504
1444.1	49.9351
1444.36	13.0407
1444.63	29.5017
1444.9	9.16461
1445.16	59.57
1445.43	9.49176
1445.7	28.9732
1445.97	31.0058
1446.23	48.4298
1446.5	22.7711
1446.77	-2.87949
1447.03	-1.86267
1447.3	35.0462
1447.57	38.0992
1447.83	28.835
1448.1	33.9383
1448.37	29.8616
1448.63	18.6978
1448.9	35.245
1449.17	-24.1853
1449.43	21.9904
1449.7	57.8712
1449.97	18.863
1450.23	21.8859
1450.5	34.134
1450.77	16.6921
1451.03	40.2553
1451.3	18.7189
1451.57	1.2822
1451.83	1.26154
1452.1	15.587
1452.37	20.6992
1452.63	-58.1825
1452.9	38.1557
1453.17	28.9858
1453.43	-20.1163
1453.7	5.57336
1453.97	-3.61969
1454.23	15.8446
1454.5	12.7701
1454.77	-3.59906
1455.03	1.55176
1455.3	50.7497
1455.56	6.68231
1455.83	3.6445
1456.1	36.5479
1456.36	-8.4754
1456.63	7.94894
1456.9	-20.7615
1457.16	2.75604
1457.43	-0.367188
1457.7	13.9658
1457.96	9.8627
1458.23	26.2589
1458.49	54.9703
1458.76	14.0326
1459.03	19.2081
1459.29	10.0364
1459.56	25.4471
1459.82	-11.4019
1460.09	-30.8606
1460.36	-18.5696
1460.62	26.4984
1460.89	21.3609
1461.16	48.9879
1461.42	11.0537
1461.69	-24.8228
1461.95	16.0921
1462.22	44.6991
1462.49	24.1604
1462.75	-8.65967
1463.02	12.7502
1463.28	24.9387
1463.55	34.049
1463.82	11.4747
1464.08	21.7065
1464.35	-5.72839
1464.61	34.4141
1464.88	17.2186
1465.15	-50.1136
1465.41	3.82135
1465.68	4.00897
1465.94	11.8118
1466.21	54.6495
1466.48	21.149
1466.74	-10.5149
1467.01	1.55127
1467.27	-5.62839
1467.54	-18.8223
1467.8	5.65747
1468.07	-16.7948
1468.34	10.7514
1468.6	15.8672
1468.87	9.76025
1469.13	-27.9826
1469.4	-8.62466
1469.67	-14.7755
1469.93	8.61166
1470.2	-5.74759
1470.46	-4.79224
1470.73	-7.88907
1470.99	13.4778
1471.26	-22.1928
1471.53	33.7976
1471.79	-7.01688
1472.06	-20.2952
1472.32	30.6108
1472.59	22.4695
1472.85	-18.2497
1473.12	68.3077
1473.39	9.23935
1473.65	-16.2564
1473.92	17.2883
1474.18	17.2533
1474.45	-36.6936
1474.71	25.4051
1474.98	-30.503
1475.24	-2.9696
1475.51	-27.3682
1475.78	19.4602
1476.04	25.5455
1476.31	12.2742
1476.57	4.11066
1476.84	-2.01166
1477.1	18.2821
1477.37	16.1914
1477.63	29.3952
1477.9	31.4346
1478.16	3.98764
1478.43	-29.599
1478.69	24.2201
1478.96	36.3692
1479.22	9.89291
1479.49	24.0612
1479.76	41.2634
1480.02	8.672
1480.29	28.9059
1480.55	-16.933
1480.82	-2.83127
1481.08	-16.0912
1481.35	27.5192
1481.61	-0.947021
1481.88	-21.1725
1482.14	2.26016
1482.41	-28.0785
1482.67	4.51849
1482.94	-17.7208
1483.2	-5.5163
1483.47	-4.4216
1483.73	-23.662
1484	-8.40594
1484.26	-10.4299
1484.53	14.7845
1484.79	12.5101
1485.06	-9.26031
1485.32	-7.83145
1485.59	5.11902
1485.85	10.8424
1486.12	27.1674
1486.38	-7.12601
1486.65	0.167236
1486.91	1.72137
1487.18	44.5392
1487.44	-8.05698
1487.71	-7.15692
1487.97	10.9914
1488.24	3.85822
1488.5	15.9552
1488.77	10.81
1489.03	-43.9372
1489.3	35.9487
1489.56	-14.6754
1489.83	29.8247
1490.09	-30.8871
1490.36	-13.6696
1490.62	36.9287
1490.89	34.867
1491.15	36.8124
1491.42	-18.8766
1491.68	21.5449
1491.95	-7.77362
1492.21	37.7422
1492.48	-10.7434
1492.74	-5.68106
1493	-0.628265
1493.27	40.8266
1493.53	-43.0592
1493.8	-22.8495
1494.06	-14.7574
1494.33	-5.63168
1494.59	-19.7315
1494.86	1.55933
1495.12	17.7385
1495.39	16.6725
1495.65	4.42731
1495.92	-20.9735
1496.18	18.3052
1496.45	-3.974
1496.71	32.3287
1496.97	7.05389
1497.24	-4.09058
1497.5	11.0668
1497.77	-10.1098
1498.03	47.4117
1498.3	-31.2951
1498.56	21.2095
1498.82	2.06729
1499.09	-12.0243
1499.35	11.2318
1499.62	30.4634
1499.88	-14.8963
1500.15	10.4035
1500.41	11.4528
1500.68	-5.69144
1500.94	22.5828
1501.2	12.4946
1501.47	16.5035
1501.73	-13.8441
1502	23.4892
1502.26	6.34174
1502.52	1.30011
1502.79	12.3771
1503.05	-13.9306
1503.32	-9.96313
1503.58	7.15005
1503.85	10.1123
1504.11	-3.9834
1504.37	-29.1268
1504.64	22.3461
1504.9	22.3722
1505.17	36.4902
1505.43	-7.90469
1505.7	41.4476
1505.96	10.0835
1506.22	-4.16812
1506.49	1.86737
1506.75	8.92752
1507.02	33.1499
1507.28	5.0311
1507.54	30.2635
1507.81	21.239
1508.07	-13.0043
1508.34	12.1782
1508.6	-4.95401
1508.86	-19.0288
1509.13	-16.9746
1509.39	-10.8994
1509.66	-32.0437
1509.92	6.26736
1510.18	-16.8363
1510.45	-3.68286
1510.71	24.4653
1510.98	9.2818
1511.24	8.18753
1511.5	-6.01862
1511.77	23.0085
1512.03	-5.39243
1512.29	-0.582123
1512.56	-14.8581
1512.82	37.2134
1513.08	-3.06708
1513.35	7.89502
1513.61	-18.2747
1513.88	-9.25406
1514.14	-8.12048
1514.4	-1.89444
1514.67	18.2647
1514.93	-1.85614
1515.2	13.1246
1515.46	-9.06683
1515.72	27.9769
1515.99	10.7931
1516.25	5.65863
1516.51	6.58545
1516.78	-11.488
1517.04	-11.5013
1517.3	-4.48969
1517.57	20.5866
1517.83	14.6023
1518.09	1.62485
1518.36	2.73575
1518.62	14.8194
1518.88	-40.2892
1519.15	20.9471
1519.41	-12.0917
1519.67	-14.0392
1519.94	1.05591
1520.2	-22.007
1520.47	26.1295
1520.73	-13.0035
1520.99	3.09702
1521.26	28.2489
1521.52	16.2762
1521.78	-9.77213
1522.05	5.28363
1522.31	-36.873
1522.57	-30.8781
1522.84	-11.8484
1523.1	-4.85126
1523.36	21.1689
1523.62	5.00723
1523.89	33.9059
1524.15	10.7551
1524.41	-30.3883
1524.68	-13.4157
1524.94	2.55783
1525.2	-29.4106
1525.47	4.68372
1525.73	24.755
1525.99	14.8336
1526.26	42.9983
1526.52	16.1
1526.78	-22.8676
1527.05	5.25848
1527.31	42.3594
1527.57	-3.79144
1527.84	6.22464
1528.1	-3.81204
1528.36	-29.8781
1528.63	-4.85858
1528.89	28.1753
1529.15	18.1379
1529.41	45.1823
1529.68	7.13519
1529.94	0.117218
1530.2	-36.9853
1530.47	50.1393
1530.73	-6.87271
1530.99	38.3198
1531.25	12.3975
1531.52	-21.5741
1531.78	23.5521
1532.04	7.51279
1532.31	24.584
1532.57	23.5417
1532.83	-17.4585
1533.09	4.73471
1533.36	-6.10223
1533.62	-38.0291
1533.88	27.2559
1534.15	15.2819
1534.41	4.26764
1534.67	11.2878
1534.94	-9.78802
1535.2	15.2616
1535.46	-14.8414
1535.72	11.1669
1535.99	13.9619
1536.25	8.83273
1536.51	2.74161
1536.77	-33.4405
1537.04	-14.5581
1537.3	7.33258
1537.56	-5.71387
1537.82	-4.79453
1538.09	-35.7723
1538.35	-37.8349
1538.61	4.0459
1538.87	3.02396
1539.14	-1.9942
1539.4	17.1534
1539.66	37.4598
1539.92	-17.2108
1540.19	67.174
1540.45	1.28906
1540.71	14.5486
1540.97	3.67438
1541.24	-2.26529
1541.5	-7.44284
1541.76	-39.5164
1542.02	-38.6044
1542.29	-1.61499
1542.55	38.3598
1542.81	-0.793579
1543.07	43.1754
1543.34	21.0669
1543.6	15.97
1543.86	-1.16632
1544.12	5.70328
1544.39	-31.2531
1544.65	2.8031
1544.91	12.9292
1545.17	4.09283
1545.43	0.217224
1545.7	4.43237
1545.96	25.5902
1546.22	5.64697
1546.48	45.7939
1546.74	36.7746
1547.01	-0.238953
1547.27	18.8742
1547.53	29.9795
1547.79	19.0351
1548.06	28.9744
1548.32	4.71375
1548.58	-4.27319
1548.84	0.784302
1549.1	5.9549
1549.37	39.5756
1549.63	35.0857
1549.89	4.01697
1550.15	39.3058
1550.42	-9.20035
1550.68	19.583
1550.94	-5.95856
1551.2	16.6141
1551.46	13.3067
1551.73	-21.7636
1551.99	-0.743805
1552.25	11.1815
1552.51	47.5648
1552.77	8.6261
1553.03	4.5744
1553.3	3.46326
1553.56	-0.862061
1553.82	14.1387
1554.08	34.187
1554.34	7.03583
1554.61	11.9418
1554.87	32.8573
1555.13	-5.36337
1555.39	16.6448
1555.65	8.62613
1555.91	4.64319
1556.18	-1.31091
1556.44	-8.29181
1556.7	2.68399
1556.96	16.7399
1557.22	25.8134
1557.48	17.8545
1557.75	-12.1637
1558.01	24.9029
1558.27	14.8253
1558.53	-19.3401
1558.79	-2.40628
1559.06	9.47345
1559.32	-40.6615
1559.58	43.2621
1559.84	40.1798
1560.1	19.125
1560.36	6.08966
1560.63	-17.9191
1560.89	-3.93597
1561.15	16.0505
1561.41	22.0693
1561.67	23.1299
1561.93	-16.737
1562.19	-1.58981
1562.46	9.57602
1562.72	-2.39386
1562.98	-7.38913
1563.24	17.6026
1563.5	-25.3499
1563.76	29.6341
1564.02	46.631
1564.29	-13.1788
1564.55	40.057
1564.81	1.11664
1565.07	49.1468
1565.33	-41.1254
1565.59	4.09354
1565.85	21.9219
1566.11	25.3202
1566.38	13.3638
1566.64	18.9618
1566.9	24.7417
1567.16	-19.5002
1567.42	-11.1151
1567.68	0.317474
1567.94	2.23978
1568.2	20.9373
1568.47	-11.9682
1568.73	15.1203
1568.99	33.1815
1569.25	-1.83261
1569.51	6.02313
1569.77	21.9402
1570.03	1.98639
1570.29	4.05042
1570.55	-6.90399
1570.82	12.1199
1571.08	1.14597
1571.34	16.1443
1571.6	3.13928
1571.86	-6.89587
1572.12	4.04056
1572.38	11.0468
1572.64	23.0016
1572.9	-13.0126
1573.17	-8.05701
1573.43	1.8909
1573.69	-56.0485
1573.95	1.80759
1574.21	6.83655
1574.47	-13.0143
1574.73	6.08746
1574.99	21.2078
1575.25	-3.61447
1575.51	-18.4628
1575.78	12.6262
1576.04	30.6667
1576.3	0.681335
1576.56	11.6942
1576.82	10.6707
1577.08	7.55585
1577.34	0.416473
1577.6	7.26697
1577.86	-6.83453
1578.12	2.02869
1578.38	9.89828
1578.64	-12.0932
1578.9	-16.0782
1579.17	17.8427
1579.43	0.920624
1579.69	-0.042511
1579.95	28.926
1580.21	-4.87607
1580.47	19.1194
1580.73	19.1582
1580.99	-2.76971
1581.25	13.1607
1581.51	23.085
1581.77	-26.7876
1582.03	37.9329
1582.29	-6.9798
1582.55	24.8981
1582.81	25.8904
1583.07	-8.98276
1583.33	-11.967
1583.59	12.951
1583.85	0.0203857
1584.11	8.96786
1584.38	5.01367
1584.64	15.0442
1584.9	33.0355
1585.16	-6.7594
1585.42	20.1615
1585.68	-9.71667
1585.94	-7.7056
1586.2	13.1961
1586.46	30.0439
1586.72	30.9495
1586.98	-8.91922
1587.24	-8.94858
1587.5	-28.8671
1587.76	-20.9138
1588.02	-1.00638
1588.28	17.9311
1588.54	12.0306
1588.8	22.0659
1589.06	10.2239
1589.32	-14.5724
1589.58	11.3981
1589.84	33.3757
1590.1	31.4325
1590.36	-3.38504
1590.62	9.62656
1590.88	29.6286
1591.14	-9.13577
1591.4	46.6519
1591.66	16.8031
1591.92	2.86078
1592.18	16.7843
1592.44	25.6691
1592.7	-4.30783
1592.96	3.57697
1593.22	0.553009
1593.48	34.2277
1593.74	21.1414
1594	2.0957
1594.26	-13.8851
1594.52	5.95126
1594.78	4.98959
1595.04	22.9563
1595.3	-0.760864
1595.56	-1.6618
1595.82	24.206
1596.08	1.17456
1596.34	4.17603
1596.6	1.22729
1596.86	-15.6219
1597.12	-3.65448
1597.38	9.3223
1597.64	3.43457
1597.9	-8.41605
1598.16	22.4025
1598.42	16.428
1598.68	-8.45471
1598.94	-0.600433
1599.2	8.25473
1599.46	19.1176
1599.72	14.1072
1599.98	22.9893
1600.24	22.9398
1600.5	-4.87833
1600.76	-8.90018
1601.02	-3.02951
1601.28	38.4887
1601.54	26.4678
1601.8	9.50592
1602.06	26.246
1602.32	-32.2321
1602.58	-3.57779
1602.84	-0.674194
1603.1	4.19464
1603.36	20.9404
1603.62	-2.8504
1603.88	8.00174
1604.14	8.98431
1604.4	17.9044
1604.66	30.7986
1604.92	33.8117
1605.17	21.9841
1605.43	0.273926
1605.69	-0.665161
1605.95	21.161
1606.21	26.1943
1606.47	-18.2214
1606.73	-2.3031
1606.99	-24.9782
1607.25	14.7151
1607.51	16.799
1607.77	22.7391
1608.03	2.38721
1608.29	-3.02719
1608.55	-2.1709
1608.81	26.7476
1609.07	-7.7894
1609.32	-5.92432
1609.58	27.9086
1609.84	20.2495
1610.1	-14.4507
1610.36	-16.9745
1610.62	-28.6349
1610.88	-3.86832
1611.14	-37.2351
1611.4	5.4534
1611.66	23.819
1611.92	-18.539
1612.18	-26.764
1612.44	17.2729
1612.69	-0.390228
1612.95	8.47797
1613.21	-10.3127
1613.47	18.9435
1613.73	18.7156
1613.99	-9.67639
1614.25	24.2337
1614.51	-6.42941
1614.77	-5.7403
1615.03	-7.58618
1615.29	13.9304
1615.54	2.81226
1615.8	-4.76221
1616.06	-16.8211
1616.32	13.4608
1616.58	3.54333
1616.84	2.20462
1617.1	-1.04251
1617.36	1.90372
1617.62	23.0448
1617.88	17.8974
1618.13	-16.2497
1618.39	-3.7847
1618.65	7.50098
1618.91	-2.56238
1619.17	8.07962
1619.43	8.64169
1619.69	0.356598
1619.95	7.32889
1620.2	4.98676
1620.46	11.1251
1620.72	5.36459
1620.98	4.6705
1621.24	-9.11005
1621.5	1.12344
1621.76	8.21057
1622.02	5.85797
1622.27	0.314148
1622.53	-14.1349
1622.79	-7.67776
1623.05	-7.38519
1623.31	-7.84384
1623.57	7.05423
1623.83	10.5972
1624.09	19.6233
1624.34	15.1565
1624.6	-2.32364
1624.86	-7.96954
1625.12	-4.84232
1625.38	-0.725311
1625.64	-5.58325
1625.9	-9.12964
1626.15	1.59766
1626.41	3.73822
1626.67	-8.65244
1626.93	9.41638
1627.19	11.7879
1627.45	9.51599
1627.7	15.6646
1627.96	26.7414
1628.22	14.6851
1628.48	-9.39273
1628.74	-15.1951
1629	4.54617
1629.26	9.396
1629.51	-12.5764
1629.77	-0.957733
1630.03	6.64679
1630.29	-6.8551
1630.55	-27.0395
1630.81	-11.8969
1631.06	14.8921
1631.32	-15.3891
1631.53	14.6707
1631.79	8.86542
1632.05	10.9563
1632.31	-12.5817
1632.57	-16.5104
1632.84	19.132
1633.1	-12.1577
1633.36	17.2999
1633.62	23.9951
1633.88	-6.56641
1634.14	-5.4834
1634.4	-15.2338
1634.66	12.4232
1634.93	-31.8854
1635.19	15.4574
1635.45	-9.16614
1635.71	12.5262
1635.97	-0.287048
1636.23	22.3678
1636.49	35.1553
1636.75	4.59076
1637.02	23.2813
1637.28	-36.836
1637.54	18.2693
1637.8	-11.2762
1638.06	33.0513
1638.32	24.1832
1638.58	-18.1584
1638.84	-11.2646
1639.1	-5.31763
1639.37	13.4227
1639.63	49.875
1639.89	-34.7455
1640.15	-43.5753
1640.41	-11.072
1640.67	15.5547
1640.93	14.6937
1641.19	-16.7172
1641.46	4.99979
1641.72	-36.3505
1641.98	-12.7294
1642.24	3.0278
1642.5	-19.6015
1642.76	31.6047
1643.02	0.120941
1643.28	-11.67
1643.54	-8.69077
1643.8	13.9724
1644.06	-3.74429
1644.33	-3.75613
1644.59	26.7132
1644.85	19.8007
1645.11	11.952
1645.37	-15.5242
1645.63	-16.4147
1645.89	16.129
1646.15	8.2991
1646.41	-0.565521
1646.67	-7.46902
1646.93	8.26184
1647.19	20.0734
1647.46	13.1772
1647.72	21.0317
1647.98	27.9101
1648.24	31.8706
1648.5	-4.46204
1648.76	-21.0704
1649.02	23.3206
1649.28	-2.00095
1649.54	4.03012
1649.8	-6.81073
1650.06	2.03607
1650.32	24.7093
1650.58	6.17728
1650.85	-1.55594
1651.11	-32.9588
1651.37	-18.0646
1651.63	-0.235809
1651.89	23.4769
1652.15	-0.134583
1652.41	16.6561
1652.67	7.84268
1652.93	-21.7276
1653.19	2.89047
1653.45	12.7556
1653.71	-25.63
1653.97	10.8822
1654.23	-24.5096
1654.49	11.0315
1654.75	26.8557
1655.01	-10.527
1655.27	-9.44925
1655.53	-17.2126
1655.8	21.411
1656.06	-20.8083
1656.32	25.711
1656.57	16.9389
1656.84	-4.69821
1657.1	7.20493
1657.36	-17.4479
1657.62	5.25391
1657.88	-2.65314
1658.14	51.6324
1658.4	0.320038
1658.66	9.18973
1658.92	5.21719
1659.18	25.9037
1659.44	-3.71631
1659.7	10.0621
1659.96	0.172455
1660.22	8.98581
1660.48	9.06036
1660.74	34.7909
1661	-5.52875
1661.26	1.49069
1661.52	-10.2265
1661.78	25.4216
1662.04	-24.8282
1662.3	7.80841
1662.56	-5.38095
1662.82	-20.3259
1663.08	-14.9061
1663.34	17.5132
1663.6	36.2755
1663.86	2.59946
1664.12	-0.247375
1664.38	16.0478
1664.64	-11.4455
1664.9	-26.1802
1665.16	-4.203
1665.42	21.6124
1665.68	19.1772
1665.94	-44.3215
1666.2	-6.68716
1666.46	27.065
1666.72	-5.57529
1666.98	19.5261
1667.24	18.1362
1667.5	-21.9361
1667.76	-2.24982
1668.02	-11.1662
1668.28	18.4286
1668.54	19.3762
1668.8	-17.0787
1669.06	-9.94101
1669.32	0.216614
1669.58	3.26556
1669.84	25.0435
1670.1	46.83
1670.36	4.34686
1670.62	37.9662
1670.88	-6.21777
1671.14	-20.8635
1671.4	5.82001
1671.66	3.84601
1671.92	-0.0890808
1672.18	-16.8346
1672.44	-2.92148
1672.69	-1.88068
1672.95	14.9598
1673.21	33.7772
1673.47	-13.6217
1673.73	21.0352
1673.99	12.2065
1674.25	-24.2927
1674.51	8.43555
1674.77	-0.372681
1675.03	-25.9965
1675.29	17.6518
1675.55	-9.9469
1675.81	-21.7467
1676.07	6.99637
1676.33	-18.7032
1676.59	28.853
1676.85	15.0593
1677.11	-7.65433
1677.37	17.1203
1677.63	25.0498
1677.89	9.21204
1678.14	-7.63446
1678.4	-8.66946
1678.66	35.7822
1678.92	11.0122
1679.18	0.111542
1679.44	10.9705
1679.7	-16.7086
1679.96	-11.7719
1680.22	20.8372
1680.48	9.96918
1680.74	-11.7789
1681	16.8694
1681.26	13.9028
1681.52	20.834
1681.78	-10.75
1682.03	8.05392
1682.29	23.8975
1682.55	3.19284
1682.81	21.0229
1683.07	-22.4265
1683.33	20.078
1683.59	-4.58691
1683.85	-0.598572
1684.11	28.0745
1684.37	29.07
1684.63	2.36996
1684.89	36.9348
1685.14	7.32269
1685.4	-13.3916
1685.66	32.0607
1685.92	-26.1638
1686.18	-5.38669
1686.44	9.47296
1686.7	9.54712
1686.96	27.4558
1687.22	13.7107
1687.48	16.7219
1687.73	-2.04398
1687.99	-14.8976
1688.25	-7.00754
1688.51	7.80212
1688.77	7.79114
1689.03	3.81448
1689.29	9.68051
1689.55	14.5769
1689.81	35.2558
1690.06	28.2953
1690.32	22.3106
1690.58	3.58008
1690.84	14.5702
1691.1	34.3981
1691.36	12.7704
1691.62	-1.97009
1691.88	54.3644
1692.13	12.0066
1692.39	-13.616
1692.65	39.6905
1692.91	39.6581
1693.17	40.5911
1693.43	14.8755
1693.69	19.7216
1693.95	-11.9223
1694.2	-0.143433
1694.46	41.1948
1694.72	3.69562
1694.98	-0.271667
1695.24	17.4896
1695.5	15.5833
1695.76	-10.9532
1696.01	14.7238
1696.27	6.90994
1696.53	-11.7147
1696.79	14.971
1697.05	29.7871
1697.31	52.4451
1697.57	20.8643
1697.82	37.5293
1698.08	26.6097
1698.34	6.85928
1698.6	-20.7415
1698.86	-0.104889
1699.12	5.77719
1699.38	-16.849
1699.63	-7.96722
1699.89	25.5494
1700.15	19.6863
1700.41	8.90652
1700.67	-20.6534
1700.92	12.8147
1701.18	-9.79495
1701.44	-8.79855
1701.7	5.9549
1701.96	30.5067
1702.22	-5.92963
1702.47	11.7263
1702.73	1.84576
1702.99	-5.07617
1703.25	10.6583
1703.51	2.82178
1703.77	32.3072
1704.02	-19.772
1704.28	14.6245
1704.54	0.946991
1704.8	-4.85406
1705.06	10.919
1705.32	13.8823
1705.57	-22.4644
1705.83	-12.6022
1706.09	8.06863
1706.35	12.9485
1706.61	4.05014
1706.86	-15.6555
1707.12	23.5457
1707.38	40.1545
1707.64	21.4449
1707.9	-3.16544
1708.16	3.59995
1708.41	-1.40372
1708.67	-10.3246
1708.93	11.1117
1709.19	17.86
1709.44	-29.2064
1709.7	-10.6286
1709.96	-3.76935
1710.22	41.2912
1710.48	33.5052
1710.73	23.7663
1710.99	0.342773
1711.25	22.9656
1711.51	-13.1897
1711.77	13.3278
1712.02	1.64383
1712.28	-13.9853
1712.54	12.4485
1712.8	-5.26382
1713.06	14.1715
1713.31	-9.46301
1713.57	15.8299
1713.83	13.7492
1714.09	6.77737
1714.34	8.6868
1714.6	-6.96249
1714.86	7.68558
1715.12	16.4868
1715.38	9.67807
1715.63	7.83597
1715.89	20.6708
1716.15	11.9099
1716.41	18.7482
1716.66	33.3722
1716.92	17.6828
1717.18	-5.84116
1717.44	18.4461
1717.69	22.1947
1717.95	-16.0243
1718.21	3.3244
1718.47	16.8346
1718.72	-5.67926
1718.98	29.3186
1719.24	0.0872803
1719.5	34.1918
1719.75	2.09268
1720.01	-18.3415
1720.27	-16.3286
1720.53	12.9353
1720.78	18.7688
1721.04	8.98901
1721.3	7.9321
1721.56	8.84775
1721.81	5.87686
1722.07	2.89551
1722.33	-1.06561
1722.59	14.4117
1722.84	3.64484
1723.1	-11.9676
1723.36	-21.7349
1723.62	12.2214
1723.87	-15.9554
1724.13	-7.18491
1724.39	30.6826
1724.64	5.45023
1724.9	-0.409485
1725.16	0.483307
1725.42	12.9614
1725.67	-1.70755
1725.93	-24.1305
1726.19	26.202
1726.45	9.70853
1726.7	-8.63712
1726.96	-2.81949
1727.22	10.7169
1727.47	5.75287
1727.73	17.3995
1727.99	-3.77121
1728.24	17.5485
1728.5	2.98038
1728.76	40.611
1729.02	-3.51077
1729.27	20.0018
1729.53	27.5011
1729.79	-1.1622
1730.05	-17.3232
1730.3	15.7244
1730.56	-11.5498
1730.82	-4.87115
1731.07	10.5675
1731.33	-2.43008
1731.59	-3.33252
1731.84	13.1404
1732.1	-6.16357
1732.36	-28.3806
1732.61	18.9638
1732.87	27.6458
1733.13	16.985
1733.39	27.5493
1733.64	26.4796
1733.9	24.4037
1734.16	3.98917
1734.41	2.9278
1734.67	-13.563
1734.93	7.54242
1735.18	36.341
1735.44	-13.8597
1735.7	8.20578
1735.95	-5.32898
1736.21	20.6307
1736.47	0.411041
1736.72	-0.560913
1736.98	4.2283
1737.24	-16.9632
1737.49	-9.29266
1737.75	11.8467
1738.01	42.6017
1738.26	31.0146
1738.52	-13.2721
1738.78	-2.75208
1739.03	2.95892
1739.29	24.0267
1739.55	22.0093
1739.8	35.3163
1740.06	13.0694
1740.32	3.32309
1740.57	15.6598
1740.83	1.17575
1741.09	-3.68704
1741.34	22.1219
1741.6	-7.63962
1741.86	21.9987
1742.11	13.3402
1742.37	1.8381
1742.63	-9.64197
1742.88	-18.2576
1743.14	31.5107
1743.4	15.2437
1743.65	-1.96323
1743.91	-10.5852
1744.16	-2.98166
1744.42	32.3769
1744.68	-0.180908
1744.93	-16.438
1745.19	19.9417
1745.45	-14.4514
1745.7	16.191
1745.96	23.8535
1746.22	2.79086
1746.47	14.2122
1746.73	-5.94269
1746.98	-11.7691
1747.24	-3.23328
1747.5	-17.6475
1747.75	11.8942
1748.01	-13.9514
1748.27	21.3539
1748.52	4.1951
1748.78	-8.17505
1749.03	14.7859
1749.29	-9.9718
1749.55	-2.25204
1749.8	-2.14929
1750.06	8.47424
1750.32	-4.76794
1750.57	-12.2806
1750.83	6.95724
1751.08	16.5849
1751.34	-13.9224
1751.6	-31.0857
1751.85	-16.7647
1752.11	19.4653
1752.36	11.72
1752.62	-23.687
1752.88	-7.50641
1753.13	10.5711
1753.39	18.1423
1753.64	2.82236
1753.9	0.873932
1754.15	-2.02393
1754.41	-24.0216
1754.67	-18.3564
1754.92	1.63541
1755.18	-9.83099
1755.43	-6.03323
1755.69	8.24228
1755.95	27.26
1756.2	-9.0061
1756.46	7.11609
1756.71	8.93707
1756.97	-11.1606
1757.23	-6.50272
1757.48	5.77536
1757.74	19.0721
1757.99	-6.62903
1758.25	17.2086
1758.5	12.6157
1758.76	11.7379
1759.02	-1.54056
1759.27	-0.551239
1759.53	1.39038
1759.78	10.0097
1760.04	18.5997
1760.3	22.4051
1760.55	12.8845
1760.81	31.9027
1761.06	7.14914
1761.32	-29.0306
1761.57	24.174
1761.83	10.8157
1762.08	16.498
1762.34	12.6943
1762.6	-12.0049
1762.85	27.0766
1763.11	10.9957
1763.36	2.47977
1763.62	7.2475
1763.87	20.6054
1764.13	-39.2371
1764.38	-19.1933
1764.64	13.264
1764.89	-8.42593
1765.15	-1.66599
1765.4	2.2298
1765.66	-3.40936
1765.92	22.356
1766.17	13.8358
1766.43	6.25259
1766.68	17.6948
1766.94	0.556213
1767.19	1.51022
1767.45	-1.32022
1767.7	-4.17886
1767.96	-1.3501
1768.21	-15.6559
1768.47	-22.3317
1768.73	-9.96719
1768.98	0.49823
1769.24	17.4708
1769.49	11.5552
1769.75	-4.78622
1770	19.7889
1770.26	0.841797
1770.51	44.6648
1770.77	-13.1389
1771.02	-34.9514
1771.28	26.8673
1771.53	4.21063
1771.79	-15.5692
1772.04	18.7462
1772.3	-2.11859
1772.55	3.68945
1772.81	2.85696
1773.06	-10.366
1773.32	23.0211
1773.57	-10.2043
1773.83	-0.611786
1774.08	25.1607
1774.34	9.99619
1774.59	29.0932
1774.85	6.29614
1775.1	13.0534
1775.36	32.1652
1775.61	23.7056
1775.87	-8.45865
1776.12	23.1352
1776.38	18.4576
1776.63	11.832
1776.89	32.815
1777.14	13.7245
1777.4	-8.23999
1777.65	6.03946
1777.91	13.6152
1778.16	10.7098
1778.42	27.8031
1778.67	-22.7161
1778.93	10.5502
1779.18	5.70691
1779.44	-1.04321
1779.69	-1.08237
1779.95	-23.8914
1780.2	25.7387
1780.46	35.3185
1780.71	16.3469
1780.97	28.7903
1781.22	-4.45264
1781.47	-19.6455
1781.73	-1.50897
1781.98	-18.5791
1782.24	-18.4931
1782.49	-4.11118
1782.75	9.35516
1783	1.82913
1783.26	-3.80807
1783.51	-3.73178
1783.77	28.7607
1784.02	14.5505
1784.28	17.5047
1784.53	7.12485
1784.79	-0.366119
1785.04	16.9023
1785.29	22.6937
1785.55	14.1363
1785.8	-24.974
1786.06	3.63348
1786.31	-6.87494
1786.57	-17.3315
1786.82	20.8922
1787.08	25.7644
1787.33	2.98572
1787.58	-20.7328
1787.84	15.7384
1788.09	10.2987
1788.35	7.73846
1788.6	-33.1016
1788.86	41.7586
1789.11	22.7201
1789.37	-3.95959
1789.62	17.3038
1789.87	9.77869
1790.13	10.8225
1790.38	13.7839
1790.64	-3.38513
1790.89	-24.4428
1791.15	15.8305
1791.4	15.7606
1791.65	13.6055
1791.91	17.4277
1792.16	15.498
1792.42	14.5747
1792.67	4.08698
1792.93	-6.39661
1793.18	14.7601
1793.43	6.20392
1793.69	1.45364
1793.94	4.36078
1794.2	-5.13586
1794.45	-1.25793
1794.7	11.2195
1794.96	-2.23126
1795.21	-14.5422
1795.47	29.9218
1795.72	11.9516
1795.97	14.0136
1796.23	9.3118
1796.48	-18.4271
1796.74	20.0942
1796.99	20.2103
1797.25	-2.73071
1797.5	6.9863
1797.75	12.8508
1798.01	-3.40497
1798.26	2.4386
1798.51	1.54474
1798.77	-12.8251
1799.02	25.6689
1799.28	-6.05829
1799.53	12.1912
1799.78	-1.30682
1800.04	-3.28394
1800.29	-8.13696
1800.55	11.0465
1800.8	-47.5778
1801.05	-2.43677
1801.31	-4.35577
1801.56	1.42108
1801.81	-4.31467
1802.07	10.1356
1802.32	-9.02002
1802.58	38.122
1802.83	18.0324
1803.08	27.7436
1803.34	1.90765
1803.59	7.7948
1803.84	-22.8738
1804.1	31.0446
1804.35	43.5992
1804.61	22.5249
1804.86	-2.37827
1805.11	15.047
1805.37	-3.11551
1805.62	21.084
1805.87	37.5897
1806.13	-12.3697
1806.38	18.5573
1806.64	28.2891
1806.89	33.1953
1807.14	-3.36029
1807.4	-4.28311
1807.65	-18.7094
1807.9	9.26862
1808.16	26.649
1808.41	44.0325
1808.66	21.9014
1808.92	4.59116
1809.17	6.56097
1809.42	4.67603
1809.68	-4.92331
1809.93	27.8992
1810.18	13.4825
1810.44	21.2367
1810.69	-2.83688
1810.94	7.7738
1811.2	19.3473
1811.45	8.76184
1811.7	11.6704
1811.96	13.6183
1812.21	-4.6683
1812.46	6.9469
1812.72	26.3034
1812.97	19.6417
1813.22	13.9585
1813.48	1.5061
1813.73	34.3585
1813.98	17.0805
1814.24	-1.13358
1814.49	15.4156
1814.74	20.3913
1815	12.8344
1815.25	-10.2446
1815.5	14.0034
1815.76	-11.0616
1816.01	17.0129
1816.26	17.0586
1816.52	-1.25839
1816.77	-7.00488
1817.02	23.0182
1817.27	14.3173
1817.53	36.5098
1817.78	30.5251
1818.03	13.0151
1818.29	-1.42636
1818.54	14.1291
1818.79	-12.7841
1819.05	1.80103
1819.3	22.0978
1819.55	-20.369
1819.8	26.0986
1820.06	12.6425
1820.31	20.4406
1820.56	-2.68909
1820.82	13.8315
1821.07	-21.881
1821.32	-1.50729
1821.58	7.28046
1821.83	0.600006
1822.08	29.7152
1822.33	-7.95248
1822.59	18.2429
1822.84	14.425
1823.09	20.2816
1823.34	8.71021
1823.6	-8.69931
1823.85	-3.87064
1824.1	1.91855
1824.36	25.16
1824.61	16.5077
1824.86	21.4105
1825.11	4.04593
1825.37	12.8257
1825.62	26.4527
1825.87	15.8564
1826.12	23.636
1826.38	25.5942
1826.63	21.7523
1826.88	6.29214
1827.14	-12.0764
1827.39	49.9622
1827.64	28.7192
1827.89	29.761
1828.15	-12.8028
1828.4	45.3572
1828.65	7.57544
1828.9	12.4007
1829.16	-8.94781
1829.41	28.8102
1829.66	-20.5787
1829.91	-1.20166
1830.17	0.733826
1830.42	0.707214
1830.67	45.2204
1830.92	15.1825
1831.18	12.3023
1831.43	4.6268
1831.68	1.8013
1831.93	8.66141
1832.19	-7.729
1832.44	18.5023
1832.69	16.6485
1832.94	14.8203
1833.2	-10.2961
1833.45	23.6587
1833.7	28.5377
1833.95	7.27463
1834.2	34.4612
1834.46	37.4226
1834.71	7.28027
1834.96	30.3291
1835.21	6.8913
1835.47	10.589
1835.72	19.1921
1835.97	-7.98914
1836.22	14.2741
1836.48	18.0645
1836.73	29.5591
1836.98	17.8737
1837.23	6.64578
1837.48	21.972
1837.74	21.6822
1837.99	47.5616
1838.24	11.3392
1838.49	-0.496307
1838.74	12.9984
1839	33.0951
1839.25	33.4429
1839.5	13.2863
1839.75	27.9034
1840	35.7379
1840.26	10.6685
1840.51	37.4146
1840.76	-6.43149
1841.01	15.5918
1841.27	-2.00647
1841.52	24.8743
1841.77	2.48425
1842.02	9.09421
1842.27	33.0868
1842.53	5.94171
1842.78	27.0403
1843.03	4.95224
1843.28	39.6538
1843.53	40.6907
1843.78	10.8008
1844.04	38.7957
1844.29	26.2289
1844.54	23.3529
1844.79	25.3572
1845.04	1.26965
1845.3	14.7239
1845.55	20.5482
1845.8	9.9617
1846.05	31.3873
1846.3	16.1571
1846.55	3.79199
1846.81	9.90631
1847.06	8.72348
1847.31	4.27682
1847.56	0.700684
1847.81	-5.19244
1848.07	16.0131
1848.32	-9.75317
1848.57	15.5078
1848.82	16.2694
1849.07	15.211
1849.32	-6.90152
1849.57	-8.88754
1849.83	-31.1194
1850.08	15.9214
1850.33	6.19568
1850.58	10.864
1850.83	20.3693
1851.09	5.86133
1851.34	62.4706
1851.59	5.72925
1851.84	10.4886
1852.09	13.345
1852.34	18.1448
1852.59	1.83591
1852.84	6.65692
1853.1	11.4757
1853.35	23.0049
1853.6	13.3943
1853.85	3.7655
1854.1	-3.97659
1854.35	-0.233948
1854.6	18.8356
1854.86	12.9767
1855.11	13.8873
1855.36	-11.0859
1855.61	26.1941
1855.86	0.198578
1856.11	15.4663
1856.36	6.82529
1856.61	-5.6301
1856.87	3.00867
1857.12	25.0539
1857.37	-29.5402
1857.62	5.87836
1857.87	13.5074
1858.12	8.68582
1858.37	-27.7401
1858.63	2.82779
1858.88	22.8457
1859.13	1.715
1859.38	-2.19424
1859.63	20.667
1859.88	23.4765
1860.13	12.9675
1860.38	3.42725
1860.63	-11.8265
1860.89	21.7368
1861.14	-8.77539
1861.39	2.78134
1861.64	3.8342
1861.89	19.2296
1862.14	-1.78311
1862.39	33.6198
1862.64	-0.874451
1862.9	7.66373
1863.15	31.4902
1863.4	17.0596
1863.65	22.7132
1863.9	-2.21225
1864.15	-25.2077
1864.4	-3.28873
1864.65	-9.0748
1864.9	3.28519
1865.15	-7.28729
1865.4	-0.692139
1865.66	33.5557
1865.91	30.5615
1866.16	10.3827
1866.41	14.035
1866.66	12.9156
1866.91	18.4683
1867.16	12.5922
1867.41	14.3374
1867.66	-1.97888
1867.91	15.9849
1868.16	-1.18765
1868.41	-8.82333
1868.67	-8.83459
1868.92	-10.7127
1869.17	-12.5763
1869.42	-8.76022
1869.67	10.248
1869.92	1.68256
1870.17	8.3287
1870.42	4.52139
1870.67	4.51691
1870.92	2.61548
1871.17	23.5303
1871.42	11.1848
1871.67	1.66711
1871.92	-13.567
1872.17	1.5813
1872.42	7.24701
1872.68	6.27136
1872.93	-1.3873
1873.18	34.6249
1873.43	-2.44501
1873.68	15.5891
1873.93	5.12918
1874.18	15.5263
1874.43	11.6654
1874.68	-2.64407
1874.93	23.8267
1875.18	12.3515
1875.43	-19.0327
1875.68	0.77417
1875.93	33.7998
1876.18	20.3122
1876.43	2.18436
1876.68	10.5889
1876.93	13.3398
1877.18	1.94421
1877.43	-9.59235
1877.68	3.40616
1877.93	19.9332
1878.18	-13.7006
1878.44	-8.44272
1878.69	14.6742
1878.93	-6.31866
1879.19	12.5661
1879.44	23.4019
1879.69	3.72256
1879.94	-12.4902
1880.19	20.5425
1880.44	39.4721
1880.69	6.32083
1880.94	18.7407
1881.19	23.3925
1881.44	31.906
1881.69	9.97113
1881.94	-0.627686
1882.19	-6.49182
1882.44	-4.8049
1882.69	23.3032
1882.94	3.19705
1883.19	-1.62366
1883.44	16.0028
1883.69	26.4515
1883.94	-10.3939
1884.19	44.1717
1884.44	-3.8432
1884.69	1.12927
1884.94	-3.78937
1885.19	23.7223
1885.44	13.5853
1885.69	-9.92715
1885.94	16.5606
1886.19	17.7301
1886.44	-26.5377
1886.69	5.64926
1886.94	36.786
1887.19	30.0039
1887.44	0.661743
1887.69	10.0152
1887.94	5.20895
1888.19	25.8638
1888.44	19.154
1888.69	-13.9874
1888.94	14.1512
1889.19	1.78586
1889.44	-15.276
1889.69	24.2087
1889.94	-1.20929
1890.19	2.55014
1890.44	3.54413
1890.69	-6.70474
1890.94	17.8907
1891.19	17.9344
1891.43	9.45523
1891.68	-5.63821
1891.94	36.7477
1892.18	20.7227
1892.43	19.7715
1892.68	19.7693
1892.93	35.726
1893.18	14.9382
1893.43	19.5035
1893.68	-9.87732
1893.93	-15.7004
1894.18	7.76129
1894.43	11.603
1894.68	13.3415
1894.93	32.0689
1895.18	-29.0161
1895.43	3.88971
1895.68	-8.28006
1895.93	-3.52698
1896.18	-4.40488
1896.43	6.94006
1896.68	-6.13885
1896.93	-4.16617
1897.18	-29.4738
1897.42	8.21042
1897.68	44.007
1897.92	2.65213
1898.17	-21.794
1898.42	2.65094
1898.67	-12.4327
1898.92	10.0788
1899.17	-40.7713
1899.42	29.6381
1899.67	23.9286
1899.92	2.28424
1900.17	12.5782
1900.42	-17.523
1900.67	17.2319
1900.92	7.86462
1901.16	4.1622
1901.41	10.8217
1901.66	49.4563
1901.91	-20.9427
1902.16	-18.9701
1902.41	2.76587
1902.66	11.3339
1902.91	24.5211
1903.16	28.2589
1903.41	2.83231
1903.66	-3.78769
1903.91	18.7563
1904.16	12.1588
1904.41	7.45038
1904.65	6.50964
1904.9	-1.01401
1905.15	0.856262
1905.4	-11.3691
1905.65	3.67822
1905.9	6.48685
1906.15	12.9597
1906.4	4.37103
1906.65	6.20432
1906.9	0.531799
1907.14	3.31921
1907.39	-12.6622
1907.64	-2.31647
1907.89	-6.97589
1908.14	17.5089
1908.39	4.4501
1908.64	2.6181
1908.89	4.5329
1909.14	-9.50629
1909.39	8.42566
1909.63	14.1627
1909.88	-2.64221
1910.13	-23.1996
1910.38	-4.24268
1910.63	2.49973
1910.88	-21.839
1911.13	-7.61371
1911.38	-8.48038
1911.62	9.46835
1911.87	18.917
1912.12	1.9697
1912.37	17.9657
1912.62	22.6571
1912.87	-23.4911
1913.12	-14.0622
1913.37	-15.9331
1913.61	20.8262
1913.86	-4.53146
1914.11	22.9239
1914.36	-4.26309
1914.61	38.2708
1914.86	13.8567
1915.11	-3.96109
1915.36	-30.286
1915.6	-23.6151
1915.85	0.953766
1916.1	-9.42456
1916.35	-0.0110779
1916.6	12.2435
1916.85	12.1943
1917.1	28.1496
1917.34	-0.206635
1917.59	-2.1412
1917.84	-15.3717
1918.09	-5.95761
1918.34	5.37704
1918.59	-3.9826
1918.83	7.43579
1919.08	-8.478
1919.33	37.8925
1919.58	-22.3653
1919.83	6.13779
1920.08	-3.15051
1920.33	2.6073
1920.57	-5.86737
1920.82	-14.4069
1921.07	-14.3694
1921.32	7.48083
1921.57	-14.1421
1921.81	6.73114
1922.06	3.0174
1922.31	-9.22983
1922.56	14.4256
1922.81	-3.56552
1923.06	26.6405
1923.31	19.9702
1923.55	-14.0929
1923.8	15.1887
1924.05	-12.2509
1924.3	4.71408
1924.55	-15.1925
1924.79	9.33334
1925.04	20.664
1925.29	18.8021
1925.54	20.7583
1925.79	7.62811
1926.04	36.1284
1926.28	-13.8578
1926.53	2.33496
1926.78	34.6291
1927.03	-22.0098
1927.28	16.8953
1927.52	-4.80673
1927.77	21.7755
1928.02	-3.73135
1928.27	-19.7769
1928.52	-15.9356
1928.76	33.3667
1929.01	41.015
1929.26	6.02075
1929.51	3.254
1929.76	-15.6052
1930	33.8399
1930.25	-4.92798
1930.5	0.898315
1930.75	4.8042
1931	29.6086
1931.24	43.8935
1931.49	48.6632
1931.74	0.218811
1931.99	6.8201
1932.24	-6.51434
1932.48	21.9091
1932.73	-4.70996
1932.98	9.46759
1933.23	-17.1055
1933.47	25.5375
1933.72	-7.62845
1933.97	10.5265
1934.22	2.1958
1934.46	-2.27606
1934.71	-23.7758
1934.96	-5.35504
1935.21	-1.23593
1935.46	30.4721
1935.7	-1.72
1935.95	20.3633
1936.2	14.3692
1936.45	-18.0685
1936.69	23.8479
1936.94	23.8022
1937.19	20.8639
1937.44	21.7203
1937.68	11.1649
1937.93	25.3668
1938.18	1.49881
1938.43	12.8442
1938.68	22.3667
1938.92	-13.6525
1939.17	-13.5964
1939.42	27.4228
1939.67	3.69284
1939.91	-5.77103
1940.16	1.92648
1940.41	18.1503
1940.66	7.77945
1940.9	-6.40924
1941.15	-10.9042
1941.4	-18.3769
1941.64	-24.0945
1941.89	12.1231
1942.14	2.4433
1942.39	48.9153
1942.63	9.9921
1942.88	14.2482
1943.13	9.58249
1943.38	16.2922
1943.62	-2.00693
1943.87	1.63458
1944.12	3.40878
1944.37	8.45044
1944.61	18.0947
1944.86	-14.2696
1945.11	-10.3508
1945.35	-7.37814
1945.6	-4.40424
1945.85	10.0391
1946.1	-8.97882
1946.34	25.5247
1946.59	7.4299
1946.84	24.6992
1947.09	3.69211
1947.33	29.5149
1947.58	39.0486
1947.83	32.3168
1948.07	8.40866
1948.32	17.9751
1948.57	2.68002
1948.82	30.3831
1949.06	16.0694
1949.31	36.2379
1949.56	-5.75311
1949.8	9.64859
1950.05	1.14914
1950.3	21.3679
1950.54	33.0491
1950.79	3.55759
1951.04	-2.039
1951.29	11.5511
1951.53	26.121
1951.78	14.7794
1952.03	-6.20273
1952.27	-1.31458
1952.52	8.35736
1952.77	-0.211456
1953.01	23.7904
1953.26	19.0739
1953.51	20.151
1953.76	-14.541
1954	-13.7227
1954.25	10.98
1954.49	-0.756134
1954.74	6.70395
1954.99	14.1864
1955.24	-0.236694
1955.48	-2.15979
1955.73	13.225
1955.98	34.4299
1956.22	11.6188
1956.47	22.4765
1956.72	23.5655
1956.96	23.7128
1957.21	24.7556
1957.46	-1.06683
1957.7	21.1208
1957.95	-8.57593
1958.2	-1.78479
1958.44	3.06943
1958.69	-7.46671
1958.94	20.4361
1959.18	28.0971
1959.43	17.449
1959.68	5.88327
1959.92	15.4825
1960.17	2.93533
1960.42	-9.6102
1960.66	-1.9808
1960.91	-3.00333
1961.16	-19.3941
1961.4	15.0992
1961.65	12.1615
1961.9	26.52
1962.14	26.5409
1962.39	27.5323
1962.63	13.1591
1962.88	11.2646
1963.13	-5.02896
1963.37	-0.206787
1963.62	1.73401
1963.87	0.795319
1964.11	7.54221
1964.36	-5.84219
1964.61	21.0958
1964.85	21.0947
1965.1	29.709
1965.35	19.1619
1965.59	-28.857
1965.84	14.3663
1966.08	8.65302
1966.33	27.9497
1966.58	-5.57132
1966.82	8.9389
1967.07	4.20465
1967.32	5.22485
1967.56	3.29565
1967.81	-13.9966
1968.05	3.34744
1968.3	-23.5479
1968.55	0.509705
1968.79	32.2326
1969.04	33.1591
1969.29	-18.8131
1969.53	-16.9819
1969.78	-5.57309
1970.02	29.8347
1970.27	22.0469
1970.52	-0.113312
1970.76	39.1823
1971.01	13.2022
1971.25	2.59058
1971.5	9.26395
1971.75	-6.11859
1971.99	2.48758
1972.24	14.9925
1972.48	14.0797
1972.73	28.4975
1972.98	20.8233
1973.22	9.28
1973.47	-21.4759
1973.71	-4.29617
1973.96	5.22174
1974.21	14.758
1974.45	23.3536
1974.7	12.7986
1974.94	8.01312
1975.19	-20.7228
1975.44	34.9144
1975.68	5.25534
1975.93	29.2964
1976.17	2.50705
1976.42	9.26834
1976.66	40.9544
1976.91	49.6091
1977.16	1.65405
1977.4	16.9941
1977.65	-5.09042
1977.89	4.45944
1978.14	13.9892
1978.39	15.8425
1978.63	0.451141
1978.88	3.28683
1979.12	-10.1531
1979.37	-17.8173
1979.61	1.3696
1979.86	29.1736
1980.1	-0.519562
1980.35	27.2905
1980.6	-4.37723
1980.84	7.05505
1981.09	13.6967
1981.33	2.16748
1981.58	2.1134
1981.82	10.6933
1982.07	18.3312
1982.31	8.74243
1982.56	25.0117
1982.81	8.66882
1983.05	0.943604
1983.3	14.2526
1983.54	53.3662
1983.79	0.650299
1984.03	-7.99518
1984.28	11.1107
1984.52	56.0276
1984.77	-7.13672
1985.02	22.4777
1985.26	7.11121
1985.51	31.8602
1985.75	20.3397
1986	-28.3994
1986.24	12.7289
1986.49	0.362915
1986.73	-16.7755
1986.98	-13.8703
1987.22	-11.9692
1987.47	-15.7616
1987.71	-4.35184
1987.96	-7.33362
1988.21	42.223
1988.45	-4.74536
1988.7	28.4964
1988.94	8.10248
1989.19	-0.49057
1989.43	-16.1721
1989.68	11.9111
1989.92	31.0137
1990.17	-10.0291
1990.41	27.5633
1990.66	15.5456
1990.9	1.53574
1991.15	-0.370636
1991.39	-9.67441
1991.64	-9.93628
1991.88	9.14944
1992.13	-3.63519
1992.37	-5.52087
1992.62	20.1839
1992.86	22.1413
1993.11	-4.3486
1993.35	11.7815
1993.6	9.90216
1993.84	0.113281
1994.09	6.26501
1994.33	2.29547
1994.58	2.45755
1994.82	13.2854
1995.07	9.59308
1995.31	0.66983
1995.56	7.77957
1995.8	19.5136
1996.05	0.445679
1996.29	15.0914
1996.54	8.28601
1996.78	-11.0166
1997.03	-4.37534
1997.27	-12.337
1997.52	2.31433
1997.76	10.1323
1998.01	4.66602
1998.25	28.4022
1998.5	23.1346
1998.74	4.98224
1998.99	-3.1218
1999.23	-8.5535
1999.48	19.244
1999.72	25.4422
1999.97	-5.8812
2000.21	-0.104462
2000.46	-9.15186
2000.7	1.72812
2000.95	0.887726
2001.19	-2.27921
2001.43	0.0411987
2001.68	8.228
2001.92	1.39642
2002.17	1.89124
2002.41	-4.92117
2002.66	9.60553
2002.9	-3.15845
2003.15	1.73657
2003.39	13.0103
2003.64	7.48969
2003.88	15.8835
2004.13	21.1563
2004.37	13.0026
2004.61	5.91611
2004.86	3.15952
2005.1	-10.5114
2005.35	3.35059
2005.59	-7.16684
2005.84	1.90219
2006.08	12.6622
2006.33	6.44193
2006.57	10.1986
2006.81	13.7922
2007.06	-5.68192
2007.3	20.9092
2007.55	28.7605
2007.79	19.029
2008.04	12.8334
2008.28	-4.10934
2008.53	4.6792
2008.77	8.70551
2009.01	4.35803
2009.26	-3.81168
2009.5	5.15472
2009.75	4.23593
2009.99	-1.60776
2010.24	6.25891
2010.48	-22.1566
2010.73	4.57346
2010.97	-10.1434
2011.21	21.8456
2011.46	-5.8765
2011.7	-13.6086
2011.95	9.38232
2012.19	-4.82053
2012.43	37.1941
2012.68	-3.3266
2012.92	-12.7665
2013.17	-4.36948
2013.42	13.377
2013.67	5.65125
2013.91	-9.50519
2014.16	3.51529
2014.41	29.6484
2014.66	-0.622192
2014.9	-1.74243
2015.15	3.84128
2015.4	5.74133
2015.64	28.3284
2015.89	-17.593
2016.14	17.1972
2016.39	1.19733
2016.63	38.8662
2016.88	11.9429
2017.13	-7.73007
2017.37	-14.3279
2017.62	3.47211
2017.87	34.3849
2018.11	5.14124
2018.36	34.0928
2018.61	6.70282
2018.86	2.80576
2019.1	3.60031
2019.35	32.5016
2019.6	29.5372
2019.84	-11.7619
2020.09	-12.7494
2020.34	-22.1413
2020.58	13.4458
2020.83	-12.7935
2021.08	-7.18555
2021.33	-13.7152
2021.57	2.23621
2021.82	-7.12411
2022.07	-9.01184
2022.31	-0.615265
2022.56	22.7419
2022.81	-6.3573
2023.05	27.2461
2023.3	10.2861
2023.55	24.2349
2023.8	8.24454
2024.04	5.35355
2024.29	-20.9084
2024.54	-20.9784
2024.78	-15.4926
2025.03	10.5323
2025.27	8.53134
2025.52	-14.9311
2025.77	-29.9729
2026.02	24.9732
2026.26	-0.353241
2026.51	-6.83929
2026.76	-2.02393
2027	10.3701
2027.25	16.2936
2027.5	-16.0766
2027.74	-5.57556
2027.99	10.28
2028.23	10.0228
2028.48	-11.8376
2028.73	5.73734
2028.98	5.88889
2029.22	-4.8053
2029.47	-25.2422
2029.72	34.111
2029.96	-5.90936
2030.21	-1.66809
2030.45	-0.25354
2030.7	7.18933
2030.95	6.85864
2031.19	9.02335
2031.44	-7.52789
2031.69	31.6032
2031.93	-14.1105
2032.18	16.6953
2032.43	-7.44769
2032.67	-25.0553
2032.92	7.77606
2033.17	-1.42938
2033.41	15.4988
2033.66	-0.303833
2033.91	-11.4037
2034.15	29.8039
2034.4	11.8224
2034.64	-9.00363
2034.89	11.1278
2035.14	-5.76855
2035.38	-21.4639
2035.63	-3.5932
2035.87	-5.23361
2036.12	0.665222
2036.37	23.321
2036.61	-16.9124
2036.86	8.12967
2037.11	-13.3572
2037.35	-7.65137
2037.6	-7.65305
2037.84	-22.6306
2038.09	8.18661
2038.34	32.4425
2038.58	13.6894
2038.83	17.3641
2039.08	-2.323
2039.32	-5.18768
2039.57	-4.3204
2039.81	6.82022
2040.06	-8.20795
2040.31	-14.8518
2040.55	8.37259
2040.8	34.3898
2041.04	8.17072
2041.29	12.7496
2041.54	7.08466
2041.78	1.45929
2042.03	8.89331
2042.27	-10.7351
2042.52	13.4506
2042.77	-7.13437
2043.01	36.6254
2043.26	20.7857
2043.5	23.6195
2043.75	15.3471
2044	58.4067
2044.24	-2.03412
2044.49	3.62595
2044.73	21.3328
2044.98	32.4249
2045.23	27.5684
2045.47	2.97009
2045.72	-6.79269
2045.96	3.59158
2046.21	3.23419
2046.45	-16.6933
2046.7	-0.190552
2046.95	7.83008
2047.19	42.9977
2047.44	-28.8562
2047.68	13.0253
2047.93	3.37094
2048.17	52.691
2048.42	-16.2738
2048.67	-15.3224
2048.91	-3.17593
2049.16	1.5278
2049.4	-5.82895
2049.65	-6.67722
2049.89	0.90152
2050.14	12.2511
2050.39	-3.51053
2050.63	-10.8698
2050.88	-11.742
2051.12	11.6344
2051.37	23.7531
2051.61	9.65662
2051.86	16.0723
2052.11	9.53207
2052.35	-20.3393
2052.6	11.4715
2052.84	8.68774
2053.09	17.1432
2053.33	8.80292
2053.58	-1.39407
2053.82	31.4218
2054.07	5.44409
2054.31	-5.70294
2054.56	-14.0693
2054.8	1.84619
2055.05	3.70755
2055.3	20.5231
2055.54	20.4928
2055.79	14.781
2056.03	0.708069
2056.28	-14.2711
2056.52	4.3887
2056.77	26.7785
2057.01	-13.4426
2057.26	37.0284
2057.5	27.7012
2057.75	18.3859
2058	39.9414
2058.24	11.0199
2058.49	39.1396
2058.73	9.31223
2058.98	15.0189
2059.22	10.4256
2059.47	0.192078
2059.71	-6.33685
2059.96	7.72681
2060.2	46.119
2060.45	-28.8257
2060.69	16.0423
2060.94	14.1245
2061.18	-7.35434
2061.43	17.0405
2061.67	27.3803
2061.92	27.398
2062.16	5.87143
2062.41	5.8847
2062.65	29.3222
2062.9	8.76385
2063.14	4.1377
2063.39	13.5774
2063.63	-18.2116
2063.88	-13.4762
2064.12	27.8026
2064.37	-10.5917
2064.61	3.49896
2064.86	11.0446
2065.1	-3.89862
2065.35	-9.43488
2065.59	8.50742
2065.84	9.55789
2066.08	38.7547
2066.33	-14.6748
2066.57	-20.2572
2066.82	27.6481
2067.06	6.09177
2067.31	63.431
2067.55	2.41229
2067.8	27.8295
2068.04	29.7777
2068.29	-1.17697
2068.53	17.6611
2068.78	26.1436
2069.02	12.1042
2069.27	15.8675
2069.51	9.22495
2069.76	17.5619
2070	16.4375
2070.25	0.398621
2070.49	14.5221
2070.73	12.8143
2070.98	31.8233
2071.22	-7.46024
2071.47	48.941
2071.71	7.43216
2071.96	-8.10519
2072.2	14.6543
2072.45	-4.21246
2072.69	25.8871
2072.94	-8.96848
2073.18	4.17554
2073.43	28.6509
2073.67	6.02908
2073.92	11.6929
2074.16	23.0022
2074.4	-0.516541
2074.65	0.466553
2074.89	-8.88022
2075.14	-20.0854
2075.38	46.0182
2075.63	-19.7911
2075.87	8.71057
2076.12	20.1805
2076.36	-10.896
2076.6	12.7099
2076.85	8.94827
2077.09	42.882
2077.34	12.5864
2077.58	7.77029
2077.83	17.0082
2078.07	11.2985
2078.31	15.1167
2078.56	-15.927
2078.8	8.6319
2079.05	-14.9231
2079.29	33.2543
2079.54	8.81265
2079.78	-9.88522
2080.03	29.8596
2080.27	10.0917
2080.51	5.4292
2080.76	11.148
2081	9.25928
2081.25	24.331
2081.49	32.8
2081.74	16.7206
2081.98	-4.07465
2082.22	38.4206
2082.47	16.7186
2082.71	11.0762
2082.96	17.7099
2083.2	12.0433
2083.45	-12.5388
2083.69	13.8991
2083.93	1.59323
2084.18	25.2122
2084.42	-8.8056
2084.67	10.0837
2084.91	8.19504
2085.15	13.8727
2085.4	34.6613
2085.64	24.2595
2085.89	7.2457
2086.13	-2.18207
2086.37	9.25928
2086.62	6.54855
2086.86	-0.929321
2087.11	16.1328
2087.35	10.5016
2087.59	7.72574
2087.84	15.3307
2088.08	-21.5802
2088.32	-17.7943
2088.57	20.0668
2088.81	-18.7251
2089.06	-0.726746
2089.3	11.592
2089.54	14.491
2089.79	6.03333
2090.03	26.0262
2090.28	-6.14606
2090.52	19.4454
2090.76	-1.37268
2091.01	11.9229
2091.25	-2.25143
2091.5	18.636
2091.74	10.1442
2091.98	-1.13235
2092.23	-15.2467
2092.47	18.0733
2092.72	27.692
2092.96	10.7477
2093.2	18.4488
2093.45	14.7483
2093.69	-14.6033
2093.93	26.3475
2094.18	3.61731
2094.42	13.1937
2094.66	-3.9021
2094.91	20.8098
2095.15	-11.5416
2095.39	-5.87308
2095.64	10.2116
2095.88	16.7804
2096.13	-4.19019
2096.37	51.8108
2096.61	9.96988
2096.86	-10.9521
2097.1	17.5225
2097.34	19.358
2097.59	8.82092
2097.83	14.4276
2098.07	22.9293
2098.32	2.01422
2098.56	13.3776
2098.8	11.4117
2099.05	15.201
2099.29	12.3353
2099.53	16.0991
2099.78	-2.90784
2100.02	21.7509
2100.27	-6.72366
2100.51	13.2105
2100.75	7.53067
2101	1.86838
2101.24	-4.68665
2101.48	-3.66769
2101.73	9.6705
2101.97	2.08966
2102.21	23.9273
2102.45	10.6113
2102.7	40.0496
2102.94	16.2711
2103.18	50.3808
2103.43	-2.88797
2103.67	8.45041
2103.92	11.2781
2104.16	9.34741
2104.4	4.60016
2104.64	19.8153
2104.89	4.67993
2105.13	-12.3615
2105.37	-25.6126
2105.62	14.3423
2105.86	18.2279
2106.1	34.4556
2106.35	12.6343
2106.59	-31.0588
2106.83	7.92682
2107.08	22.1956
2107.32	2.25977
2107.56	9.87039
2107.8	27.8787
2108.05	-22.5902
2108.29	9.6116
2108.53	0.938568
2108.78	-42.8683
2109.02	23.5143
2109.26	20.6212
2109.51	-4.05762
2109.75	9.33127
2109.99	-8.6438
2110.23	-31.4487
2110.48	-8.65793
2110.72	24.5808
2110.96	0.820343
2111.21	21.711
2111.45	25.4968
2111.69	-19.1886
2111.93	33.9368
2112.18	25.3347
2112.42	19.6011
2112.66	23.3873
2112.91	12.972
2113.15	18.7038
2113.39	-5.95526
2113.63	10.2853
2113.88	12.2603
2114.12	10.3892
2114.36	0.850006
2114.61	22.6618
2114.85	10.2881
2115.09	7.44537
2115.33	18.8495
2115.58	19.7663
2115.82	-10.6899
2116.06	26.3269
2116.31	-3.1741
2116.55	-1.36566
2116.79	6.14447
2117.03	0.397552
2117.28	27.9051
2117.52	19.33
2117.76	6.04138
2118	1.24094
2118.25	8.76144
2118.49	10.5804
2118.73	-2.82559
2118.97	-13.3905
2119.22	-3.05722
2119.46	9.17459
2119.7	46.0516
2119.94	9.92825
2120.19	9.84094
2120.43	-2.54868
2120.67	2.15616
2120.91	-18.6899
2121.16	31.5909
2121.4	22.142
2121.64	5.16086
2121.88	20.4215
2122.13	-23.1266
2122.37	-30.6493
2122.61	34.8802
2122.85	12.1591
2123.1	29.2878
2123.34	1.79724
2123.58	-3.87735
2123.82	8.46844
2124.07	-2.01865
2124.31	5.51807
2124.55	8.28354
2124.79	9.11404
2125.03	16.526
2125.28	-14.9696
2125.52	31.2764
2125.76	15.9597
2126	-0.2789
2126.25	-8.92874
2126.49	2.31317
2126.73	2.21484
2126.97	-27.2092
2127.21	18.0954
2127.46	7.59317
2127.7	11.3261
2127.94	17.9106
2128.18	36.7807
2128.43	5.52548
2128.67	3.59604
2128.91	-9.64905
2129.15	9.24536
2129.39	11.1065
2129.64	7.27954
2129.88	2.51294
2130.12	22.3278
2130.36	27.019
2130.6	-23.1028
2130.85	18.4301
2131.09	14.5965
2131.33	11.698
2131.57	-7.26724
2131.81	31.3774
2132.06	-16.8544
2132.3	-26.3474
2132.54	0.973969
2132.78	14.0956
2133.02	5.51151
2133.27	-10.5826
2133.51	16.7627
2133.75	4.49911
2133.99	13.9382
2134.23	-3.05753
2134.48	-21.9283
2134.72	9.21432
2134.96	-5.91028
2135.2	-2.16086
2135.44	20.4627
2135.68	-36.1918
2135.93	9.99194
2136.17	1.41608
2136.41	-0.607117
2136.65	20.0002
2136.89	29.3506
2137.14	27.4698
2137.38	10.5042
2137.62	18.9834
2137.86	13.3578
2138.1	27.5802
2138.34	4.90039
2138.59	-16.914
2138.83	19.75
2139.07	-31.095
2139.31	0.131531
2139.55	6.81418
2139.79	-7.54657
2140.03	15.8503
2140.28	32.7239
2140.52	1.55249
2140.76	27.8629
2141	-10.8168
2141.24	-1.44397
2141.49	-4.31607
2141.73	-3.38297
2141.97	8.76199
2142.21	3.00644
2142.45	-23.4002
2142.69	34.005
2142.93	-13.9406
2143.18	18.1212
2143.42	24.1061
2143.66	4.13849
2143.9	-22.267
2144.14	4.02667
2144.38	21.9449
2144.62	-12.7072
2144.87	23.151
2145.11	5.34836
2145.35	-4.30341
2145.59	-3.34485
2145.83	-2.40125
2146.07	2.26224
2146.31	3.15323
2146.55	2.16321
2146.8	24.6748
2147.04	0.187103
2147.28	-6.44708
2147.52	41.4061
2147.76	26.298
2148	-0.075592
2148.24	30.8656
2148.48	-4.89163
2148.73	20.4028
2148.97	19.3929
2149.21	6.16827
2149.45	0.436554
2149.69	12.5247
2149.93	-20.4966
2150.17	15.9753
2150.42	10.2193
2150.66	4.49573
2150.9	13.8112
2151.14	34.4078
2151.38	-4.94012
2151.62	-10.5141
2151.86	-1.1131
2152.1	-17.0081
2152.34	7.38675
2152.58	13.9955
2152.83	12.0414
2153.07	26.0328
2153.31	24.0627
2153.55	20.2258
2153.79	-9.8194
2154.03	-1.43683
2154.27	35.0249
2154.51	24.5959
2154.75	25.3702
2154.99	3.64111
2155.24	6.26965
2155.48	3.26309
2155.72	25.557
2155.96	3.91415
2156.2	26.221
2156.44	27.9913
2156.68	-20.6484
2156.92	18.5531
2157.16	11.9874
2157.4	13.8414
2157.64	-13.2361
2157.89	7.35773
2158.13	20.5011
2158.37	-3.74829
2158.61	22.4249
2158.85	-9.37445
2159.09	26.1093
2159.33	-18.805
2159.57	8.22986
2159.81	-1.19684
2160.05	9.9151
2160.29	-4.21179
2160.53	27.4161
2160.77	-9.10068
2161.01	11.3376
2161.25	11.2754
2161.5	-3.6936
2161.74	-19.6093
2161.98	-6.60114
2162.22	23.2211
2162.46	2.67929
2162.7	-4.79901
2162.94	-14.1512
2163.18	-17.0006
2163.42	-5.87589
2163.66	18.3111
2163.9	6.12888
2164.14	-1.39188
2164.38	1.34073
2164.62	-16.4732
2164.86	-17.5234
2165.11	3.82605
2165.35	3.82596
2165.59	1.98636
2165.83	28.0669
2166.07	24.3294
2166.31	5.68015
2166.55	2.8205
2166.79	-18.6688
2167.03	-10.3593
2167.27	-10.4549
2167.51	-1.2179
2167.75	-15.2931
2167.99	-4.25751
2168.23	25.2985
2168.47	-15.8216
2168.71	7.34259
2168.95	-9.4173
2169.19	1.74515
2169.43	25.0292
2169.67	17.6604
2169.91	-14.7979
2170.15	20.6844
2170.39	-26.648
2170.63	-4.23029
2170.87	-8.86813
2171.11	-31.2616
2171.35	31.9597
2171.59	6.76767
2171.83	5.65485
2172.07	-2.08948
2172.31	-20.8468
2172.56	5.0867
2172.79	12.433
2173.04	3.99744
2173.28	18.8349
2173.51	-5.34448
2173.76	2.99496
2174	-10.0001
2174.24	-17.4
2174.48	7.71231
2174.72	16.0794
2174.96	-13.6729
2175.2	-32.2805
2175.44	3.94229
2175.68	3.89908
2175.92	28.0175
2176.16	-2.6792
2176.4	-9.22113
2176.64	9.31189
2176.88	18.5199
2177.12	9.18741
2177.36	27.7502
2177.6	1.73489
2177.84	-5.70602
2178.08	6.34537
2178.32	-19.6671
2178.55	-5.78683
2178.8	0.589539
2179.03	-1.36511
2179.28	17.1765
2179.52	-25.5313
2179.75	32.9536
2180	-18.126
2180.23	28.2816
2180.47	25.4767
2180.71	-8.90604
2180.95	10.5492
2181.19	5.86438
2181.43	13.2632
2181.67	20.647
2181.91	-0.767975
2182.15	-1.75848
2182.39	8.41196
2182.63	-19.4948
2182.87	14.7806
2183.11	6.37576
2183.35	-6.70612
2183.59	-1.24866
2183.83	19.0128
2184.07	-32.071
2184.31	1.21564
2184.55	30.7908
2184.79	-10.9398
2185.03	20.5609
2185.27	-1.65344
2185.51	15.9694
2185.75	17.8399
2185.99	13.2417
2186.23	-13.5895
2186.47	5.01105
2186.7	0.430603
2186.95	33.0003
2187.18	5.27707
2187.42	6.31128
2187.66	-0.0846863
2187.9	16.7053
2188.14	19.4996
2188.38	-1.92169
2188.62	28.6351
2188.86	19.2513
2189.1	0.58075
2189.34	12.5308
2189.58	8.68948
2189.82	6.6828
2190.06	17.6788
2190.3	-10.203
2190.54	21.282
2190.78	12.0062
2191.01	-5.58774
2191.25	-17.6229
2191.49	22.2297
2191.73	1.84073
2191.97	13.9146
2192.21	-6.465
2192.45	9.32214
2192.69	16.7614
2192.93	-9.18903
2193.17	1.06812
2193.41	30.8192
2193.65	-4.39279
2193.89	11.4643
2194.13	-26.4502
2194.36	1.59448
2194.6	2.64185
2194.84	0.840515
2195.08	-5.70386
2195.32	0.740967
2195.56	9.9794
2195.8	11.758
2196.04	17.2278
2196.28	18.9508
2196.52	16.0028
2196.76	-24.0601
2197	4.59805
2197.23	-14.9789
2197.47	-13.2038
2197.71	32.1713
2197.95	8.04407
2198.19	14.5346
2198.43	24.7697
2198.67	40.6327
2198.91	2.67902
2199.15	-3.71176
2199.38	25.2038
2199.62	-19.2764
2199.86	8.71725
2200.1	-6.96323
2200.34	51.8111
2200.58	1.79065
2200.82	-14.7914
2201.06	25.4058
2201.3	-4.29434
2201.54	20.9538
2201.77	-0.662903
2202.01	17.5208
2202.25	11.0372
2202.49	25.2624
2202.73	10.678
2202.97	16.0355
2203.21	-24.5774
2203.45	4.1308
2203.68	6.82114
2203.92	16.4737
2204.16	32.7612
2204.4	21.0182
2204.64	19.107
2204.88	16.3683
2205.12	18.8621
2205.36	8.22781
2205.59	23.7025
2205.83	35.5377
2206.07	37.3175
2206.31	23.3687
2206.55	4.8559
2206.79	0.207184
2207.03	9.33997
2207.26	48.4005
2207.5	3.82343
2207.74	22.4876
2207.98	-5.34232
2208.22	29.1576
2208.46	7.83429
2208.7	12.5607
2208.93	8.90057
2209.17	75.0595
2209.41	14.5674
2209.65	18.307
2209.89	26.6798
2210.13	-8.73389
2210.36	21.0713
2210.6	9.00565
2210.84	-8.64664
2211.08	13.7682
2211.32	-2.01785
2211.56	20.4018
2211.8	42.8356
2212.03	6.55737
2212.27	24.355
2212.51	3.8877
2212.75	35.6245
2212.99	19.726
2213.23	18.7391
2213.46	12.1589
2213.7	13.9461
2213.94	10.1317
2214.18	-20.6241
2214.42	7.41824
2214.66	-20.4102
2214.89	-28.6713
2215.13	15.2299
2215.37	17.1232
2215.61	-3.39816
2215.85	5.9462
2216.08	19.0177
2216.32	5.00452
2216.56	14.3252
2216.8	-1.56812
2217.04	1.20407
2217.28	11.4471
2217.51	13.3035
2217.75	-5.36258
2217.99	7.71747
2218.23	-17.5024
2218.47	25.4312
2218.7	14.2361
2218.94	29.2094
2219.18	-2.49252
2219.42	8.77921
2219.66	-13.5755
2219.9	-16.3441
2220.13	-17.2389
2220.37	-8.79752
2220.61	-13.4891
2220.85	-19.123
2221.09	-9.80054
2221.32	8.83893
2221.56	22.7451
2221.8	-9.13419
2222.04	3.84225
2222.27	25.2283
2222.51	-3.77295
2222.75	16.7434
2222.99	6.49683
2223.23	-2.78857
2223.46	-5.53842
2223.7	10.3995
2223.94	-34.3515
2224.18	-21.1675
2224.42	-18.252
2224.65	0.55307
2224.89	9.0643
2225.13	-15.1752
2225.37	8.2952
2225.6	5.58276
2225.84	16.9286
2226.08	-8.26837
2226.32	0.238129
2226.56	18.1201
2226.79	-33.3575
2227.03	-0.481445
2227.27	18.3391
2227.51	16.5256
2227.74	16.57
2227.98	-18.1056
2228.22	1.57095
2228.46	-13.4697
2228.69	16.4991
2228.93	16.4636
2229.17	22.9976
2229.41	-0.468658
2229.64	22.9617
2229.88	25.8409
2230.12	3.43921
2230.36	-11.4771
2230.6	-6.72028
2230.83	-19.788
2231.07	10.3236
2231.31	4.77371
2231.55	-17.6746
2231.78	0.262726
2232.02	12.5505
2232.26	13.5693
2232.5	11.7675
2232.73	3.38394
2232.97	-5.00827
2233.21	11.0518
2233.45	11.1227
2233.68	-19.8535
2233.92	6.56396
2234.16	-10.3229
2234.39	-15.9303
2234.63	-0.896271
2234.87	0.948975
2235.11	9.36539
2235.34	-0.122284
2235.58	12.8974
2235.82	-22.9465
2236.06	-14.4788
2236.29	-1.30048
2236.53	25.9918
2236.77	2.50009
2237	-25.7038
2237.24	-1.23059
2237.48	-18.0731
2237.72	0.827301
2237.95	-9.37497
2238.19	-9.21173
2238.43	-12.8314
2238.67	-3.30029
2238.9	4.34506
2239.14	15.7838
2239.38	21.5956
2239.61	-19.8887
2239.85	11.2064
2240.09	8.31793
2240.33	9.14288
2240.56	22.2385
2240.8	-0.437225
2241.04	-4.03809
2241.27	-26.5289
2241.51	16.895
2241.75	7.48569
2241.99	8.46039
2242.22	7.54187
2242.46	30.2284
2242.7	13.2851
2242.93	-4.59991
2243.17	-8.36871
2243.41	6.71936
2243.64	12.3273
2243.88	-30.2063
2244.12	-0.0373535
2244.36	2.78143
2244.59	9.40076
2244.83	-16.9645
2245.07	-17.794
2245.3	43.7607
2245.54	-25.0524
2245.78	16.6232
2246.01	23.3245
2246.25	7.34222
2246.49	18.776
2246.72	14.1199
2246.96	-16.1096
2247.2	-20.7803
2247.43	1.04416
2247.67	30.4263
2247.91	8.67856
2248.14	-5.52249
2248.38	-6.48853
2248.62	19.9865
2248.85	-7.48157
2249.09	-16.0182
2249.33	2.88562
2249.56	39.7719
2249.8	18.0856
2250.04	-0.789459
2250.27	19.0843
2250.51	1.9986
2250.75	-9.43246
2250.98	-2.88992
2251.22	-5.82126
2251.46	27.2039
2251.69	20.5263
2251.93	-20.1476
2252.17	-8.78436
2252.4	13.9561
2252.64	15.9165
2252.88	22.6271
2253.11	15.198
2253.35	10.6963
2253.59	6.12415
2253.82	-5.11801
2254.06	16.7773
2254.3	-9.67978
2254.53	-2.96234
2254.77	-3.85144
2255.01	21.7616
2255.24	-1.02988
2255.48	-3.84988
2255.72	17.9652
2255.95	16.0897
2256.19	0.940674
2256.42	-17.953
2256.66	3.94379
2256.9	9.71317
2257.13	11.6843
2257.37	5.11673
2257.61	20.378
2257.84	-6.13358
2258.08	4.36127
2258.32	-10.8028
2258.55	25.3073
2258.79	9.19717
2259.02	9.24344
2259.26	-12.5399
2259.5	2.72791
2259.73	15.127
2259.97	7.56686
2260.2	16.1756
2260.44	-29.3976
2260.68	2.01718
2260.91	-5.54254
2261.15	-2.62036
2261.39	14.6373
2261.62	-5.24481
2261.86	-1.41241
2262.1	14.796
2262.33	-17.5151
2262.57	17.739
2262.8	-12.6514
2263.04	-0.183044
2263.28	17.0571
2263.51	7.65302
2263.75	34.4686
2263.98	5.08408
2264.22	31.0021
2264.46	7.3295
2264.69	16.071
2264.93	8.56705
2265.16	-6.59982
2265.4	3.04248
2265.64	8.85638
2265.87	-1.62726
2266.11	33.7442
2266.34	3.15353
2266.58	-19.8464
2266.81	21.1279
2267.05	2.89597
2267.29	3.77054
2267.52	-17.2789
2267.76	-3.96948
2267.99	29.3639
2268.23	-12.6841
2268.47	6.33057
2268.7	-22.2879
2268.94	-14.636
2269.17	11.1781
2269.41	6.5097
2269.65	18.0805
2269.88	1.98868
2270.12	-16.9712
2270.35	16.6031
2270.59	1.46341
2270.82	-2.26782
2271.06	18.8208
2271.3	32.3089
2271.53	-22.0958
2271.77	-18.2092
2272	-9.53421
2272.24	-5.61996
2272.47	18.3509
2272.71	4.98016
2272.95	43.2819
2273.18	23.2274
2273.42	-15.0074
2273.65	25.2172
2273.89	-0.583313
2274.12	-8.20316
2274.36	-10.0828
2274.6	17.7066
2274.83	-7.14359
2275.07	-11.8931
2275.3	10.168
2275.54	3.50449
2275.77	19.8228
2276.01	23.654
2276.24	3.62405
2276.48	22.8936
2276.72	4.8129
2276.95	-23.8293
2277.18	-27.5706
2277.42	19.5071
2277.66	33.0899
2277.89	1.61108
2278.13	-9.73032
2278.36	-7.62418
2278.6	-4.66638
2278.83	-18.0661
2279.07	0.203735
2279.3	9.80948
2279.54	-13.2496
2279.78	3.98001
2280.01	14.3701
2280.24	-36.5896
2280.48	-6.93579
2280.72	11.2099
2280.95	8.26959
2281.19	6.30957
2281.42	-17.6791
2281.66	19.6707
2281.89	26.3574
2282.13	-21.5035
2282.36	-10.9128
2282.6	11.2138
2282.83	-6.90515
2283.07	-13.5071
2283.3	2.91202
2283.54	-19.0256
2283.77	21.4707
2284.01	-2.32434
2284.24	-5.97855
2284.48	7.68948
2284.71	-1.79691
2284.95	-17.1191
2285.19	24.3591
2285.42	-8.24158
2285.65	41.8513
2285.89	7.23874
2286.12	-2.45169
2286.36	11.8431
2286.59	12.8119
2286.83	30.1778
2287.06	-17.8324
2287.3	-6.08023
2287.54	-18.4203
2287.77	-20.2675
2288	-10.5727
2288.24	41.5825
2288.47	-22.0111
2288.71	-1.81982
2288.94	19.3291
2289.18	4.83011
2289.41	-4.89981
2289.65	26.7271
2289.88	16.0189
2290.12	-2.40369
2290.35	-2.43906
2290.59	8.117
2290.82	12.9477
2291.06	10.0949
2291.29	14.9865
2291.53	-17.58
2291.76	8.54947
2292	6.742
2292.23	-11.4508
2292.47	16.5587
2292.7	0.294403
2292.94	26.4185
2293.17	45.8052
2293.41	-28.2826
2293.64	-6.03784
2293.88	-0.186707
2294.11	-7.84985
2294.34	23.9491
2294.58	29.7043
2294.81	11.3543
2295.05	6.48251
2295.28	-31.1174
2295.52	-4.17822
2295.75	-8.06287
2295.99	15.0145
2296.22	18.8401
2296.46	20.6906
2296.69	4.18552
2296.93	-16.9778
2297.16	26.3764
2297.39	21.6517
2297.63	-0.380615
2297.86	2.625
2298.1	-1.08621
2298.33	18.3441
2298.57	33.88
2298.8	17.5862
2299.04	-0.617493
2299.27	15.9037
2299.51	6.37772
2299.74	7.44168
2299.97	23.908
2300.21	-0.187836
2300.44	-14.6287
2300.68	-4.00089
2300.91	2.82611
2301.15	-4.7963
2301.38	5.89786
2301.61	17.5537
2301.85	-11.3473
2302.08	9.92493
2302.32	8.00876
2302.55	39.8496
2302.79	-1.65262
2303.02	11.8967
2303.25	3.22876
2303.49	-19.9282
2303.72	-12.1859
2303.96	8.11627
2304.19	15.9065
2304.43	-0.404297
2304.66	10.3091
2304.89	21.0063
2305.13	6.60953
2305.36	5.75049
2305.6	21.2834
2305.83	31.9613
2306.07	11.7352
2306.3	-2.6781
2306.53	-7.43213
2306.77	11.9453
2307	3.28375
2307.24	-11.1911
2307.47	5.25653
2307.7	-5.38281
2307.94	20.6876
2308.17	29.3817
2308.41	7.14893
2308.64	-10.2461
2308.87	17.8002
2309.11	12.0524
2309.34	8.27972
2309.58	-1.285
2309.81	-0.187439
2310.04	-12.6016
2310.28	16.531
2310.51	-11.4515
2310.75	19.5469
2310.98	14.7281
2311.21	-9.46799
2311.45	30.1204
2311.68	29.9028
2311.92	6.47235
2312.15	-5.2287
2312.38	20.7646
2312.62	4.32504
2312.85	7.17865
2313.08	5.22592
2313.32	1.3913
2313.55	13.0495
2313.79	9.34637
2314.02	-24.2608
2314.25	24.1814
2314.49	25.3052
2314.72	19.6685
2314.95	5.35471
2315.19	19.0664
2315.42	7.5611
2315.66	-0.253845
2315.89	-7.09201
2316.12	28.6302
2316.36	5.349
2316.59	19.6475
2316.82	-17.139
2317.06	14.7022
2317.29	-0.724609
2317.52	-2.60281
2317.76	6.14288
2317.99	38.1606
2318.23	-24.5272
2318.46	23.6665
2318.69	8.17703
2318.93	11.051
2319.16	0.398254
2319.39	14.8409
2319.63	-4.49069
2319.86	-9.32742
2320.09	14.7987
2320.33	15.7974
2320.56	-5.38785
2320.79	-11.1483
2321.03	-13.0086
2321.26	-2.30072
2321.5	-15.7169
2321.73	24.9413
2321.96	25.0668
2322.2	14.5943
2322.43	-8.43576
2322.66	30.3647
2322.9	11.1064
2323.13	23.6869
2323.36	33.4065
2323.6	32.5047
2323.83	23.8609
2324.06	-7.01978
2324.3	56.8467
2324.53	11.4126
2324.76	14.3266
2325	23.9239
2325.23	18.0258
2325.46	12.1117
2325.7	0.457214
2325.93	13.9291
2326.16	44.7733
2326.4	56.2965
2326.63	-0.707214
2326.86	28.1827
2327.09	33.9094
2327.33	56.028
2327.56	27.9951
2327.79	59.7774
2328.03	52.9845
2328.26	60.6754
2328.49	109.887
2328.73	87.7538
2328.96	145.632
2329.19	76.1682
2329.43	48.1655
2329.66	45.1876
2329.89	26.877
2330.13	1.84842
2330.36	6.74985
2330.59	19.2742
2330.82	-2.88068
2331.06	-25.9988
2331.29	32.7628
2331.52	19.3416
2331.76	25.2148
2331.99	37.8417
2332.22	20.6342
2332.46	-5.461
2332.69	4.12369
2332.92	-1.68201
2333.16	-5.5574
2333.39	5.97467
2333.62	33.8718
2333.85	2.09033
2334.09	32.8829
2334.32	1.09634
2334.55	8.7572
2334.79	16.3769
2335.02	5.76529
2335.25	-1.93951
2335.48	-7.69257
2335.72	21.1645
2335.95	27.9433
2336.18	18.3867
2336.41	6.86349
2336.65	-2.76523
2336.88	16.4705
2337.11	37.6357
2337.34	16.4967
2337.58	15.5446
2337.81	12.6731
2338.04	11.7068
2338.28	13.6305
2338.51	-22.8845
2338.74	1.15594
2338.97	5.97937
2339.21	14.6748
2339.44	17.598
2339.67	-3.52075
2339.91	11.8752
2340.14	13.7931
2340.37	-8.33182
2340.6	-26.625
2340.84	-3.6041
2341.07	40.5174
2341.3	17.3783
2341.53	-4.80472
2341.77	23.859
2342	28.5611
2342.23	15.0844
2342.46	11.2073
2342.7	-0.332642
2342.93	-8.97775
2343.16	-5.13928
2343.39	26.5142
2343.63	17.9186
2343.86	-3.16202
2344.09	51.4852
2344.32	18.9281
2344.56	26.6529
2344.79	12.3149
2345.02	2.74319
2345.25	17.1222
2345.49	5.60269
2345.72	18.9796
2345.95	71.5905
2346.18	10.2238
2346.41	29.3269
2346.65	8.25281
2346.88	0.594574
2347.11	6.34518
2347.34	14.9517
2347.58	6.3273
2347.81	-7.05981
2348.04	12.1217
2348.27	-13.6801
2348.5	7.45761
2348.74	-13.5548
2348.97	14.2402
2349.2	13.2676
2349.43	7.47751
2349.67	9.24203
2349.9	29.1794
2350.13	-7.34644
2350.36	2.95413
2350.59	-4.00082
2350.83	-10.2134
2351.06	-3.40204
2351.29	14.4023
2351.52	-1.37466
2351.75	-8.6011
2351.99	-1.73422
2352.22	30.2923
2352.45	1.71774
2352.68	9.42459
2352.91	15.8737
2353.15	-6.40631
2353.38	11.4329
2353.61	-37.0306
2353.84	18.2091
2354.07	-16.14
2354.31	-0.876495
2354.54	16.2704
2354.77	-3.61432
2355	21.2735
2355.23	-15.8842
2355.47	-12.0801
2355.7	-0.664429
2355.93	15.5098
2356.16	10.7154
2356.39	3.0416
2356.63	16.258
2356.86	-2.95566
2357.09	-27.823
2357.32	-22.1772
2357.55	12.9566
2357.79	-8.01297
2358.02	5.2522
2358.25	2.35791
2358.48	-1.47247
2358.71	26.0689
2358.94	6.03821
2359.18	9.80972
2359.41	12.6433
2359.64	-24.4147
2359.87	-1.65329
2360.1	-14.0552
2360.33	-35.9638
2360.57	4.77872
2360.8	17.9816
2361.03	11.2543
2361.26	-5.90646
2361.49	-9.78619
2361.72	-8.92548
2361.96	-18.4934
2362.19	27.8485
2362.42	11.6321
2362.65	17.2136
2362.88	0.0829468
2363.11	24.6231
2363.34	5.62335
2363.58	15.9772
2363.81	-3.9379
2364.04	-7.76093
2364.27	-10.6405
2364.5	-6.90823
2364.73	7.22351
2364.97	7.16681
