#Acq. time (s)=	40
#Accumulations=	2
#Range (cm-¹)=	1200...2365
#Windows=	3
#Auto scanning=	Off
#Autofocus=	Off
#Macrospot=	Off
#AutoExposure=	Off
#Spike filter=	Multiple accum.
#Delay time (s)=	2
#Binning=	1
#Readout mode=	Signal
#DeNoise=	Off
#ICS correction=	On
#Dark correction=	Off
#Inst. Process=	Off
#Detector Gain=	Best Dynamic
#Detector ADC=	50 kHz EM
#Detector EM gain=	400
#Detector temperature (°C)=	-60.09
#Instrument=	LabRAM HR Evol
#Detector=	SIN-EM FIVIS
#Objective=	x100_VIS_LWD
#Grating=	1800 (450-850nm)
#ND Filter=	100%
#Laser=	532nm_Edge
#Hole=	30.0125
#Temperature=	0
#Range=	Visible
#StageXY=	75x50mm Scan+
#StageZ=	Z motor
#X (µm)=	0
#Y (µm)=	0
#Z (µm)=	1.4
#Full time(mm:ss)=	4:20
#Project=	21_11_26
#Sample=	BU32
#Site=	
#Title=	BU32-A-incC-FI02-V_1800 (450-850nm)_532nm_Edge_100%_x100_VIS_LWD_H30um_40sX2
#Remark=	
#Date=	26.11.2021 17:41
#Acquired=	26.11.2021 17:41:20
#Base:Fit=	16.12.2021 14:33:36
#Base:Fit=	16.12.2021 14:33:39
#Base:Sub=	16.12.2021 14:33:41
1202.72	8.15915
1203	7.75909
1203.28	5.81268
1203.56	2.40128
1203.84	-1.07523
1204.11	-8.73322
1204.39	-17.4233
1204.67	-13.0383
1204.95	-15.0756
1205.23	4.26175
1205.5	28.8823
1205.78	-20.6404
1206.06	-6.8017
1206.34	9.164
1206.61	-9.20218
1206.89	19.6171
1207.17	20.5488
1207.45	8.66202
1207.73	-1.01993
1208	-9.62119
1208.28	-11.7652
1208.56	-1.08344
1208.84	10.6237
1209.11	19.1263
1209.39	-6.58746
1209.67	-3.36856
1209.95	11.6433
1210.23	9.5267
1210.5	21.258
1210.78	-4.50369
1211.06	22.0919
1211.34	15.6055
1211.61	29.3766
1211.89	17.5678
1212.17	0.390686
1212.45	-2.90765
1212.72	-11.4872
1213	19.352
1213.28	-9.47861
1213.56	-20.1515
1213.83	20.3171
1214.11	-3.13843
1214.39	-11.5806
1214.67	-2.99335
1214.94	6.64911
1215.22	20.541
1215.5	4.60962
1215.78	4.64304
1216.05	-3.85242
1216.33	-18.8015
1216.61	4.5174
1216.89	0.138702
1217.16	4.28073
1217.44	-10.6697
1217.72	17.951
1218	26.3764
1218.27	-1.27805
1218.55	20.975
1218.83	11.385
1219.1	-9.83618
1219.38	-18.3014
1219.66	-12.9819
1219.94	-2.3717
1220.21	-8.75677
1220.49	5.06943
1220.77	-8.66705
1221.04	6.20929
1221.32	-17.113
1221.6	31.6404
1221.88	-4.43219
1222.15	9.27759
1222.43	-18.3798
1222.71	4.78696
1222.98	1.45432
1223.26	-0.807129
1223.54	8.57294
1223.81	21.1317
1224.09	19.9734
1224.37	-3.36569
1224.65	-1.30487
1224.92	-19.2826
1225.2	6.04727
1225.48	12.4162
1225.76	9.34821
1226.03	0.993073
1226.31	0.0372314
1226.59	6.39639
1226.86	-0.977478
1227.14	3.21481
1227.42	-10.5297
1227.69	8.30005
1227.97	15.3243
1228.25	-2.79004
1228.52	4.39359
1228.8	5.10037
1229.08	13.2383
1229.35	-16.1709
1229.63	1.69443
1229.91	-15.3365
1230.18	-8.27795
1230.46	9.30157
1230.74	-2.38663
1231.01	-1.24414
1231.29	-9.85968
1231.57	5.16559
1231.84	-17.8333
1232.12	-20.9489
1232.4	11.6566
1232.67	3.24557
1232.95	-11.4291
1233.23	1.19937
1233.5	8.55701
1233.78	10.6911
1234.06	9.70706
1234.33	7.68713
1234.61	5.67075
1234.89	4.7236
1235.16	-2.52222
1235.44	2.80862
1235.71	-4.46878
1235.99	-33.8139
1236.27	6.21402
1236.54	15.7127
1236.82	10.4467
1237.1	23.0373
1237.37	24.0373
1237.65	-20.1871
1237.93	18.573
1238.2	5.86697
1238.48	3.66202
1238.76	23.4887
1239.03	-9.09869
1239.31	8.70013
1239.58	-5.99203
1239.86	-8.0881
1240.14	12.8925
1240.41	-18.5251
1240.69	-12.1957
1240.97	0.435608
1241.24	-3.69434
1241.52	-18.3144
1241.79	-20.4039
1242.07	15.2009
1242.35	6.81134
1242.62	-13.0502
1242.9	17.4072
1243.18	-1.35806
1243.45	-7.55252
1243.73	12.4005
1244	1.96243
1244.28	-1.11429
1244.56	-30.4311
1244.83	-2.11121
1245.11	2.08307
1245.39	29.2825
1245.66	-13.7397
1245.94	1.87521
1246.21	10.1569
1246.49	-17.0777
1246.76	-0.319855
1247.04	-35.8655
1247.32	2.8963
1247.59	21.742
1247.87	7.12164
1248.14	-23.23
1248.42	38.3894
1248.7	8.01337
1248.97	13.2633
1249.25	-0.267212
1249.52	15.493
1249.8	12.3679
1250.08	-10.6145
1250.35	-10.5693
1250.63	9.25684
1250.9	14.4173
1251.18	7.04858
1251.45	2.82846
1251.73	3.84274
1252.01	-4.54385
1252.28	-3.53165
1252.56	12.0984
1252.83	2.66528
1253.11	10.9703
1253.39	10.9319
1253.66	-10.9818
1253.94	-33.8971
1254.21	4.81851
1254.49	12.2433
1254.76	-13.7286
1255.04	-12.611
1255.31	-7.3494
1255.59	-8.32208
1255.87	-3.06042
1256.14	-20.791
1256.42	-11.3351
1256.69	19.0226
1256.97	-8.03226
1257.24	-7.97247
1257.52	13.9814
1257.79	-7.96866
1258.07	-1.69772
1258.35	4.57733
1258.62	-15.2538
1258.9	6.66611
1259.17	16.0038
1259.45	-1.70874
1259.72	-14.1474
1260	1.60941
1260.27	15.3938
1260.55	-20.1736
1260.82	-16.0499
1261.1	15.1567
1261.37	30.7443
1261.65	-0.577454
1261.92	-11.9565
1262.2	15.5791
1262.48	1.52875
1262.75	25.8853
1263.02	9.5593
1263.3	15.3647
1263.58	-15.0248
1263.85	12.532
1264.13	59.8944
1264.4	54.0962
1264.68	90.9777
1264.95	66.6651
1265.23	43.5976
1265.5	41.5473
1265.78	20.6484
1266.05	18.5233
1266.33	17.5171
1266.6	31.1723
1266.88	19.7752
1267.15	6.30643
1267.43	-6.10416
1267.7	-7.00351
1267.98	0.475189
1268.25	11.1127
1268.53	-7.50778
1268.8	-29.3167
1269.08	6.41238
1269.35	-12.3385
1269.63	2.42084
1269.9	-24.8031
1270.18	-19.6074
1270.45	1.26147
1270.73	-0.876617
1271	-9.3056
1271.28	-7.23846
1271.55	-3.03757
1271.83	6.36765
1272.1	16.904
1272.38	-3.89066
1272.65	-0.596497
1272.93	-18.2065
1273.2	17.5534
1273.47	-1.15741
1273.75	6.32855
1274.03	0.186584
1274.3	7.67514
1274.57	-4.80246
1274.85	24.6287
1275.12	9.96832
1275.4	-10.9663
1275.67	-0.391418
1275.95	-13.9235
1276.22	7.17413
1276.5	10.4627
1276.77	-23.0149
1277.05	-8.19937
1277.32	-2.85159
1277.6	2.54056
1277.87	23.6944
1278.14	1.76791
1278.42	35.5277
1278.69	30.3943
1278.97	2.16479
1279.24	-17.7126
1279.52	3.43259
1279.79	11.8685
1280.07	-4.95212
1280.34	12.9232
1280.61	15.0532
1280.89	-0.648376
1281.16	-1.61945
1281.44	16.409
1281.71	-18.1502
1281.99	25.1021
1282.26	0.925903
1282.53	29.4292
1282.81	0.0422363
1283.08	45.2823
1283.36	13.5433
1283.63	88.9134
1283.91	78.2693
1284.18	153.96
1284.45	318.309
1284.73	550.559
1285	1029.17
1285.28	892.202
1285.55	524.053
1285.83	204.769
1286.1	103.75
1286.37	71.2568
1286.65	43.916
1286.92	13.3433
1287.2	8.11713
1287.47	38.6671
1287.75	-7.66986
1288.02	-2.4325
1288.29	10.1971
1288.57	12.3414
1288.84	12.3964
1289.12	-42.2583
1289.39	11.5223
1289.66	-4.15259
1289.94	8.59991
1290.21	18.2079
1290.49	6.73611
1290.76	-15.343
1291.03	13.0984
1291.31	16.2797
1291.58	11.0514
1291.86	47.954
1292.13	3.74805
1292.4	11.1684
1292.68	8.07928
1292.95	1.78131
1293.22	10.2194
1293.5	13.4444
1293.77	-17.9831
1294.05	13.8365
1294.32	17.2188
1294.59	-0.615112
1294.87	7.867
1295.14	19.4827
1295.42	12.2198
1295.69	-11.8301
1295.96	-11.5754
1296.24	17.2683
1296.51	-11.0509
1296.79	8.06058
1297.06	-4.56793
1297.33	-22.5326
1297.61	15.4902
1297.88	3.83008
1298.15	4.84085
1298.43	-4.72348
1298.7	27.0517
1298.97	19.6712
1299.25	-8.86057
1299.52	16.4696
1299.79	12.2266
1300.07	-19.3989
1300.34	23.998
1300.62	11.4166
1300.89	-4.36481
1301.16	11.5004
1301.44	-12.7527
1301.71	9.48511
1301.98	33.8879
1302.25	-21.9782
1302.53	-15.5625
1302.8	-11.2804
1303.08	-23.9153
1303.35	-13.3312
1303.62	20.4693
1303.9	-8.06992
1304.17	3.57721
1304.44	-11.1509
1304.72	14.2387
1304.99	18.5031
1305.26	-1.56152
1305.54	1.58228
1305.81	8.92657
1306.08	-9.05527
1306.35	-3.82858
1306.63	33.0552
1306.9	5.64377
1307.18	7.79803
1307.45	8.93451
1307.72	14.2664
1308	4.8147
1308.27	6.96744
1308.54	-7.73132
1308.81	-20.3647
1309.09	14.5097
1309.36	12.5107
1309.63	-12.7078
1309.91	0.0568848
1310.18	-12.5237
1310.45	17.062
1310.73	5.4744
1311	2.35571
1311.27	-4.9679
1311.55	9.875
1311.82	18.3835
1312.09	-2.64642
1312.37	-1.47647
1312.64	15.5213
1312.91	-1.29865
1313.18	15.6255
1313.46	0.827545
1313.73	0.860565
1314	10.3723
1314.28	13.5564
1314.55	-8.56345
1314.82	1.00668
1315.09	-10.52
1315.37	10.6912
1315.64	-17.7242
1315.91	-4.95483
1316.18	-9.08221
1316.46	-4.82678
1316.73	-9.02866
1317	5.78723
1317.28	-21.6344
1317.55	-6.80273
1317.82	10.199
1318.09	-16.1227
1318.37	0.850922
1318.64	6.19608
1318.91	-20.1592
1319.18	14.7529
1319.46	-8.45313
1319.73	25.3835
1320	22.2464
1320.28	17.0396
1320.55	3.35803
1320.82	10.7784
1321.09	4.42996
1321.37	-10.3953
1321.64	2.21289
1321.91	1.08047
1322.18	3.16769
1322.46	-5.33578
1322.73	10.4807
1323	0.98053
1323.27	-10.6293
1323.55	-16.981
1323.82	6.30603
1324.09	-5.228
1324.36	-0.956085
1324.64	13.8414
1324.91	-0.867188
1325.18	1.2778
1325.45	0.295898
1325.73	-3.97382
1326	7.49094
1326.27	-23.2317
1326.54	-18.183
1326.81	15.4227
1327.09	19.6474
1327.36	-0.163849
1327.63	27.5204
1327.9	-9.15466
1328.18	9.99536
1328.45	5.98074
1328.72	31.494
1328.99	-5.24847
1329.27	2.22076
1329.54	-5.16495
1329.81	-7.18689
1330.08	-3.99084
1330.35	-24.0183
1330.63	-1.86761
1330.9	-13.4919
1331.17	23.3688
1331.44	-5.16629
1331.71	10.5371
1331.99	30.4204
1332.26	-3.36737
1332.53	12.3606
1332.8	-3.49686
1333.07	14.2994
1333.35	-22.5986
1333.62	6.76126
1333.89	-6.97241
1334.16	37.0883
1334.43	10.7614
1334.71	3.35391
1334.98	-18.7383
1335.25	5.3699
1335.52	-11.4478
1335.79	21.0508
1336.07	-9.39246
1336.34	27.2981
1336.61	20.9919
1336.88	6.30566
1337.15	5.25906
1337.43	12.6068
1337.7	-1.00583
1337.97	11.5754
1338.24	13.6198
1338.51	7.28922
1338.78	9.3736
1339.06	15.6383
1339.33	2.02942
1339.6	-9.45276
1339.87	-3.10849
1340.14	9.5264
1340.42	-8.22009
1340.69	2.31418
1340.96	10.7526
1341.23	-0.728027
1341.5	-8.02856
1341.77	16.076
1342.04	3.51407
1342.32	5.59241
1342.59	18.1149
1342.86	20.1474
1343.13	20.0882
1343.4	17.987
1343.67	4.40707
1343.95	-4.9715
1344.22	4.48486
1344.49	9.76865
1344.76	-17.3764
1345.03	1.46075
1345.3	-16.3308
1345.58	10.8126
1345.85	10.7342
1346.12	7.54675
1346.39	-7.16183
1346.66	-5.21573
1346.93	3.05789
1347.2	-0.141754
1347.47	1.87079
1347.75	12.2366
1348.02	-2.38409
1348.29	5.95242
1348.56	-0.28833
1348.83	2.85696
1349.1	0.759003
1349.37	3.85959
1349.65	1.74689
1349.92	24.6341
1350.19	20.4418
1350.46	8.96527
1350.73	19.3484
1351	-3.59747
1351.27	-8.84921
1351.54	-10.9445
1351.81	20.2039
1352.09	-3.69681
1352.36	-10.9354
1352.63	-5.64532
1352.9	17.3672
1353.17	0.889038
1353.44	15.5664
1353.71	7.62067
1353.98	-15.9447
1354.25	13.9593
1354.53	-1.15152
1354.8	-8.77078
1355.07	17.2936
1355.34	14.2563
1355.61	-4.5347
1355.88	3.75104
1356.15	2.89035
1356.42	1.92853
1356.69	16.435
1356.96	35.1383
1357.24	0.874603
1357.51	-2.2326
1357.78	-4.31281
1358.05	1.9035
1358.32	15.3777
1358.59	1.85959
1358.86	25.707
1359.13	-3.37921
1359.4	9.04065
1359.67	17.3273
1359.94	6.95227
1360.22	12.081
1360.49	14.0826
1360.76	-6.70502
1361.03	-3.62201
1361.3	2.6087
1361.57	22.3296
1361.84	3.71567
1362.11	-11.7967
1362.38	-4.54575
1362.65	31.7025
1362.92	-8.67352
1363.19	12.067
1363.46	-13.7485
1363.73	-2.24716
1364	-15.6184
1364.28	23.8369
1364.55	22.8422
1364.82	27.0041
1365.09	11.4706
1365.36	-6.15808
1365.63	13.4742
1365.9	22.7409
1366.17	-2.14093
1366.44	-8.38834
1366.71	-2.2251
1366.98	4.94846
1367.25	18.2979
1367.52	-3.4234
1367.79	-10.6492
1368.06	15.2843
1368.33	41.2016
1368.6	-12.4802
1368.87	-15.5135
1369.15	-14.4126
1369.41	6.34149
1369.68	25.0255
1369.95	30.191
1370.23	18.8179
1370.5	30.1871
1370.77	-1.90964
1371.04	-14.313
1371.31	-10.2036
1371.58	3.16376
1371.85	-4.14676
1372.12	31.8696
1372.39	0.807343
1372.66	2.78104
1372.93	-0.368805
1373.2	2.70343
1373.47	-1.42584
1373.74	-7.61243
1374.01	-10.6979
1374.28	33.6217
1374.55	7.87909
1374.82	2.74689
1375.09	8.94241
1375.36	12.0277
1375.63	1.78693
1375.9	12.1815
1376.17	7.06543
1376.44	13.3135
1376.71	-3.22299
1376.98	-1.21176
1377.25	27.5293
1377.52	-3.46512
1377.79	11.0339
1378.06	0.884766
1378.33	18.5866
1378.6	-4.86816
1378.87	31.4627
1379.14	-31.3165
1379.41	-7.57272
1379.68	15.1008
1379.95	29.5181
1380.22	33.5986
1380.49	30.3744
1380.76	1.26825
1381.03	-13.2669
1381.3	11.3206
1381.57	1.14331
1381.84	-8.1665
1382.11	25.6217
1382.38	33.6816
1382.65	1.71832
1382.92	23.1794
1383.19	16.9113
1383.46	-0.5961
1383.73	1.38724
1384	8.54025
1384.27	16.7298
1384.54	43.443
1384.81	44.5483
1385.08	45.6943
1385.34	47.906
1385.61	49.1426
1385.88	45.1938
1386.15	41.2235
1386.42	47.4834
1386.69	53.7762
1386.96	105.218
1387.23	183.316
1387.5	332.755
1387.77	703.266
1388.04	1403
1388.31	1724.98
1388.58	899.687
1388.85	373.93
1389.12	199.432
1389.39	125.915
1389.66	96.2209
1389.93	53.1896
1390.2	64.3787
1390.46	19.9671
1390.73	41.3972
1391	39.3739
1391.27	17.7219
1391.54	11.5804
1391.81	32.0823
1392.08	19.7362
1392.35	32.9906
1392.62	0.171082
1392.89	-11.1139
1393.16	26.7561
1393.43	12.4206
1393.7	6.28183
1393.97	-5.99295
1394.23	4.2518
1394.5	22.6859
1394.77	22.7028
1395.04	12.4966
1395.31	14.6269
1395.58	-12.8996
1395.85	10.7281
1396.12	5.67017
1396.39	20.0303
1396.66	38.4619
1396.93	20.0325
1397.2	14.9064
1397.46	2.5965
1397.73	-10.7305
1398	3.59521
1398.27	-0.458984
1398.54	7.79074
1398.81	22.1996
1399.08	22.2686
1399.35	4.93753
1399.62	8.11353
1399.89	4.10278
1400.16	-11.1725
1400.42	31.8526
1400.69	5.33554
1400.96	13.6643
1401.23	20.9198
1401.5	18.8976
1401.77	0.551453
1402.04	26.1924
1402.31	12.027
1402.58	4.08749
1402.84	18.7209
1403.11	8.67517
1403.38	24.2358
1403.65	1.75195
1403.92	6.92932
1404.19	0.732208
1404.46	20.0515
1404.73	-7.55203
1404.99	-2.41495
1405.26	27.3295
1405.53	-14.7525
1405.8	-2.47464
1406.07	23.1314
1406.34	11.8309
1406.61	22.08
1406.87	4.66437
1407.14	3.69699
1407.41	14.015
1407.68	24.3395
1407.95	24.4036
1408.22	31.6439
1408.49	35.8085
1408.76	82.0157
1409.02	84.1404
1409.29	170.371
1409.56	139.686
1409.83	141.818
1410.1	78.2864
1410.37	54.7334
1410.63	32.1245
1410.9	17.6969
1411.17	20.6893
1411.44	12.4382
1411.71	8.31204
1411.98	-13.2139
1412.25	13.4486
1412.51	12.5179
1412.78	21.8927
1413.05	22.1805
1413.32	26.8021
1413.59	18.8675
1413.86	-3.98184
1414.12	-14.6852
1414.39	21.3269
1414.66	2.13327
1414.93	-2.78564
1415.2	-12.0109
1415.47	23.974
1415.73	0.401184
1416	12.7714
1416.27	-1.5329
1416.54	7.78171
1416.81	7.85806
1417.07	-14.66
1417.34	11.1024
1417.61	21.4605
1417.88	15.3766
1418.15	1.05157
1418.42	36.0349
1418.68	25.8142
1418.95	23.8164
1419.22	-13.1372
1419.49	1.2962
1419.76	-7.95453
1420.02	29.0026
1420.29	26.9056
1420.56	0.165863
1420.83	8.34198
1421.1	15.4836
1421.36	27.7668
1421.63	-5.07483
1421.9	19.6184
1422.17	4.36032
1422.44	15.8229
1422.7	17.0193
1422.97	-14.5993
1423.24	15.5823
1423.51	-1.54175
1423.77	-3.41125
1424.04	18.4062
1424.31	14.4473
1424.58	5.9147
1424.85	14.1509
1425.11	-8.24677
1425.38	-2.82867
1425.65	22.8978
1425.92	33.1345
1426.19	13.8199
1426.45	-4.63617
1426.72	23.0274
1426.99	15.7844
1427.26	-1.71289
1427.52	9.48831
1427.79	10.3932
1428.06	7.23163
1428.33	13.3504
1428.59	-7.11551
1428.86	6.23657
1429.13	32.9182
1429.4	-6.94925
1429.67	15.6611
1429.93	9.61166
1430.2	24.0735
1430.47	22.1662
1430.74	29.4617
1431	-8.31842
1431.27	55.4791
1431.54	-4.88269
1431.81	15.744
1432.07	22.9659
1432.34	11.6412
1432.61	13.638
1432.87	6.43454
1433.14	3.27863
1433.41	14.45
1433.68	7.1485
1433.95	-6.28201
1434.21	14.1451
1434.48	11.0694
1434.75	6.16074
1435.01	2.1767
1435.28	1.20282
1435.55	9.43802
1435.82	0.241882
1436.08	13.5803
1436.35	13.5912
1436.62	22.8204
1436.89	-2.79276
1437.15	0.279175
1437.42	12.5732
1437.69	8.50018
1437.95	17.7099
1438.22	5.43536
1438.49	-8.84933
1438.76	18.8977
1439.02	1.55273
1439.29	52.8226
1439.56	24.1929
1439.82	5.8443
1440.09	19.2887
1440.36	27.6343
1440.63	26.6931
1440.89	2.14157
1441.16	-12.1748
1441.43	24.7977
1441.69	33.0052
1441.96	-21.3678
1442.23	26.8195
1442.49	4.37589
1442.76	16.7247
1443.03	14.7847
1443.3	14.7693
1443.56	39.3455
1443.83	20.8665
1444.1	29.0616
1444.36	11.6535
1444.63	44.516
1444.9	30.3122
1445.16	21.2118
1445.43	3.92758
1445.7	38.8124
1445.97	16.2375
1446.23	14.186
1446.5	-11.4564
1446.77	40.8571
1447.03	18.2954
1447.3	15.2211
1447.57	29.5706
1447.83	18.2745
1448.1	-9.41202
1448.37	25.474
1448.63	26.6011
1448.9	16.4668
1449.17	22.6768
1449.43	40.14
1449.7	8.34454
1449.97	23.7094
1450.23	24.7022
1450.5	13.3932
1450.77	23.6427
1451.03	31.8437
1451.3	35.9431
1451.57	11.3447
1451.83	16.4616
1452.1	22.6033
1452.37	15.4329
1452.63	18.5216
1452.9	37.0001
1453.17	18.6087
1453.43	-4.88367
1453.7	39.2493
1453.97	3.41501
1454.23	1.37061
1454.5	8.55423
1454.77	-19.0821
1455.03	0.419128
1455.3	22.9826
1455.56	20.9382
1455.83	15.8539
1456.1	25.1753
1456.36	1.66971
1456.63	22.1986
1456.9	16.0471
1457.16	13.9629
1457.43	31.3493
1457.7	-2.45789
1457.96	4.71948
1458.23	11.9051
1458.49	15.0107
1458.76	2.75735
1459.03	29.4449
1459.29	-1.24167
1459.56	3.92386
1459.82	10.1094
1460.09	29.5916
1460.36	-11.3842
1460.62	10.133
1460.89	18.326
1461.16	8.07141
1461.42	7.02792
1461.69	-10.3989
1461.95	-3.2543
1462.22	26.4007
1462.49	18.1699
1462.75	-9.508
1463.02	34.436
1463.28	6.75552
1463.55	-8.64447
1463.82	19.9359
1464.08	25.0631
1464.35	11.9198
1464.61	20.3098
1464.88	-17.3934
1465.15	2.2565
1465.41	4.04767
1465.68	15.6571
1465.94	12.3104
1466.21	13.322
1466.48	5.30167
1466.74	-18.1816
1467.01	17.4023
1467.27	-0.983521
1467.54	-14.1829
1467.8	13.3675
1468.07	34.7906
1468.34	-1.92139
1468.6	8.30054
1468.87	-4.94046
1469.13	-7.99359
1469.4	-3.92206
1469.67	1.16003
1469.93	-3.98083
1470.2	-3.01962
1470.46	12.226
1470.73	-14.2928
1470.99	17.2791
1471.26	5.05228
1471.53	-0.0649719
1471.79	-2.14667
1472.06	10.0507
1472.32	14.124
1472.59	12.1001
1472.85	14.1532
1473.12	-2.12238
1473.39	14.1671
1473.65	15.1565
1473.92	21.2334
1474.18	-5.24725
1474.45	5.94769
1474.71	-5.22086
1474.98	-11.2681
1475.24	-5.11093
1475.51	-10.1687
1475.78	26.4874
1476.04	-5.07074
1476.31	-14.2511
1476.57	-25.4515
1476.84	7.10165
1477.1	13.1718
1477.37	1.94788
1477.63	4.99426
1477.9	13.1429
1478.16	22.3119
1478.43	6.02386
1478.69	-2.15582
1478.96	2.89926
1479.22	26.2464
1479.49	-13.4252
1479.76	-5.33804
1480.02	15.9408
1480.29	8.77713
1480.55	-3.51401
1480.82	16.7052
1481.08	4.47873
1481.35	7.51422
1481.61	8.49045
1481.88	14.6377
1482.14	2.54752
1482.41	6.69983
1482.67	36.2404
1482.94	7.90125
1483.2	0.81842
1483.47	-19.4193
1483.73	2.96918
1484	6.04181
1484.26	-2.06937
1484.53	23.1848
1484.79	-5.41223
1485.06	-10.8393
1485.32	29.1881
1485.59	4.74393
1485.85	-8.65762
1486.12	-4.76602
1486.38	5.49506
1486.65	-2.4498
1486.91	2.25406
1487.18	4.49313
1487.44	3.56073
1487.71	8.54166
1487.97	1.38983
1488.24	1.36319
1488.5	9.42856
1488.77	-7.83948
1489.03	-9.9259
1489.3	10.2706
1489.56	8.22968
1489.83	-1.89554
1490.09	11.2554
1490.36	0.14859
1490.62	-11.9725
1490.89	10.2623
1491.15	-4.9585
1491.42	9.15057
1491.68	4.08365
1491.95	3.08008
1492.21	19.2787
1492.48	8.19809
1492.74	-1.9006
1493	16.3013
1493.27	2.15915
1493.53	3.19318
1493.8	8.24521
1494.06	12.298
1494.33	13.3374
1494.59	-1.77753
1494.86	29.6175
1495.12	25.5817
1495.39	-7.81375
1495.65	-15.9792
1495.92	1.09094
1496.18	-10.0996
1496.45	18.1298
1496.71	-17.2333
1496.97	-31.385
1497.24	-21.3146
1497.5	-9.18314
1497.77	-2.09824
1498.03	-3.10507
1498.3	-14.1917
1498.56	-10.1288
1498.82	-9.08862
1499.09	8.10388
1499.35	28.3292
1499.62	-0.893982
1499.88	-15.9809
1500.15	18.3967
1500.41	-9.83496
1500.68	-5.77649
1500.94	10.3869
1501.2	-15.8495
1501.47	10.3806
1501.73	-2.78906
1502	3.26608
1502.26	16.3965
1502.52	1.26776
1502.79	20.4266
1503.05	-4.85229
1503.32	16.2797
1503.58	9.19827
1503.85	2.0954
1504.11	11.1911
1504.37	2.17389
1504.64	-7.87143
1504.9	-4.82104
1505.17	6.27747
1505.43	-0.796692
1505.7	2.19461
1505.96	4.12955
1506.22	9.05856
1506.49	11.0701
1506.75	11.0807
1507.02	15.1491
1507.28	-5.93387
1507.54	-15.9743
1507.81	-4.85178
1508.07	2.22107
1508.34	-9.87338
1508.6	10.2809
1508.86	-6.81891
1509.13	-9.80676
1509.39	1.30478
1509.66	-1.70145
1509.92	15.4489
1510.18	4.42734
1510.45	0.441956
1510.71	-4.6438
1510.98	-10.7361
1511.24	18.4127
1511.5	6.24481
1511.77	5.11099
1512.03	35.1195
1512.29	-1.26431
1512.56	9.63364
1512.82	9.49826
1513.08	-2.62903
1513.35	1.32626
1513.61	1.27756
1513.88	6.28836
1514.14	3.38443
1514.4	-8.5054
1514.67	-8.44907
1514.93	8.60724
1515.2	-2.5022
1515.46	-1.57333
1515.72	-4.65494
1515.99	-6.74905
1516.25	-2.82193
1516.51	-8.8938
1516.78	5.13168
1517.04	-23.955
1517.3	14.1444
1517.57	0.118958
1517.83	-11.8852
1518.09	-3.81671
1518.36	-2.72699
1518.62	-10.71
1518.88	7.39114
1519.15	4.42499
1519.41	-7.55948
1519.67	4.52884
1519.94	11.5915
1520.2	20.6336
1520.47	1.5593
1520.73	-16.5015
1520.99	12.6321
1521.26	0.651184
1521.52	16.7591
1521.78	0.739075
1522.05	8.77246
1522.31	4.74707
1522.57	0.714508
1522.84	-7.33255
1523.1	3.68399
1523.36	11.6667
1523.62	4.55789
1523.89	13.452
1524.15	22.3896
1524.41	-9.72287
1524.68	1.25235
1524.94	8.22495
1525.2	10.2912
1525.47	21.346
1525.73	-9.66574
1525.99	-0.578308
1526.26	11.5322
1526.52	0.629486
1526.78	-6.29099
1527.05	-16.2657
1527.31	-8.23398
1527.57	-6.25916
1527.84	-4.25705
1528.1	8.76059
1528.36	20.7749
1528.63	-6.30112
1528.89	-13.3311
1529.15	0.681702
1529.41	-12.3374
1529.68	8.71133
1529.94	-0.306671
1530.2	27.6954
1530.47	-10.3532
1530.73	-1.28702
1530.99	20.8441
1531.25	-15.1247
1531.52	-4.02847
1531.78	-11.0143
1532.04	22.0487
1532.31	21.0776
1532.57	-18.0262
1532.83	-2.93497
1533.09	2.19278
1533.36	-8.68506
1533.62	16.5194
1533.88	-2.465
1534.15	22.6635
1534.41	17.6649
1534.67	9.63934
1534.94	6.62183
1535.2	17.6354
1535.46	-7.44891
1535.72	7.54385
1535.99	12.3909
1536.25	9.29208
1536.51	-21.8216
1536.77	13.1266
1537.04	-9.01285
1537.3	3.89929
1537.56	-5.13538
1537.82	3.80447
1538.09	-1.17242
1538.35	12.7748
1538.61	16.6768
1538.87	2.66388
1539.14	-11.3449
1539.4	-0.230743
1539.66	16.002
1539.92	6.28729
1540.19	6.49316
1540.45	-13.3714
1540.71	-28.236
1540.97	-13.0832
1541.24	11.0445
1541.5	-4.12622
1541.76	-6.12823
1542.02	1.81204
1542.29	-5.27127
1542.55	3.67398
1542.81	2.60168
1543.07	12.5488
1543.34	5.47839
1543.6	1.40543
1543.86	-8.6962
1544.12	-3.79541
1544.39	-7.75949
1544.65	-7.71811
1544.91	4.38004
1545.17	1.50906
1545.43	-0.392975
1545.7	-1.23007
1545.96	-3.13492
1546.22	-11.0812
1546.48	15.0227
1546.74	13.0172
1547.01	-9.98407
1547.27	9.11078
1547.53	9.17551
1547.79	11.2391
1548.06	9.1741
1548.32	17.0125
1548.58	15.0291
1548.84	-3.95697
1549.1	-18.8568
1549.37	-6.14279
1549.63	29.5013
1549.89	7.44553
1550.15	12.6718
1550.42	-5.93961
1550.68	-1.37216
1550.94	11.0876
1551.2	-5.60962
1551.46	15.2552
1551.73	1.25497
1551.99	3.20993
1552.25	15.159
1552.51	2.29465
1552.77	15.5214
1553.03	17.5013
1553.3	-6.6842
1553.56	15.1506
1553.82	7.0856
1554.08	4.06552
1554.34	14.0404
1554.61	-3.09073
1554.87	13.8477
1555.13	-15.3203
1555.39	2.68787
1555.65	34.7387
1555.91	21.7339
1556.18	14.7659
1556.44	25.8094
1556.7	17.7574
1556.96	15.7787
1557.22	-17.2335
1557.48	-3.16873
1557.75	-6.14771
1558.01	-6.14743
1558.27	21.8511
1558.53	4.72925
1558.79	-15.3621
1559.06	-0.449219
1559.32	21.4684
1559.58	24.3869
1559.84	2.3255
1560.1	15.2777
1560.36	5.24854
1560.63	3.23117
1560.89	28.2066
1561.15	-2.77615
1561.41	-22.746
1561.67	10.2773
1561.93	-5.62799
1562.19	3.48795
1562.46	-3.3847
1562.72	1.63925
1562.98	-5.35916
1563.24	-13.3681
1563.5	-10.3313
1563.76	-12.3455
1564.02	0.652405
1564.29	1.79968
1564.55	-5.04465
1564.81	-12.9868
1565.07	30.0396
1565.33	-3.16479
1565.59	14.2002
1565.85	14.3103
1566.11	-1.06412
1566.38	-28.5313
1566.64	2.88882
1566.9	10.719
1567.16	16.4875
1567.42	-6.17807
1567.68	12.1658
1567.94	-27.9135
1568.2	1.86276
1568.47	14.9232
1568.73	0.997345
1568.99	11.0424
1569.25	19.0259
1569.51	37.897
1569.77	16.8464
1570.03	-1.11804
1570.29	15.9199
1570.55	-9.03668
1570.82	-16.0077
1571.08	10.9894
1571.34	-7.99496
1571.6	29.9651
1571.86	7.94348
1572.12	-2.09125
1572.38	3.91071
1572.64	15.8702
1572.9	6.82983
1573.17	9.79147
1573.43	7.76257
1573.69	6.72372
1573.95	-15.2638
1574.21	4.72403
1574.47	0.816925
1574.73	6.91037
1574.99	18.0033
1575.25	4.13403
1575.51	17.2307
1575.78	2.32944
1576.04	-14.6228
1576.3	10.3552
1576.56	21.3605
1576.82	21.3373
1577.08	-25.7091
1577.34	2.14038
1577.6	-8.94949
1577.86	-16.0356
1578.12	-1.16235
1578.38	-9.22638
1578.64	15.6537
1578.9	29.6085
1579.17	-9.2554
1579.43	16.6817
1579.69	18.699
1579.95	8.77094
1580.21	3.85867
1580.47	2.90799
1580.73	14.9016
1580.99	2.94016
1581.25	7.9039
1581.51	8.86292
1581.77	24.783
1582.03	-2.18179
1582.29	3.7403
1582.55	11.7039
1582.81	10.7019
1583.07	14.6776
1583.33	20.6528
1583.59	4.7244
1583.85	19.6757
1584.11	-6.23648
1584.38	8.7222
1584.64	22.7186
1584.9	-18.0754
1585.16	10.8463
1585.42	21.8201
1585.68	-9.05872
1585.94	19.8377
1586.2	6.87424
1586.46	1.83081
1586.72	-16.1562
1586.98	19.6331
1587.24	-11.2469
1587.5	13.6125
1587.76	6.63599
1588.02	8.62811
1588.28	22.58
1588.54	12.6813
1588.8	-9.14865
1589.06	19.7855
1589.32	-6.02765
1589.58	-10.9399
1589.84	12.0116
1590.1	-0.898285
1590.36	6.09048
1590.62	-22.7355
1590.88	-12.7176
1591.14	-16.6486
1591.4	13.2385
1591.66	15.2481
1591.92	0.306183
1592.18	4.27243
1592.44	25.1173
1592.7	16.0599
1592.96	5.04843
1593.22	20.9298
1593.48	7.88425
1593.74	-2.18094
1594	-11.2505
1594.26	2.5881
1594.52	31.3639
1594.78	32.3778
1595.04	4.63052
1595.3	0.749939
1595.56	14.7303
1595.82	13.7574
1596.08	-2.28259
1596.34	-18.1612
1596.6	-10.1953
1596.86	19.6251
1597.12	-16.0976
1597.38	-9.0997
1597.64	6.84634
1597.9	22.7944
1598.16	11.8774
1598.42	33.717
1598.68	0.892059
1598.94	0.815796
1599.2	8.69077
1599.46	17.5757
1599.72	-7.27582
1599.98	13.5214
1600.24	-1.40109
1600.5	12.4472
1600.76	-4.46176
1601.02	12.3263
1601.28	6.2858
1601.54	12.1309
1601.8	7.07968
1602.06	-10.8214
1602.32	19.8168
1602.58	0.958282
1602.84	-8.99396
1603.1	15.6762
1603.36	-5.15726
1603.62	8.64359
1603.88	-19.069
1604.14	-9.18884
1604.4	-17.0858
1604.66	28.4227
1604.92	7.69095
1605.17	2.77185
1605.43	-3.13199
1605.69	-9.03073
1605.95	-1.06985
1606.21	25.6962
1606.47	-3.90701
1606.73	-5.81851
1606.99	6.11203
1607.25	7.11383
1607.51	10.962
1607.77	19.7443
1608.03	1.96573
1608.29	13.0987
1608.55	2.92996
1608.81	2.10349
1609.07	-7.00842
1609.32	6.77924
1609.58	-8.17288
1609.84	12.7367
1610.1	-1.08978
1610.36	8.9646
1610.62	-1.34744
1610.88	2.7811
1611.14	8.10785
1611.4	-4.38351
1611.66	-1.30225
1611.92	4.59143
1612.18	-5.13229
1612.44	11.5208
1612.69	-1.95346
1612.95	5.78903
1613.21	6.35504
1613.47	-4.81964
1613.73	0.845947
1613.99	-19.9544
1614.25	0.978302
1614.51	-3.0369
1614.77	11.0049
1615.03	6.57568
1615.29	5.67682
1615.54	-11.1413
1615.8	10.6458
1616.06	1.84039
1616.32	-4.13889
1616.58	-16.5415
1616.84	-3.18051
1617.1	6.20547
1617.36	9.28012
1617.62	4.47977
1617.88	13.7834
1618.13	-3.96893
1618.39	-0.813141
1618.65	-9.63083
1618.91	2.13644
1619.17	-0.161591
1619.43	6.18591
1619.69	-8.22885
1619.95	1.04379
1620.2	-4.4946
1620.46	-2.74274
1620.72	0.58313
1620.98	1.1615
1621.24	-5.07208
1621.5	-2.45215
1621.76	-7.04889
1622.02	3.78485
1622.27	-1.19418
1622.53	3.99557
1622.79	-1.53079
1623.05	-4.56677
1623.31	9.12601
1623.57	-2.43362
1623.83	-9.508
1624.09	10.1355
1624.34	1.54797
1624.6	-4.61533
1624.86	-4.32959
1625.12	-2.53302
1625.38	0.323761
1625.64	6.95956
1625.9	7.39642
1626.15	3.40472
1626.41	9.43604
1626.67	3.52765
1626.93	3.40472
1627.19	-0.314087
1627.45	-5.19855
1627.7	2.08066
1627.96	10.0931
1628.22	7.75388
1628.48	2.99622
1628.74	7.4151
1629	12.3638
1629.26	8.48114
1629.51	6.98145
1629.77	10.8994
1630.03	16.6104
1630.29	-10.2754
1630.55	-15.6106
1630.81	-6.51636
1631.06	-5.23764
1631.32	14.2063
1631.53	16.6254
1631.79	4.88379
1632.05	-3.89349
1632.31	4.0752
1632.57	-17.6006
1632.84	7.16135
1633.1	-13.3423
1633.36	-10.4848
1633.62	-4.72754
1633.88	4.12384
1634.14	5.18369
1634.4	-2.62
1634.66	-0.606537
1634.93	25.0544
1635.19	29.0153
1635.45	-17.3019
1635.71	7.34076
1635.97	28.0303
1636.23	8.30603
1636.49	-3.53882
1636.75	-2.57422
1637.02	-8.50919
1637.28	11.1562
1637.54	-16.4592
1637.8	6.1792
1638.06	7.17474
1638.32	4.2117
1638.58	-7.61475
1638.84	-8.60202
1639.1	5.20633
1639.37	8.18433
1639.63	5.25122
1639.89	9.21005
1640.15	9.22775
1640.41	-0.604797
1640.67	-0.570007
1640.93	31.0263
1641.19	-7.29932
1641.46	19.3256
1641.72	-13.1701
1641.98	-8.2608
1642.24	-18.1065
1642.5	11.4322
1642.76	2.58069
1643.02	5.54169
1643.28	9.49017
1643.54	-12.1489
1643.8	4.59857
1644.06	-13.1227
1644.33	18.3544
1644.59	1.59262
1644.85	-1.38232
1645.11	17.322
1645.37	-9.18927
1645.63	-13.0551
1645.89	0.772247
1646.15	-9.03979
1646.41	-4.13052
1646.67	-4.14859
1646.93	2.72464
1647.19	-1.20975
1647.46	-2.20572
1647.72	7.61459
1647.98	-5.17905
1648.24	23.3565
1648.5	27.3292
1648.76	-0.121155
1649.02	-4.94693
1649.28	7.06534
1649.54	13.0685
1649.8	20.9277
1650.06	39.6118
1650.32	35.6964
1650.58	-8.47073
1650.85	11.3348
1651.11	3.54694
1651.37	12.5077
1651.63	-4.17169
1651.89	7.69778
1652.15	17.5785
1652.41	-7.03259
1652.67	-6.99393
1652.93	19.6016
1653.19	14.654
1653.45	4.80588
1653.71	-6.99121
1653.97	-23.7006
1654.23	12.8168
1654.49	37.5021
1654.75	1.07892
1655.01	-2.81433
1655.27	3.1694
1655.53	31.8578
1655.8	8.3262
1656.06	5.52158
1656.32	4.64618
1656.57	5.71429
1656.84	11.6939
1657.1	-4.0585
1657.36	-4.04358
1657.62	-5.03656
1657.88	19.6227
1658.14	0.872528
1658.4	9.75162
1658.66	22.5638
1658.92	-11.0073
1659.18	-7.08725
1659.44	13.5969
1659.7	2.72018
1659.96	7.6214
1660.22	4.61026
1660.48	15.5089
1660.74	15.5813
1661	10.7331
1661.26	-15.8071
1661.52	5.98447
1661.78	-1.80994
1662.04	12.0601
1662.3	14.0871
1662.56	4.90207
1662.82	4.61868
1663.08	-7.83832
1663.34	18.6818
1663.6	-2.0892
1663.86	26.4985
1664.12	1.09033
1664.38	-18.2495
1664.64	7.52673
1664.9	-7.22644
1665.16	7.78967
1665.42	11.8401
1665.68	9.49615
1665.94	15.0982
1666.2	2.23297
1666.46	1.34604
1666.72	6.2775
1666.98	0.862305
1667.24	-7.10352
1667.5	-4.08188
1667.76	-6.10684
1668.02	6.68918
1668.28	14.5708
1668.54	1.70905
1668.8	7.66211
1669.06	-2.0199
1669.32	8.08078
1669.58	-8.64578
1669.84	-8.61304
1670.1	-7.58728
1670.36	-0.684082
1670.62	-10.5357
1670.88	14.3725
1671.14	-2.28458
1671.4	9.56638
1671.66	6.59796
1671.92	15.5025
1672.18	11.5904
1672.44	15.6013
1672.69	33.4323
1672.95	13.6856
1673.21	4.81253
1673.47	-10.9688
1673.73	-1.04288
1673.99	13.8365
1674.25	7.96786
1674.51	15.9537
1674.77	17.0138
1675.03	-5.66379
1675.29	10.2574
1675.55	9.34909
1675.81	17.3234
1676.07	-11.3453
1676.33	14.4048
1676.59	1.57736
1676.85	16.467
1677.11	-6.26138
1677.37	11.5739
1677.63	-7.22522
1677.89	16.519
1678.14	15.5026
1678.4	1.60693
1678.66	23.3145
1678.92	20.3051
1679.18	11.3801
1679.44	-1.49094
1679.7	6.41315
1679.96	-10.4016
1680.22	15.2854
1680.48	-8.43542
1680.74	-18.3271
1681	-3.51477
1681.26	-8.4603
1681.52	9.33109
1681.78	17.2532
1682.03	4.43237
1682.29	9.39685
1682.55	16.3409
1682.81	7.4827
1683.07	8.4809
1683.33	1.58078
1683.59	10.4926
1683.85	17.4325
1684.11	1.64206
1684.37	7.5715
1684.63	12.48
1684.89	-2.33868
1685.14	27.2937
1685.4	12.4943
1685.66	-1.31168
1685.92	20.4359
1686.18	11.5769
1686.44	10.6231
1686.7	15.6161
1686.96	7.81427
1687.22	0.961426
1687.48	-0.981171
1687.73	-2.95813
1687.99	0.977631
1688.25	24.6653
1688.51	12.805
1688.77	17.7278
1689.03	0.915558
1689.29	-13.9399
1689.55	-0.15509
1689.81	2.76859
1690.06	-8.12701
1690.32	7.60223
1690.58	-8.17511
1690.84	4.75363
1691.1	0.878754
1691.36	-11.8914
1691.62	5.91318
1691.88	-13.7606
1692.13	-4.82269
1692.39	10.9947
1692.65	16.9213
1692.91	24.787
1693.17	6.98236
1693.43	7.91309
1693.69	9.81387
1693.95	-10.9699
1694.2	23.4824
1694.46	54.9669
1694.72	7.6189
1694.98	2.66675
1695.24	6.62708
1695.5	17.5094
1695.76	12.6297
1696.01	8.73544
1696.27	-7.96393
1696.53	9.84619
1696.79	16.804
1697.05	10.9135
1697.31	2.03641
1697.57	-9.82642
1697.82	-16.7828
1698.08	-1.09003
1698.34	9.69128
1698.6	6.70139
1698.86	13.5573
1699.12	-5.16348
1699.38	-4.17914
1699.63	-3.17862
1699.89	10.642
1700.15	7.71848
1700.41	0.861664
1700.67	5.74188
1700.92	0.832581
1701.18	13.6312
1701.44	27.4079
1701.7	11.6618
1701.96	1.79382
1702.22	-3.16699
1702.47	8.59354
1702.73	6.58209
1702.99	22.2657
1703.25	16.3736
1703.51	-10.1421
1703.77	13.4428
1704.02	-10.146
1704.28	4.59525
1704.54	10.5479
1704.8	2.76022
1705.06	31.2943
1705.32	-2.10791
1705.57	18.5295
1705.83	15.6071
1706.09	-5.00143
1706.35	21.4955
1706.61	24.3885
1706.86	1.74069
1707.12	26.2215
1707.38	4.56134
1707.64	8.43558
1707.9	-7.33087
1708.16	20.0459
1708.41	3.28784
1708.67	4.18176
1708.93	7.01764
1709.19	-15.5983
1709.44	9.80933
1709.7	9.78128
1709.96	1.94974
1710.22	18.6113
1710.48	10.8121
1710.73	2.03775
1710.99	6.98752
1711.25	9.02432
1711.51	7.12476
1711.77	17.9551
1712.02	18.0079
1712.28	1.38742
1712.54	14.1063
1712.8	5.21814
1713.06	9.01315
1713.31	2.0369
1713.57	16.5909
1713.83	8.66415
1714.09	-5.12521
1714.34	-12.0019
1714.6	-1.27362
1714.86	9.46387
1715.12	-0.298615
1715.38	8.51083
1715.63	-26.5702
1715.89	2.83829
1716.15	-5.93268
1716.41	17.5123
1716.66	1.85513
1716.92	10.5958
1717.18	-16.8187
1717.44	8.46713
1717.69	9.31778
1717.95	-7.41116
1718.21	10.0101
1718.47	5.02701
1718.72	-0.90802
1718.98	-7.77591
1719.24	3.89087
1719.5	12.6718
1719.75	16.5876
1720.01	4.90906
1720.27	18.5909
1720.53	3.0524
1720.78	25.4358
1721.04	11.7656
1721.3	12.6665
1721.56	-1.00586
1721.81	-9.80496
1722.07	4.73135
1722.33	5.64142
1722.59	2.65948
1722.84	22.0317
1723.1	1.56659
1723.36	-9.1676
1723.62	-1.43109
1723.87	-8.24356
1724.13	-14.0484
1724.39	20.9034
1724.64	-2.39252
1724.9	13.109
1725.16	16.9214
1725.42	3.22211
1725.67	7.97159
1725.93	1.07663
1726.19	19.4307
1726.45	-11.5979
1726.7	-2.82605
1726.96	8.80157
1727.22	-0.915192
1727.47	-2.95001
1727.73	9.65738
1727.99	-1.85754
1728.24	-6.69794
1728.5	-6.72995
1728.76	16.4031
1729.02	-8.24362
1729.27	22.1516
1729.53	6.53186
1729.79	-23.1664
1730.05	-3.65619
1730.3	16.7935
1730.56	-1.75
1730.82	-4.71503
1731.07	20.3744
1731.33	17.9146
1731.59	-1.36456
1731.84	20.8958
1732.1	-0.349335
1732.36	13.1848
1732.61	9.30963
1732.87	1.56659
1733.13	-12.9517
1733.39	-0.441559
1733.64	5.27167
1733.9	-12.2153
1734.16	13.7186
1734.41	-13.3706
1734.67	3.90527
1734.93	-9.6763
1735.18	-17.4688
1735.44	-14.6585
1735.7	5.495
1735.95	3.52124
1736.21	0.604767
1736.47	-2.28989
1736.72	-9.99945
1736.98	15.9626
1737.24	1.50616
1737.49	10.1385
1737.75	7.2298
1738.01	21.6364
1738.26	-12.0587
1738.52	2.3165
1738.78	-4.46017
1739.03	24.3227
1739.29	5.0441
1739.55	4.00711
1739.8	-1.85971
1740.06	18.1637
1740.32	6.52258
1740.57	0.660858
1740.83	-2.29861
1741.09	3.39224
1741.34	3.33899
1741.6	15.7396
1741.86	8.02893
1742.11	23.3166
1742.37	4.15305
1742.63	1.28516
1742.88	3.19693
1743.14	5.09995
1743.4	5.10275
1743.65	-7.32513
1743.91	-7.33395
1744.16	-5.46454
1744.42	18.4191
1744.68	-8.39413
1744.93	-9.34988
1745.19	-15.065
1745.45	-8.33908
1745.7	4.12033
1745.96	-3.52484
1746.22	-10.2375
1746.47	-1.6745
1746.73	20.2472
1746.98	-3.72818
1747.24	0.994293
1747.5	3.78571
1747.75	1.82047
1748.01	13.2202
1748.27	3.65805
1748.52	6.53821
1748.78	14.204
1749.03	-6.75818
1749.29	-8.61984
1749.55	-10.4661
1749.8	8.71185
1750.06	1.16492
1750.32	5.08984
1750.57	-2.44849
1750.83	7.20715
1751.08	11.084
1751.34	-1.27829
1751.6	11.1844
1751.85	6.38382
1752.11	-15.6713
1752.36	7.18124
1752.62	-9.11209
1752.88	-0.565033
1753.13	2.24576
1753.39	38.463
1753.64	-24.5688
1753.9	4.02527
1754.15	3.03955
1754.41	-4.64301
1754.67	-9.46158
1754.92	0.99881
1755.18	6.69455
1755.43	12.3978
1755.69	-0.965729
1755.95	13.2944
1756.2	5.62115
1756.46	-6.8223
1756.71	-4.98395
1756.97	-6.97302
1757.23	1.50778
1757.48	-8.08118
1757.74	13.7797
1757.99	-18.5767
1758.25	10.9535
1758.5	9.1803
1758.76	15.8983
1759.02	-5.00272
1759.27	2.63821
1759.53	4.57053
1759.78	-1.09698
1760.04	-5.8364
1760.3	10.3388
1760.55	-15.3569
1760.81	10.3233
1761.06	-13.4753
1761.32	12.176
1761.57	9.27594
1761.83	3.53281
1762.08	3.5141
1762.34	-5.0433
1762.6	-2.18109
1762.85	3.60541
1763.11	-10.5938
1763.36	-0.103271
1763.62	12.2664
1763.87	8.49884
1764.13	-13.3223
1764.38	-6.60651
1764.64	-3.65903
1764.89	3.15314
1765.15	4.18372
1765.4	15.6764
1765.66	-8.06436
1765.92	0.550781
1766.17	-18.4539
1766.43	12.9893
1766.68	15.8578
1766.94	5.38184
1767.19	-1.28189
1767.45	12.0634
1767.7	-7.93008
1767.96	0.612793
1768.21	-18.4463
1768.47	-0.382782
1768.73	1.51428
1768.98	-10.8537
1769.24	-3.35944
1769.49	-4.47394
1769.75	4.87396
1770	3.82861
1770.26	4.81204
1770.51	-2.68039
1770.77	5.9791
1771.02	1.25903
1771.28	1.30777
1771.53	-6.17908
1771.79	-14.5908
1772.04	-2.16348
1772.3	-12.5813
1772.55	12.2259
1772.81	9.46838
1773.06	-3.77371
1773.32	12.4684
1773.57	-11.2585
1773.83	4.98047
1774.08	19.3156
1774.34	-10.1429
1774.59	9.89279
1774.85	-11.9646
1775.1	25.2422
1775.36	-0.416962
1775.61	-17.4768
1775.87	24.623
1776.12	19.9765
1776.38	23.8603
1776.63	-9.46915
1776.89	1.02509
1777.14	1.00522
1777.4	20.0297
1777.65	5.72018
1777.91	-0.987885
1778.16	-2.93069
1778.42	-6.77985
1778.67	-12.5302
1778.93	-10.6731
1779.18	-9.78561
1779.44	-12.7097
1779.69	1.52997
1779.95	-11.7713
1780.2	-10.7015
1780.46	1.71768
1780.71	-4.89642
1780.97	3.72339
1781.22	-0.0263672
1781.47	-10.4678
1781.73	6.70651
1781.98	-7.52078
1782.24	0.166809
1782.49	22.1511
1782.75	-21.562
1783	7.09448
1783.26	10.9707
1783.51	20.5633
1783.77	9.19571
1784.02	-5.98798
1784.28	7.43234
1784.53	-1.0639
1784.79	1.90802
1785.04	5.80084
1785.29	-0.825897
1785.55	4.92172
1785.8	13.5131
1786.06	-18.9361
1786.31	-15.1321
1786.57	-8.42667
1786.82	8.79642
1787.08	-11.161
1787.33	6.11105
1787.58	3.36612
1787.84	9.24933
1788.09	-0.0723267
1788.35	24.0755
1788.6	5.19473
1788.86	10.1513
1789.11	-10.8284
1789.37	-22.2195
1789.62	7.62192
1789.87	6.77499
1790.13	18.3438
1790.38	58.6718
1790.64	1.22778
1790.89	11.7994
1791.15	-0.656738
1791.4	-17.9626
1791.65	-16.2223
1791.91	-3.77719
1792.16	-13.3645
1792.42	-11.4227
1792.67	-16.1751
1792.93	1.10513
1793.18	6.91931
1793.43	0.265259
1793.69	-4.49359
1793.94	13.735
1794.2	9.01355
1794.45	29.1724
1794.7	6.19098
1794.96	-9.16891
1795.21	14.9059
1795.47	-1.09952
1795.72	0.0579224
1795.97	12.6477
1796.23	3.12643
1796.48	0.330841
1796.74	20.5866
1796.99	13.9564
1797.25	4.44272
1797.5	15.1007
1797.75	6.53012
1798.01	-3.97571
1798.26	6.65961
1798.51	8.63705
1798.77	-9.58942
1799.02	10.6281
1799.28	13.515
1799.53	15.4212
1799.78	-2.87686
1800.04	4.76712
1800.29	-3.92209
1800.55	6.6196
1800.8	27.7348
1801.05	-13.5816
1801.31	1.7886
1801.56	7.56204
1801.81	21.9911
1802.07	-2.94843
1802.32	6.70209
1802.58	0.0322876
1802.83	15.4722
1803.08	-11.3548
1803.34	0.266541
1803.59	-3.48419
1803.84	4.28918
1804.1	-8.1597
1804.35	-0.42627
1804.61	-9.01813
1804.86	-5.0863
1805.11	-1.15378
1805.37	-3.94418
1805.62	23.1174
1805.87	5.89441
1806.13	17.5484
1806.38	5.1098
1806.64	23.4927
1806.89	4.29034
1807.14	-8.18695
1807.4	-0.444214
1807.65	15.0009
1807.9	-1.36148
1808.16	12.157
1808.41	1.58194
1808.66	1.61121
1808.92	0.678741
1809.17	14.2073
1809.42	-2.14563
1809.68	16.2034
1809.93	11.4193
1810.18	1.81363
1810.44	-2.97476
1810.69	9.58365
1810.94	2.83823
1811.2	-14.5118
1811.45	12.4979
1811.7	7.69049
1811.96	-6.75433
1812.21	0.982239
1812.46	1.98337
1812.72	-4.70856
1812.97	-1.74789
1813.22	5.08447
1813.48	16.731
1813.73	-0.592499
1813.98	13.9492
1814.24	20.8042
1814.49	2.57907
1814.74	-2.13324
1815	12.4881
1815.25	18.3737
1815.5	15.5512
1815.76	27.1985
1816.01	4.04272
1816.26	8.91156
1816.52	-13.2814
1816.77	2.22714
1817.02	9.03882
1817.27	16.7718
1817.53	3.20886
1817.78	-4.65967
1818.03	29.0497
1818.29	2.04477
1818.54	11.7856
1818.79	-11.2899
1819.05	6.17719
1819.3	31.305
1819.55	5.25784
1819.8	16.9176
1820.06	-1.38742
1820.31	5.43042
1820.56	6.45728
1820.82	1.68857
1821.07	15.2857
1821.32	14.3714
1821.58	3.79807
1821.83	16.4503
1822.08	11.6826
1822.33	4.96838
1822.59	10.827
1822.84	13.7742
1823.09	11.8774
1823.34	36.1161
1823.6	8.05435
1823.85	6.10803
1824.1	22.5467
1824.36	-2.60834
1824.61	30.3481
1824.86	18.7837
1825.11	13.025
1825.37	26.6344
1825.62	28.6297
1825.87	-1.34531
1826.12	9.33319
1826.38	33.5616
1826.63	5.50232
1826.88	5.53082
1827.14	14.2747
1827.39	12.3787
1827.64	15.3371
1827.89	9.5824
1828.15	13.5114
1828.4	0.936401
1828.65	2.87903
1828.9	-0.0419922
1829.16	27.0507
1829.41	11.5381
1829.66	-5.89001
1829.91	27.0441
1830.17	21.231
1830.42	4.74579
1830.67	35.7084
1830.92	23.1019
1831.18	-1.08145
1831.43	9.62491
1831.68	17.4372
1831.93	44.623
1832.19	9.81891
1832.44	19.5692
1832.69	17.7
1832.94	27.4811
1833.2	11.0742
1833.45	14.9763
1833.7	45.051
1833.95	16.0229
1834.2	17.9966
1834.46	16.0998
1834.71	23.781
1834.96	40.078
1835.21	35.0684
1835.47	17.4938
1835.72	44.498
1835.97	20.2297
1836.22	3.79904
1836.48	26.9474
1836.73	39.1206
1836.98	10.9352
1837.23	18.2423
1837.48	8.40036
1837.74	20.7627
1837.99	20.5577
1838.24	0.876465
1838.49	23.8771
1838.74	8.39157
1839	7.05179
1839.25	11.1925
1839.5	18.1211
1839.75	41.4445
1840	13.4092
1840.26	20.2992
1840.51	19.9893
1840.76	16.8546
1841.01	-4.61661
1841.27	40.6689
1841.52	22.1494
1841.77	28.7675
1842.02	13.1903
1842.27	16.9402
1842.53	-6.31686
1842.78	10.9509
1843.03	18.7456
1843.28	15.8338
1843.53	8.17355
1843.78	36.1593
1844.04	-24.5952
1844.29	7.2179
1844.54	-2.41272
1844.79	11.1506
1845.04	2.49237
1845.3	7.27563
1845.55	11.1639
1845.8	6.36066
1846.05	7.4838
1846.3	-3.9339
1846.55	-0.889374
1846.81	16.7596
1847.06	11.7503
1847.31	11.2687
1847.56	10.7007
1847.81	16.3784
1848.07	3.888
1848.32	1.18643
1848.57	18.7036
1848.82	-1.68619
1849.07	-3.6846
1849.32	37.7441
1849.57	3.9942
1849.83	1.02585
1850.08	-8.6842
1850.33	1.81537
1850.58	-0.217926
1850.83	10.2721
1851.09	-0.371948
1851.34	29.3533
1851.59	9.12958
1851.84	-4.35019
1852.09	14.8375
1852.34	11.9561
1852.59	13.8892
1852.84	16.7865
1853.1	9.11942
1853.35	16.807
1853.6	-0.482422
1853.85	13.8972
1854.1	-3.43286
1854.35	-18.863
1854.6	-16.0723
1854.86	1.11469
1855.11	27.9258
1855.36	8.71188
1855.61	3.83514
1855.86	14.2788
1856.11	12.313
1856.36	-6.86002
1856.61	-3.9884
1856.87	6.56302
1857.12	-0.128479
1857.37	18.0696
1857.62	16.1384
1857.87	-2.08173
1858.12	-4.02213
1858.37	12.2157
1858.63	11.2038
1858.88	-9.91162
1859.13	27.3386
1859.38	12.9187
1859.63	-6.2793
1859.88	8.97461
1860.13	11.8494
1860.38	22.3825
1860.63	-1.48251
1860.89	-1.4046
1861.14	15.8845
1861.39	-1.26721
1861.64	27.5136
1861.89	11.3188
1862.14	12.3092
1862.39	2.73691
1862.64	3.65787
1862.9	20.8188
1863.15	18.8366
1863.4	1.55685
1863.65	0.53833
1863.9	9.08218
1864.15	18.5854
1864.4	13.7585
1864.65	3.20486
1864.9	10.7992
1865.15	-6.44461
1865.4	4.94107
1865.66	-5.64319
1865.91	-17.1861
1866.16	17.037
1866.41	10.232
1866.66	-3.24045
1866.91	2.34979
1867.16	-11.1047
1867.41	-6.46472
1867.66	-5.62299
1867.91	14.2649
1868.16	26.5791
1868.41	-3.87
1868.67	26.5419
1868.92	5.64761
1869.17	4.72906
1869.42	-11.4216
1869.67	17.0952
1869.92	-13.3319
1870.17	5.6745
1870.42	-2.88342
1870.67	12.3213
1870.92	-0.0341492
1871.17	0.922089
1871.42	14.2362
1871.67	6.62244
1871.92	-10.5061
1872.17	10.3535
1872.42	-4.87317
1872.68	10.3054
1872.93	19.7525
1873.18	-3.09332
1873.43	-1.2261
1873.68	13.0122
1873.93	11.0997
1874.18	1.57376
1874.43	3.42191
1874.68	5.25797
1874.93	-7.14316
1875.18	14.5961
1875.43	20.2021
1875.68	-7.36749
1875.93	8.6347
1876.18	-5.74393
1876.43	13.0785
1876.68	25.2868
1876.93	1.56378
1877.18	-8.87494
1877.43	1.37521
1877.68	-11.0965
1877.93	-16.1696
1878.18	-16.8426
1878.44	-5.25162
1878.69	-12.3222
1878.93	4.57861
1879.19	15.9016
1879.44	22.8752
1879.69	-0.632782
1879.94	0.22641
1880.19	1.08466
1880.44	13.3895
1880.69	-14.0762
1880.94	15.3645
1881.19	12.459
1881.44	0.147552
1881.69	18.9484
1881.94	-5.80502
1882.19	7.27884
1882.44	-14.6225
1882.69	-7.23938
1882.94	7.64453
1883.19	0.956696
1883.44	22.408
1883.69	5.79919
1883.94	4.34546
1884.19	-4.0614
1884.44	-21.9297
1884.69	-0.0426636
1884.94	-3.97754
1885.19	6.53061
1885.44	-10.2618
1885.69	-2.65506
1885.94	3.0618
1886.19	-11.8659
1886.44	-5.16745
1886.69	8.11914
1886.94	6.20853
1887.19	0.414825
1887.44	2.24017
1887.69	5.94873
1887.94	-0.725311
1888.19	-2.68427
1888.44	1.94867
1888.69	5.59927
1888.94	3.60928
1889.19	-5.90363
1889.44	20.3704
1889.69	3.37845
1889.94	4.3201
1890.19	28.7902
1890.44	3.41873
1890.69	-13.4412
1890.94	-16.1805
1891.19	-3.90155
1891.43	4.5752
1891.68	14.9161
1891.94	-2.97165
1892.18	-2.03955
1892.43	-1.10349
1892.68	8.31281
1892.93	3.56821
1893.18	-2.13708
1893.43	-2.24353
1893.68	-4.29651
1893.93	-4.44504
1894.18	15.2641
1894.43	-13.8081
1894.68	21.7958
1894.93	-3.62271
1895.18	-5.51517
1895.43	7.65875
1895.68	18.0312
1895.93	-18.567
1896.18	10.6149
1896.43	12.5513
1896.68	10.7396
1896.93	-14.5679
1897.18	4.30646
1897.42	6.2435
1897.68	-9.70294
1897.92	11.9591
1898.17	-4.96255
1898.42	6.3165
1898.67	6.28857
1898.92	-0.341125
1899.17	8.05606
1899.42	3.2811
1899.67	6.98764
1899.92	19.1783
1900.17	-1.52411
1900.42	-6.2515
1900.67	-6.25113
1900.92	-4.35034
1901.16	8.84732
1901.41	2.33832
1901.66	4.29953
1901.91	-6.90323
1902.16	-8.70587
1902.41	-9.5582
1902.66	21.5647
1902.91	-8.52097
1903.16	-4.77478
1903.41	12.1318
1903.66	-1.06357
1903.91	-7.66348
1904.16	6.43042
1904.41	0.784729
1904.65	-2.97491
1904.9	-5.79568
1905.15	-11.4428
1905.4	24.2783
1905.65	-16.1382
1905.9	14.8755
1906.15	8.21088
1906.4	-21.9565
1906.65	9.00867
1906.9	5.22266
1907.14	-15.4606
1907.39	-7.96005
1907.64	-12.6407
1907.89	-4.15881
1908.14	-3.16559
1908.39	12.8776
1908.64	-15.2671
1908.89	6.3718
1909.14	-1.09872
1909.39	-15.1322
1909.63	9.38306
1909.88	10.4208
1910.13	3.01028
1910.38	-6.27637
1910.63	0.436737
1910.88	3.37503
1911.13	7.22876
1911.38	1.64206
1911.62	-4.90735
1911.87	12.0727
1912.12	-8.64258
1912.37	26.1972
1912.62	2.63708
1912.87	-3.95221
1913.12	-10.5351
1913.37	3.60464
1913.61	4.56943
1913.86	23.4723
1914.11	0.0276184
1914.36	17.1105
1914.61	5.88858
1914.86	-3.46085
1915.11	4.16742
1915.36	-5.19003
1915.6	-0.41452
1915.85	-9.8204
1916.1	20.3786
1916.35	-12.6639
1916.6	-7.00943
1916.85	7.10553
1917.1	-1.44418
1917.34	-0.548584
1917.59	17.3284
1917.84	5.04663
1918.09	-2.50516
1918.34	5.05618
1918.59	-15.6297
1918.83	-8.0043
1919.08	1.52673
1919.33	-2.13721
1919.58	4.58694
1919.83	0.0155945
1920.08	-7.41397
1920.33	3.99692
1920.57	11.5822
1920.82	-16.7917
1921.07	-0.696869
1921.32	-7.21768
1921.57	-7.1217
1921.81	18.468
1922.06	27.9841
1922.31	-1.29193
1922.56	-3.17261
1922.81	10.9975
1923.06	-4.17352
1923.31	14.6983
1923.55	-8.01285
1923.8	4.25986
1924.05	7.07428
1924.3	2.31161
1924.55	19.2699
1924.79	3.17627
1925.04	7.897
1925.29	4.14178
1925.54	-19.4268
1925.79	17.5084
1926.04	-9.79144
1926.28	0.710297
1926.53	-2.0318
1926.78	14.1541
1927.03	8.59412
1927.28	-10.2589
1927.52	16.3116
1927.77	-3.5159
1928.02	-7.25278
1928.27	-15.7302
1928.52	11.7862
1928.76	50.6638
1929.01	-11.8123
1929.26	3.40152
1929.51	-11.6997
1929.76	18.7174
1930	15.043
1930.25	-0.035614
1930.5	-13.209
1930.75	2.06357
1931	18.302
1931.24	-2.54886
1931.49	20.2572
1931.74	4.10071
1931.99	-4.47632
1932.24	-0.713593
1932.48	-11.1893
1932.73	-3.63248
1932.98	-4.62234
1933.23	6.75742
1933.47	25.6937
1933.72	6.75293
1933.97	-0.731354
1934.22	14.6292
1934.46	5.36407
1934.71	1.86798
1934.96	-10.2104
1935.21	2.41833
1935.46	7.39685
1935.7	1.85187
1935.95	-6.61096
1936.2	-4.90903
1936.45	21.7539
1936.69	4.58685
1936.94	2.64835
1937.19	-14.5592
1937.44	-6.0545
1937.68	0.553833
1937.93	19.5356
1938.18	3.29898
1938.43	-2.47
1938.68	8.00568
1938.92	0.516113
1939.17	11.0391
1939.42	21.5765
1939.67	10.2153
1939.91	-2.11499
1940.16	-7.76791
1940.41	20.8395
1940.66	-2.89185
1940.9	10.5436
1941.15	8.8703
1941.4	10.9186
1941.64	-22.4725
1941.89	-13.9153
1942.14	-9.24911
1942.39	-4.66562
1942.63	-9.30603
1942.88	28.2613
1943.13	22.6263
1943.38	-4.08646
1943.62	-2.29993
1943.87	16.6435
1944.12	25.1171
1944.37	20.5799
1944.61	-7.01718
1944.86	22.6575
1945.11	17.018
1945.35	5.65051
1945.6	-0.945465
1945.85	19.2147
1946.1	-7.4649
1946.34	3.12225
1946.59	1.26962
1946.84	16.6177
1947.09	6.12735
1947.33	-8.21667
1947.58	6.10992
1947.83	-8.25916
1948.07	4.1734
1948.32	19.4792
1948.57	13.7482
1948.82	7.0369
1949.06	16.6244
1949.31	10.0016
1949.56	18.6888
1949.8	6.3338
1950.05	15.9984
1950.3	16.0986
1950.54	4.76111
1950.79	-3.69946
1951.04	20.3876
1951.29	-0.561737
1951.53	25.4831
1951.78	0.677582
1952.03	18.0657
1952.27	10.463
1952.52	19.1661
1952.77	0.0230713
1953.01	-8.62405
1953.26	5.85211
1953.51	0.181519
1953.76	9.70477
1954	-6.73813
1954.25	11.2956
1954.49	6.31879
1954.74	15.7359
1954.99	11.7548
1955.24	11.7149
1955.48	7.88013
1955.73	9.84546
1955.98	-14.9702
1956.22	9.14349
1956.47	9.39157
1956.72	-7.77832
1956.96	0.0151367
1957.21	6.80292
1957.46	21.2977
1957.7	11.7741
1957.95	3.20065
1958.2	7.10126
1958.44	9.06702
1958.69	4.29456
1958.94	-0.484985
1959.18	8.14734
1959.43	11.9347
1959.68	30.1658
1959.92	-5.38928
1960.17	18.5868
1960.42	20.4615
1960.66	-0.710938
1960.91	-19.0021
1961.16	1.10913
1961.4	9.6983
1961.65	8.69531
1961.9	-4.76517
1962.14	-1.8667
1962.39	13.5168
1962.63	8.73996
1962.88	3.00476
1963.13	2.06778
1963.37	6.88943
1963.62	23.2294
1963.87	0.211334
1964.11	4.07657
1964.36	0.286011
1964.61	8.97327
1964.85	15.6981
1965.1	1.27689
1965.35	1.29236
1965.59	5.12943
1965.84	22.429
1966.08	16.7111
1966.33	7.18182
1966.58	4.38385
1966.82	-6.10318
1967.07	3.5668
1967.32	34.3772
1967.56	4.57779
1967.81	-14.6348
1968.05	9.43402
1968.3	26.7601
1968.55	18.1323
1968.79	18.1342
1969.04	-3.99872
1969.29	-1.16394
1969.53	23.7466
1969.78	12.1167
1970.02	-0.466827
1970.27	14.8174
1970.52	7.07581
1970.76	9.91583
1971.01	19.4607
1971.25	7.90375
1971.5	22.263
1971.75	1.13492
1971.99	11.6682
1972.24	25.1303
1972.48	-2.64651
1972.73	16.5662
1972.98	-1.65671
1973.22	13.6716
1973.47	3.07269
1973.71	10.6789
1973.96	-3.75613
1974.21	1.96066
1974.45	-1.89331
1974.7	28.7741
1974.94	3.86328
1975.19	1.96677
1975.44	19.2579
1975.68	-15.2038
1975.93	28.0033
1976.17	6.00174
1976.42	6.04474
1976.66	-8.31284
1976.91	6.09589
1977.16	2.26913
1977.4	4.18604
1977.65	8.0087
1977.89	18.5288
1978.14	9.85297
1978.39	19.3937
1978.63	4.01648
1978.88	18.3666
1979.12	7.80991
1979.37	1.10815
1979.61	0.168335
1979.86	18.3905
1980.1	13.6201
1980.35	25.1371
1980.6	-0.767944
1980.84	18.3484
1981.09	11.5912
1981.33	2.94727
1981.58	8.6561
1981.82	26.8265
1982.07	7.65475
1982.31	13.3974
1982.56	8.60382
1982.81	10.474
1983.05	3.72342
1983.3	9.397
1983.54	-6.00473
1983.79	4.45676
1984.03	16.8686
1984.28	13.0255
1984.52	17.7827
1984.77	-5.19775
1985.02	9.12704
1985.26	28.2012
1985.51	-1.51578
1985.75	4.18607
1986	4.19562
1986.24	-3.42224
1986.49	3.32245
1986.73	7.21069
1986.98	-0.402618
1987.22	7.24268
1987.47	10.1444
1987.71	-4.24683
1987.96	10.0041
1988.21	5.12198
1988.45	5.0047
1988.7	-4.68118
1988.94	13.128
1989.19	18.5334
1989.43	6.97897
1989.68	-5.38489
1989.92	-14.7502
1990.17	4.17578
1990.41	-2.15726
1990.66	-3.7767
1990.9	19.7753
1991.15	15.9217
1991.39	-0.000823975
1991.64	2.7374
1991.88	18.2874
1992.13	-1.58551
1992.37	-0.627014
1992.62	-5.5979
1992.86	21.8482
1993.11	7.38724
1993.35	-2.87405
1993.6	0.0345154
1993.84	25.7858
1994.09	8.09311
1994.33	3.04099
1994.58	11.8459
1994.82	9.64044
1995.07	12.8098
1995.31	10.3375
1995.56	3.62836
1995.8	-1.38699
1996.05	15.4846
1996.29	15.2065
1996.54	6.88516
1996.78	15.6349
1997.03	12.8958
1997.27	2.13504
1997.52	-1.52512
1997.76	4.74179
1998.01	4.53577
1998.25	18.3845
1998.5	7.52979
1998.74	-3.65085
1998.99	-3.23108
1999.23	7.92191
1999.48	12.6418
1999.72	-0.00897217
1999.97	14.2848
2000.21	-1.78326
2000.46	-4.27921
2000.7	-1.34601
2000.95	1.05658
2001.19	-6.43143
2001.43	2.74689
2001.68	13.0577
2001.92	8.26303
2002.17	10.723
2002.41	6.29037
2002.66	-0.0580444
2002.9	5.01321
2003.15	10.2328
2003.39	7.94995
2003.64	4.31259
2003.88	4.29312
2004.13	10.8807
2004.37	-2.30087
2004.61	-5.60852
2004.86	7.2291
2005.1	11.0463
2005.35	-2.62967
2005.59	11.6024
2005.84	14.0379
2006.08	12.1818
2006.33	15.4044
2006.57	2.841
2006.81	13.7404
2007.06	3.56763
2007.3	0.136536
2007.55	-0.382019
2007.79	-3.13754
2008.04	-8.44742
2008.28	-6.05627
2008.53	3.80606
2008.77	9.63638
2009.01	0.347717
2009.26	9.2934
2009.5	8.96448
2009.75	0.46875
2009.99	3.89087
2010.24	-4.68628
2010.48	9.43347
2010.73	9.12326
2010.97	7.48053
2011.21	18.8048
2011.46	-13.66
2011.7	0.174957
2011.95	18.186
2012.19	7.57675
2012.43	5.7594
2012.68	4.79865
2012.92	2.89926
2013.17	-9.39822
2013.42	-13.2644
2013.67	-7.7688
2013.91	-6.91196
2014.16	8.01804
2014.41	10.6975
2014.66	11.4669
2014.9	12.2561
2015.15	10.3435
2015.4	-1.83331
2015.64	-0.842133
2015.89	2.97778
2016.14	1.14795
2016.39	0.18222
2016.63	3.09082
2016.88	8.98096
2017.13	-0.360718
2017.37	9.02646
2017.62	9.92346
2017.87	-1.42041
2018.11	12.576
2018.36	-5.38376
2018.61	14.1987
2018.86	6.57764
2019.1	-3.85086
2019.35	-14.282
2019.6	-17.1982
2019.84	5.23459
2020.09	-6.98108
2020.34	7.05212
2020.58	-6.0593
2020.83	2.36295
2021.08	-7.00702
2021.33	15.4975
2021.57	2.41437
2021.82	2.4245
2022.07	-6.01208
2022.31	-8.84293
2022.56	-11.6887
2022.81	-7.99524
2023.05	6.91132
2023.3	-10.0174
2023.55	-4.4635
2023.8	-4.52618
2024.04	-1.78293
2024.29	3.7641
2024.54	0.904205
2024.78	-1.99786
2025.03	3.50293
2025.27	9.93774
2025.52	12.6403
2025.77	-7.98196
2026.02	12.4644
2026.26	-2.56796
2026.51	-11.8548
2026.76	2.26648
2027	5.28433
2027.25	10.2177
2027.5	3.96893
2027.74	1.34625
2027.99	8.79565
2028.23	2.98169
2028.48	-4.78662
2028.73	-2.85916
2028.98	-14.1326
2029.22	-3.60587
2029.47	0.435394
2029.72	26.9708
2029.96	-1.68341
2030.21	14.7796
2030.45	9.73615
2030.7	-13.5913
2030.95	8.52795
2031.19	2.25156
2031.44	-9.67651
2031.69	-10.6492
2031.93	5.22321
2032.18	-10.621
2032.43	8.14633
2032.67	22.27
2032.92	-13.0864
2033.17	5.71237
2033.41	20.7598
2033.66	-3.46445
2033.91	6.92517
2034.15	-3.30597
2034.4	9.62039
2034.64	16.8746
2034.89	2.5361
2035.14	3.39197
2035.38	-9.52536
2035.63	6.4628
2035.87	6.66013
2036.12	-4.30743
2036.37	18.3137
2036.61	-9.75143
2036.86	-1.49445
2037.11	0.393127
2037.35	-2.32489
2037.6	4.22574
2037.84	7.95779
2038.09	-18.2442
2038.34	2.2915
2038.58	16.2731
2038.83	-7.13541
2039.08	6.83725
2039.32	4.9238
2039.57	-1.6636
2039.81	2.95868
2040.06	-19.5149
2040.31	19.6103
2040.55	11.1248
2040.8	-11.3446
2041.04	3.51086
2041.29	5.31561
2041.54	-18.0425
2041.78	-4.07538
2042.03	4.30273
2042.27	-11.5796
2042.52	8.89429
2042.77	-7.00809
2043.01	-17.274
2043.26	-3.29181
2043.5	-13.5046
2043.75	-3.15955
2044	-1.1571
2044.24	-6.61081
2044.49	6.50803
2044.73	16.7622
2044.98	20.4191
2045.23	22.1353
2045.47	-7.04123
2045.72	18.5376
2045.96	-8.40137
2046.21	-2.33582
2046.45	0.0716248
2046.7	11.9565
2046.95	9.77045
2047.19	10.4646
2047.44	-3.51443
2047.68	-7.33432
2047.93	-1.05408
2048.17	4.47809
2048.42	12.8904
2048.67	2.66016
2048.91	12.0136
2049.16	-3.79462
2049.4	-15.8278
2049.65	-2.69305
2049.89	10.4723
2050.14	-3.39908
2050.39	-5.17084
2050.63	0.532806
2050.88	-10.6176
2051.12	1.55206
2051.37	-6.86819
2051.61	1.48123
2051.86	-16.3476
2052.11	-7.00522
2052.35	-11.6591
2052.6	-3.1976
2052.84	8.96606
2053.09	1.5419
2053.33	3.47153
2053.58	19.4303
2053.82	-1.03476
2054.07	11.2841
2054.31	6.67957
2054.56	18.8928
2054.8	-2.60287
2055.05	-10.0855
2055.3	28.2573
2055.54	7.66321
2055.79	17.878
2056.03	7.56204
2056.28	0.074585
2056.52	-4.62274
2056.77	10.3069
2057.01	-10.2704
2057.26	-6.52554
2057.5	4.715
2057.75	9.42331
2058	-20.4454
2058.24	6.72729
2058.49	-4.43677
2058.73	8.7478
2058.98	-11.7536
2059.22	3.2948
2059.47	15.523
2059.71	5.25516
2059.96	7.15411
2060.2	12.7867
2060.45	3.39133
2060.69	-6.94577
2060.94	-6.97205
2061.18	19.2813
2061.43	-6.87143
2061.67	6.27615
2061.92	2.55399
2062.16	9.12311
2062.41	8.20703
2062.65	3.55713
2062.9	-2.01862
2063.14	12.0851
2063.39	16.8383
2063.63	16.904
2063.88	11.3357
2064.12	-0.802521
2064.37	4.85703
2064.61	11.4537
2064.86	16.1887
2065.1	5.93323
2065.35	21.0247
2065.59	19.2621
2065.84	2.47437
2066.08	10.0716
2066.33	13.9016
2066.57	5.50592
2066.82	4.5892
2067.06	3.69351
2067.31	-15.9853
2067.55	-9.37491
2067.8	-1.80914
2068.04	1.07123
2068.29	13.3418
2068.53	-13.8705
2068.78	0.25531
2069.02	22.8744
2069.27	5.02487
2069.51	-1.59476
2069.76	5.83789
2070	9.45868
2070.25	8.47052
2070.49	8.50989
2070.73	3.95935
2070.98	3.19366
2071.22	-1.33121
2071.47	16.5234
2071.71	13.6086
2071.96	3.65018
2072.2	7.5592
2072.45	12.2516
2072.69	14.1177
2072.94	-1.89236
2073.18	0.911865
2073.43	15.9832
2073.67	8.44058
2073.92	-1.89362
2074.16	3.77423
2074.4	-1.84845
2074.65	9.49612
2074.89	5.79932
2075.14	13.4324
2075.38	12.615
2075.63	13.716
2075.87	9.18616
2076.12	12.1459
2076.36	11.2722
2076.6	-9.47995
2076.85	10.3666
2077.09	19.7771
2077.34	-2.93652
2077.58	9.26349
2077.83	6.28714
2078.07	4.37082
2078.31	8.19043
2078.56	1.66675
2078.8	30.9492
2079.05	14.9491
2079.29	4.62552
2079.54	12.2623
2079.78	-2.68079
2080.03	21.0048
2080.27	11.6255
2080.51	8.85251
2080.76	2.28873
2081	-2.42441
2081.25	2.27426
2081.49	-3.41061
2081.74	4.14563
2081.98	-8.13339
2082.22	14.5366
2082.47	7.95633
2082.71	-1.46036
2082.96	42.9801
2083.2	-8.03613
2083.45	-1.41931
2083.69	20.3087
2083.93	0.458313
2084.18	5.19061
2084.42	18.4315
2084.67	4.2605
2084.91	3.32779
2085.15	-1.37976
2085.4	0.52005
2085.64	1.47098
2085.89	10.9297
2086.13	6.23477
2086.37	2.54559
2086.62	23.4619
2086.86	6.52396
2087.11	-7.6257
2087.35	10.3959
2087.59	29.3839
2087.84	3.87363
2088.08	19.9715
2088.32	27.5553
2088.57	5.80386
2088.81	-4.58551
2089.06	20.9945
2089.3	9.65915
2089.54	4.98468
2089.79	18.3039
2090.03	8.93054
2090.28	13.705
2090.52	3.30896
2090.76	-0.450195
2091.01	12.8512
2091.25	-1.31839
2091.5	8.2012
2091.74	8.24323
2091.98	12.1281
2092.23	-1.04337
2092.47	8.5535
2092.72	15.3105
2092.96	-3.55054
2093.2	19.332
2093.45	27.0233
2093.69	10.0192
2093.93	18.6603
2094.18	20.639
2094.42	12.1543
2094.66	-8.73578
2094.91	8.38354
2095.15	1.71896
2095.39	1.70169
2095.64	12.1085
2095.88	8.25134
2096.13	-5.09219
2096.37	17.6788
2096.61	1.50964
2096.86	4.35358
2097.1	0.5466
2097.34	10.9566
2097.59	9.94635
2097.83	20.3291
2098.07	18.4077
2098.32	-2.48941
2098.56	4.14545
2098.8	15.4935
2099.05	0.313904
2099.29	-9.17947
2099.53	6.9415
2099.78	28.7598
2100.02	10.7284
2100.27	30.6664
2100.51	17.3969
2100.75	-3.45871
2101	9.86798
2101.24	0.461517
2101.48	1.48032
2101.73	9.12494
2101.97	0.603302
2102.21	22.455
2102.45	19.6028
2102.7	-8.88382
2102.94	8.19867
2103.18	8.15051
2103.43	13.7841
2103.67	0.461517
2103.92	9.95074
2104.16	4.24173
2104.4	5.20261
2104.64	9.98276
2104.89	13.8378
2105.13	9.14566
2105.37	5.39874
2105.62	19.7113
2105.86	4.59158
2106.1	-1.99255
2106.35	-3.85257
2106.59	-1.91373
2106.83	11.4171
2107.08	-7.57639
2107.32	-15.148
2107.56	6.73572
2107.8	-2.80267
2108.05	8.54688
2108.29	15.118
2108.53	2.67947
2108.78	17.7919
2109.02	0.632782
2109.26	4.40884
2109.51	-0.319824
2109.75	-1.18176
2109.99	9.3385
2110.23	-4.90262
2110.48	22.6526
2110.72	14.107
2110.96	7.46106
2111.21	12.2164
2111.45	-7.73178
2111.69	5.55011
2111.93	3.6098
2112.18	-0.217987
2112.42	14.0118
2112.66	15.9139
2112.91	10.2536
2113.15	4.59369
2113.39	-14.3619
2113.63	31.3282
2113.88	14.2985
2114.12	-12.278
2114.36	14.3203
2114.61	-2.81183
2114.85	6.68918
2115.09	5.75833
2115.33	16.225
2115.58	15.2605
2115.82	10.484
2116.06	-7.59204
2116.31	18.9892
2116.55	17.0242
2116.79	-1.08267
2117.03	5.53912
2117.28	17.8714
2117.52	15.0124
2117.76	12.1814
2118	14.0502
2118.25	8.30463
2118.49	23.441
2118.73	-15.5551
2118.97	18.511
2119.22	9.9003
2119.46	-4.39078
2119.7	7.87067
2119.94	27.7117
2120.19	33.337
2120.43	19.0753
2120.67	10.533
2120.91	10.5463
2121.16	-3.61066
2121.4	12.5357
2121.64	11.6665
2121.88	16.4937
2122.13	7.08786
2122.37	-8.01898
2122.61	9.12289
2122.85	11.0753
2123.1	7.32715
2123.34	2.62247
2123.58	5.50082
2123.82	-4.92624
2124.07	0.747589
2124.31	31.0892
2124.55	2.56033
2124.79	6.27429
2125.03	-0.492462
2125.28	0.304108
2125.52	5.84903
2125.76	33.2084
2126	3.74701
2126.25	24.4805
2126.49	0.732574
2126.73	-4.06439
2126.97	6.27704
2127.21	-5.1412
2127.46	-13.7155
2127.7	-1.44861
2127.94	-8.08084
2128.18	3.24759
2128.43	-1.51141
2128.67	5.08734
2128.91	21.1605
2129.15	34.3985
2129.39	0.358154
2129.64	13.5667
2129.88	9.76556
2130.12	21.0935
2130.36	19.1889
2130.6	10.6659
2130.85	1.19373
2131.09	7.77759
2131.33	-9.26517
2131.57	2.02509
2131.81	35.0298
2132.06	3.82059
2132.3	23.6181
2132.54	10.3635
2132.78	6.52438
2133.02	10.2399
2133.27	-6.77533
2133.51	19.6428
2133.75	14.9406
2133.99	2.68762
2134.23	6.4675
2134.48	-3.89725
2134.72	24.4275
2134.96	4.60123
2135.2	10.2555
2135.44	-15.2325
2135.68	1.73914
2135.93	12.0872
2136.17	3.54007
2136.41	2.49875
2136.65	16.5446
2136.89	28.7506
2137.14	0.485382
2137.38	-7.04193
2137.62	6.16452
2137.86	0.544128
2138.1	6.27386
2138.34	18.5093
2138.59	0.500122
2138.83	15.5135
2139.07	-5.16376
2139.31	7.19962
2139.55	17.6537
2139.79	10.885
2140.03	5.10434
2140.28	-8.14395
2140.52	11.5937
2140.76	-5.40463
2141	17.1676
2141.24	15.2577
2141.49	2.04639
2141.73	13.3532
2141.97	-4.60492
2142.21	3.79642
2142.45	10.3574
2142.69	16.9472
2142.93	-4.64041
2143.18	21.7757
2143.42	10.7495
2143.66	4.02274
2143.9	23.8764
2144.14	8.8403
2144.38	10.7823
2144.62	11.8399
2144.87	14.7765
2145.11	-4.91034
2145.35	9.94894
2145.59	12.7975
2145.83	21.2754
2146.07	11.8536
2146.31	21.2269
2146.55	-11.7054
2146.8	37.1487
2147.04	5.16199
2147.28	12.6476
2147.52	14.4792
2147.76	22.8895
2148	6.87524
2148.24	19.9911
2148.48	-2.59122
2148.73	-1.6904
2148.97	5.77902
2149.21	8.5444
2149.45	14.1076
2149.69	14.0265
2149.93	16.699
2150.17	-5.88846
2150.42	-1.28827
2150.66	1.45786
2150.9	-2.32565
2151.14	11.7264
2151.38	14.5658
2151.62	-6.94168
2151.86	1.52826
2152.1	10.9556
2152.34	-4.96582
2152.58	7.272
2152.83	-4.0329
2153.07	14.675
2153.31	3.36099
2153.55	5.17978
2153.79	4.21326
2154.03	13.5536
2154.27	6.9361
2154.51	28.4003
2154.75	8.61197
2154.99	1.91638
2155.24	-6.63657
2155.48	13.7957
2155.72	-4.07867
2155.96	6.10611
2156.2	-16.4076
2156.44	-2.45367
2156.68	14.3264
2156.92	14.3093
2157.16	-7.18637
2157.4	0.286041
2157.64	3.11044
2157.89	1.28494
2158.13	20.0333
2158.37	14.4784
2158.61	10.7517
2158.85	7.00833
2159.09	1.38303
2159.33	26.5865
2159.57	5.98126
2159.81	7.79382
2160.05	-10.0242
2160.29	0.169006
2160.53	1.95245
2160.77	11.2125
2161.01	11.1442
2161.25	4.57224
2161.5	7.35104
2161.74	1.71887
2161.98	-10.4434
2162.22	12.8651
2162.46	7.26355
2162.7	-16.0613
2162.94	0.722778
2163.18	-0.241699
2163.42	23.9627
2163.66	11.7973
2163.9	3.36719
2164.14	20.1115
2164.38	4.21835
2164.62	-2.38034
2164.86	-0.60434
2165.11	9.58835
2165.35	0.280914
2165.59	9.62784
2165.83	4.03769
2166.07	24.5399
2166.31	18.0169
2166.55	6.79224
2166.79	2.09421
2167.03	16.0147
2167.27	-7.34058
2167.51	-14.8408
2167.75	-2.81375
2167.99	23.1462
2168.23	9.01965
2168.47	7.93808
2168.71	6.95218
2168.95	-2.35608
2169.19	8.81461
2169.43	13.5042
2169.67	8.9187
2169.91	0.635254
2170.15	7.25739
2170.39	12.9673
2170.63	6.52029
2170.87	-10.2184
2171.11	3.72412
2171.35	-6.5864
2171.59	-1.96469
2171.83	8.13791
2172.07	8.83044
2172.31	-3.38184
2172.56	-2.51816
2172.79	24.3696
2173.04	-4.48532
2173.28	2.00449
2173.51	-7.29645
2173.76	-1.73135
2174	0.145142
2174.24	22.4841
2174.48	2.99503
2174.72	5.79318
2174.96	-11.8665
2175.2	-2.58005
2175.44	0.197021
2175.68	24.3333
2175.92	2.93234
2176.16	1.98633
2176.4	-9.18646
2176.64	7.50616
2176.88	4.66171
2177.12	9.27991
2177.36	-10.2323
2177.6	2.77582
2177.84	-0.0109253
2178.08	-0.952454
2178.32	-3.73294
2178.55	1.80417
2178.8	-2.00388
2179.03	-3.93106
2179.28	4.41046
2179.52	9.98993
2179.75	-3.93826
2180	18.3434
2180.23	10.908
2180.47	-2.09958
2180.71	12.7404
2180.95	-0.285065
2181.19	9.89993
2181.43	-1.25574
2181.67	14.4986
2181.91	-2.25516
2182.15	6.98248
2182.39	12.5265
2182.63	5.98123
2182.87	21.7157
2183.11	-8.01019
2183.35	-9.93323
2183.59	-3.51956
2183.83	1.94287
2184.07	18.5508
2184.31	15.7097
2184.55	-1.95178
2184.79	14.7043
2185.03	5.44296
2185.27	14.7349
2185.51	13.8269
2185.75	14.7731
2185.99	1.83078
2186.23	2.80557
2186.47	4.71219
2186.7	10.3277
2186.95	4.84952
2187.18	-0.62674
2187.42	-5.17981
2187.66	-3.23761
2187.9	-11.5341
2188.14	-3.16489
2188.38	-8.77869
2188.62	16.2304
2188.86	9.65829
2189.1	0.297302
2189.34	3.92371
2189.58	9.39233
2189.82	13.9121
2190.06	-1.02301
2190.3	2.63467
2190.54	5.39417
2190.78	-1.09531
2191.01	18.3932
2191.25	29.5398
2191.49	2.64432
2191.73	3.5827
2191.97	2.6749
2192.21	3.6239
2192.45	13.847
2192.69	9.22882
2192.93	15.7446
2193.17	22.288
2193.41	-21.2743
2193.65	19.6046
2193.89	-12.8182
2194.13	-1.54846
2194.36	13.4663
2194.6	-8.74048
2194.84	-6.83347
2195.08	-22.6629
2195.32	2.39041
2195.56	-2.29831
2195.8	10.6528
2196.04	6.85583
2196.28	11.3977
2196.52	12.2009
2196.76	-5.55148
2197	11.9926
2197.23	-1.99747
2197.47	3.50562
2197.71	20.1433
2197.95	7.15118
2198.19	0.659058
2198.43	3.46786
2198.67	-0.174286
2198.91	22.1735
2199.15	4.62827
2199.38	2.87521
2199.62	2.96158
2199.86	-9.0206
2200.1	0.370605
2200.34	29.3505
2200.58	-7.69339
2200.82	11.0656
2201.06	1.87872
2201.3	11.2832
2201.54	3.901
2201.77	11.2083
2202.01	-3.10272
2202.25	-4.72006
2202.49	18.9228
2202.73	6.14139
2202.97	10.422
2203.21	23.6978
2203.45	-2.44946
2203.68	13.2802
2203.92	9.84152
2204.16	0.636505
2204.4	33.7975
2204.64	43.084
2204.88	10.4962
2205.12	23.3049
2205.36	9.01892
2205.59	5.02377
2205.83	28.0764
2206.07	3.84094
2206.31	23.3623
2206.55	-5.39627
2206.79	9.48401
2207.03	10.2797
2207.26	-0.866272
2207.5	10.3297
2207.74	5.73135
2207.98	-3.51276
2208.22	12.3632
2208.46	4.04929
2208.7	19.9298
2208.93	4.15482
2209.17	19.09
2209.41	20.0468
2209.65	27.5083
2209.89	20.9809
2210.13	29.3419
2210.36	21.8936
2210.6	34.0365
2210.84	6.12952
2211.08	21.0803
2211.32	21.1255
2211.56	18.3714
2211.8	7.23175
2212.03	17.5496
2212.27	13.8818
2212.51	7.39252
2212.75	14.8694
2212.99	-3.82031
2213.23	7.3287
2213.46	17.5448
2213.7	8.15454
2213.94	13.6787
2214.18	5.2952
2214.42	9.07953
2214.66	-8.52029
2214.89	-3.74265
2215.13	0.0144958
2215.37	11.2336
2215.61	9.3772
2215.85	9.38126
2216.08	-6.49365
2216.32	-6.50348
2216.56	0.949982
2216.8	5.59793
2217.04	1.83707
2217.28	24.2182
2217.51	3.66763
2217.75	4.60217
2217.99	-5.66434
2218.23	22.3328
2218.47	-1.02411
2218.7	3.6467
2218.94	-9.40536
2219.18	-5.6373
2219.42	7.48508
2219.66	-4.61047
2219.9	7.56058
2220.13	-8.29636
2220.37	-3.60352
2220.61	4.78842
2220.85	-4.58374
2221.09	4.73828
2221.32	0.0205383
2221.56	6.47131
2221.8	6.37057
2222.04	-7.72107
2222.27	-4.99268
2222.51	4.28967
2222.75	-10.6672
2222.99	-4.12201
2223.23	23.9224
2223.46	11.8222
2223.7	8.13135
2223.94	0.72467
2224.18	0.80777
2224.42	1.83078
2224.65	-4.63336
2224.89	-13.9194
2225.13	6.71814
2225.37	-12.8729
2225.6	-10.0002
2225.84	4.12112
2226.08	-2.37308
2226.32	3.30215
2226.56	9.91913
2226.79	8.0845
2227.03	-11.5387
2227.27	1.63345
2227.51	9.17407
2227.74	4.51328
2227.98	-0.165894
2228.22	3.56445
2228.46	12.9037
2228.69	-9.63654
2228.93	-8.7334
2229.17	27.8004
2229.41	13.7065
2229.64	9.00613
2229.88	-7.82816
2230.12	-11.5095
2230.36	6.3782
2230.6	2.67166
2230.83	4.59872
2231.07	14.9789
2231.31	6.58847
2231.55	-9.31223
2231.78	-2.67273
2232.02	2.07437
2232.26	3.06668
2232.5	-4.40106
2232.73	5.9906
2232.97	6.03848
2233.21	17.3744
2233.45	11.7793
2233.68	9.94623
2233.92	-9.76544
2234.16	-1.26321
2234.39	-5.00491
2234.63	-5.97684
2234.87	3.39587
2235.11	1.46112
2235.34	-4.25598
2235.58	6.90399
2235.82	1.16394
2236.06	1.15778
2236.29	-1.66306
2236.53	13.389
2236.77	-0.712738
2237	2.10873
2237.24	5.87552
2237.48	0.295441
2237.72	-4.35428
2237.95	5.16974
2238.19	-11.6585
2238.43	-4.01459
2238.67	-12.4213
2238.9	-9.52432
2239.14	-3.78378
2239.38	18.9607
2239.61	-0.841339
2239.85	-8.42993
2240.09	3.77597
2240.33	0.841736
2240.56	10.1767
2240.8	-2.13055
2241.04	-5.77872
2241.27	5.65048
2241.51	1.8844
2241.75	-2.82553
2241.99	-4.70117
2242.22	17.9549
2242.46	-7.51114
2242.7	2.89322
2242.93	-1.79944
2243.17	3.85822
2243.41	2.88773
2243.64	-17.9355
2243.88	5.59912
2244.12	1.78513
2244.36	-6.73123
2244.59	-2.01575
2244.83	-2.92395
2245.07	18.8731
2245.3	-7.44754
2245.54	-5.45523
2245.78	3.11246
2246.01	-0.617798
2246.25	6.05627
2246.49	10.8389
2246.72	26.9632
2246.96	8.0647
2247.2	-5.14438
2247.43	4.35352
2247.67	5.32037
2247.91	7.21454
2248.14	2.46439
2248.38	28.9332
2248.62	2.39975
2248.85	-12.7753
2249.09	-1.45108
2249.33	-3.37549
2249.56	9.84433
2249.8	-0.520935
2250.04	6.13068
2250.27	0.434692
2250.51	-9.08362
2250.75	14.4958
2250.98	-14.9135
2251.22	2.96805
2251.46	29.3709
2251.69	-6.62128
2251.93	-0.0347595
2252.17	-14.218
2252.4	12.2785
2252.64	-0.922607
2252.88	-4.65427
2253.11	-11.189
2253.35	-1.56491
2253.59	22.2238
2253.82	0.523346
2254.06	7.22076
2254.3	3.47748
2254.53	-0.264252
2254.77	4.50714
2255.01	1.65533
2255.24	8.24664
2255.48	-1.23193
2255.72	3.49741
2255.95	4.44437
2256.19	-2.19266
2256.42	-6.89301
2256.66	-0.205841
2256.9	-0.162628
2257.13	20.7538
2257.37	6.56241
2257.61	17.0452
2257.84	-1.90326
2258.08	11.4127
2258.32	-10.4222
2258.55	-12.3211
2258.79	-16.1127
2259.02	1.95032
2259.26	4.83368
2259.5	-13.1819
2259.73	20.0926
2259.97	5.85388
2260.2	3.97845
2260.44	-8.35666
2260.68	7.8222
2260.91	10.6929
2261.15	-8.28561
2261.39	12.7288
2261.62	7.07932
2261.86	1.37332
2262.1	-4.32886
2262.33	17.572
2262.57	2.36151
2262.8	-3.31595
2263.04	-8.97284
2263.28	9.17813
2263.51	9.25436
2263.75	4.58072
2263.98	-4.84769
2264.22	-10.4547
2264.46	5.86926
2264.69	-0.707977
2264.93	12.7379
2265.16	1.34967
2265.4	-9.10013
2265.64	-3.3252
2265.87	-2.3718
2266.11	-1.4158
2266.34	-1.45398
2266.58	6.10162
2266.81	-4.49158
2267.05	18.3247
2267.29	2.0127
2267.52	13.3958
2267.76	-7.65601
2267.99	8.49713
2268.23	9.3642
2268.47	-2.1478
2268.7	0.680511
2268.94	6.40005
2269.17	1.66553
2269.41	20.8008
2269.65	4.6608
2269.88	-2.89209
2270.12	5.78525
2270.35	-10.3468
2270.59	19.3573
2270.82	-6.38776
2271.06	-14.9602
2271.3	12.8169
2271.53	-4.34335
2271.77	-3.3576
2272	9.10895
2272.24	5.33478
2272.47	17.7939
2272.71	11.0933
2272.95	-0.383209
2273.18	-8.03156
2273.42	6.32828
2273.65	-0.363647
2273.89	-5.14212
2274.12	10.1764
2274.36	30.2812
2274.6	-9.9129
2274.83	-1.29285
2275.07	-0.328735
2275.3	-14.6765
2275.54	-1.26666
2275.77	24.5947
2276.01	20.7428
2276.24	14.0806
2276.48	0.741974
2276.72	-1.10339
2276.95	-11.5833
2277.18	-0.986877
2277.42	17.2913
2277.66	35.6161
2277.89	-5.51221
2278.13	14.7592
2278.36	16.8157
2278.6	24.5403
2278.83	0.54538
2279.07	15.9064
2279.3	11.0811
2279.54	3.36603
2279.78	-6.30618
2280.01	-14.1391
2280.24	-6.56488
2280.48	-5.70273
2280.72	-4.82883
2280.95	3.72803
2281.19	6.54602
2281.42	5.54468
2281.66	3.57513
2281.89	-11.8008
2282.13	6.43668
2282.36	-7.92792
2282.6	10.325
2282.83	12.3007
2283.07	-2.97577
2283.3	2.84625
2283.54	-1.86707
2283.77	5.93375
2284.01	11.8439
2284.24	9.09558
2284.48	-9.98309
2284.71	11.2508
2284.95	32.4419
2285.19	6.54178
2285.42	-2.05212
2285.65	10.4749
2285.89	-9.73383
2286.12	21.9417
2286.36	1.60242
2286.59	-13.8053
2286.83	7.37125
2287.06	16.0767
2287.3	-0.132904
2287.54	-18.3075
2287.77	4.84415
2288	15.4678
2288.24	-9.49512
2288.47	8.77817
2288.71	13.5359
2288.94	1.92007
2289.18	-8.73935
2289.41	7.5206
2289.65	1.61392
2289.88	2.45508
2290.12	-0.574066
2290.35	14.755
2290.59	6.06143
2290.82	12.785
2291.06	-1.63504
2291.29	10.9061
2291.53	2.33328
2291.76	-7.18393
2292	7.31772
2292.23	11.22
2292.47	20.8997
2292.7	-14.6659
2292.94	6.59109
2293.17	23.0365
2293.41	7.67639
2293.64	-6.73413
2293.88	7.7529
2294.11	7.76709
2294.34	-0.937866
2294.58	0.944885
2294.81	15.3416
2295.05	-4.9595
2295.28	0.768585
2295.52	4.57028
2295.75	1.6286
2295.99	4.46622
2296.22	-3.28015
2296.46	7.22644
2296.69	17.6675
2296.93	10.9092
2297.16	-2.53699
2297.39	-5.3819
2297.63	-11.1011
2297.86	8.22086
2298.1	-3.2438
2298.33	-3.13657
2298.57	4.63965
2298.8	7.57474
2299.04	6.67429
2299.27	3.86499
2299.51	8.75562
2299.74	3.02512
2299.97	0.160889
2300.21	17.5164
2300.44	2.08099
2300.68	20.398
2300.91	-0.788177
2301.15	16.6344
2301.38	-1.65955
2301.61	22.5046
2301.85	23.4921
2302.08	12.8799
2302.32	5.14526
2302.55	-14.1901
2302.79	17.6353
2303.02	7.02567
2303.25	-3.59995
2303.49	-18.0957
2303.72	-22.9275
2303.96	-1.69101
2304.19	-3.59024
2304.43	2.25687
2304.66	-4.44986
2304.89	21.6584
2305.13	7.22192
2305.36	18.8773
2305.6	-1.37125
2305.83	-12.9487
2306.07	-14.8553
2306.3	-0.319366
2306.53	2.62097
2306.77	11.335
2307	4.57654
2307.24	-5.09296
2307.47	-1.23645
2307.7	7.43234
2307.94	0.626801
2308.17	-0.363007
2308.41	9.26987
2308.64	-1.38425
2308.87	1.51517
2309.11	-2.33258
2309.34	4.48279
2309.58	-17.6877
2309.81	7.52768
2310.04	-3.00125
2310.28	-6.79761
2310.51	5.81219
2310.75	7.7594
2310.98	-4.82339
2311.21	-13.5602
2311.45	5.71088
2311.68	2.62338
2311.92	-0.484467
2312.15	6.16199
2312.38	6.08109
2312.62	1.20996
2312.85	4.05069
2313.08	-3.70773
2313.32	-3.70813
2313.55	1.15942
2313.79	-13.2148
2314.02	6.22662
2314.25	-9.12482
2314.49	11.2665
2314.72	8.47638
2314.95	6.67487
2315.19	15.4998
2315.42	-0.881805
2315.66	15.48
2315.89	15.4001
2316.12	6.63596
2316.36	-4.07962
2316.59	24.7296
2316.82	8.21829
2317.06	-10.1688
2317.29	-4.37537
2317.52	1.4429
2317.76	0.503448
2317.99	-13.8902
2318.23	7.42892
2318.46	-1.36969
2318.69	3.41229
2318.93	16.8939
2319.16	-0.529053
2319.39	4.25067
2319.63	-10.2661
2319.86	4.18262
2320.09	-6.44659
2320.33	14.7924
2320.56	0.337219
2320.79	6.13437
2321.03	8.10678
2321.26	19.75
2321.5	12.0957
2321.73	0.583466
2321.96	2.59744
2322.2	18.1597
2322.43	11.5147
2322.66	8.71515
2322.9	9.72766
2323.13	-4.77664
2323.36	6.85114
2323.6	8.82193
2323.83	19.4899
2324.06	12.7579
2324.3	-3.65756
2324.53	1.17612
2324.76	-1.72693
2325	-7.59387
2325.23	17.4461
2325.46	-2.95102
2325.7	5.67892
2325.93	24.9398
2326.16	36.4693
2326.4	4.55533
2326.63	13.1837
2326.86	16.9834
2327.09	35.2514
2327.33	37.1159
2327.56	46.691
2327.79	42.7946
2328.03	50.459
2328.26	78.3822
2328.49	90.9487
2328.73	96.7515
2328.96	102.562
2329.19	53.3446
2329.43	74.4848
2329.66	15.6357
2329.89	30.0683
2330.13	33.9226
2330.36	17.6129
2330.59	8.93784
2330.82	3.14951
2331.06	-18.0495
2331.29	15.6635
2331.52	15.7063
2331.76	-5.41446
2331.99	-1.48767
2332.22	-7.17075
2332.46	1.43137
2332.69	5.23886
2332.92	3.28479
2333.16	4.22266
2333.39	-1.57739
2333.62	1.29047
2333.85	-3.53751
2334.09	-4.50885
2334.32	-2.60721
2334.55	-0.715546
2334.79	14.6125
2335.02	2.08023
2335.25	6.87741
2335.48	7.85056
2335.72	0.162048
2335.95	5.96835
2336.18	-17.066
2336.41	0.258789
2336.65	7.94128
2336.88	-12.2482
2337.11	11.8004
2337.34	4.12064
2337.58	5.09085
2337.81	11.8323
2338.04	-11.2421
2338.28	-7.39304
2338.51	-11.2261
2338.74	0.319122
2338.97	8.02545
2339.21	-7.31369
2339.44	-9.20096
2339.67	-5.32959
2339.91	11.0286
2340.14	3.34048
2340.37	6.21121
2340.6	2.3403
2340.84	8.0769
2341.07	0.347809
2341.3	4.12668
2341.53	8.84949
2341.77	6.83289
2342	1.97064
2342.23	8.65512
2342.46	10.5477
2342.7	3.81619
2342.93	-1.94138
2343.16	-0.970581
2343.39	0.972321
2343.63	21.1391
2343.86	10.6115
2344.09	13.5061
2344.32	4.91736
2344.56	4.01526
2344.79	8.85425
2345.02	5.0441
2345.25	-4.52872
2345.49	16.5586
2345.72	17.4962
2345.95	23.1902
2346.18	-5.57565
2346.41	-7.51556
2346.65	3.98938
2346.88	10.7108
2347.11	-12.2505
2347.34	0.205994
2347.58	7.87714
2347.81	5.03598
2348.04	5.08139
2348.27	-1.56171
2348.5	-23.5088
2348.74	1.45419
2348.97	-9.0423
2349.2	2.45895
2349.43	8.18872
2349.67	11.9153
2349.9	4.15826
2350.13	0.208771
2350.36	-2.81088
2350.59	-9.68896
2350.83	10.9222
2351.06	10.2513
2351.29	2.24802
2351.52	17.7607
2351.75	1.88354
2351.99	12.7231
2352.22	-2.88077
2352.45	12.464
2352.68	2.04993
2352.91	15.2512
2353.15	11.1735
2353.38	-3.30579
2353.61	2.53882
2353.84	6.36679
2354.07	1.58731
2354.31	-2.17102
2354.54	-9.75595
2354.77	8.47079
2355	8.59836
2355.23	4.82452
2355.47	1.99353
2355.7	-6.56146
2355.93	-10.353
2356.16	-3.67221
2356.39	-4.63058
2356.63	1.02969
2356.86	17.1032
2357.09	18.9274
2357.32	-3.91711
2357.55	-4.8717
2357.79	1.78333
2358.02	9.39224
2358.25	-17.2155
2358.48	5.61444
2358.71	-6.71228
2358.94	-20.9785
2359.18	-8.60526
2359.41	-9.52274
2359.64	0.0127258
2359.87	3.82809
2360.1	0.978668
2360.33	4.76218
2360.57	-2.85126
2360.8	1.87589
2361.03	-10.476
2361.26	12.2727
2361.49	6.55875
2361.72	-13.3749
2361.96	7.45844
2362.19	-5.83542
2362.42	-2.07578
2362.65	-23.8844
2362.88	6.40811
2363.11	8.29553
2363.34	-8.74057
2363.58	-4.94211
2363.81	-0.187225
2364.04	3.62387
2364.27	14.0539
2364.5	15.9602
2364.73	0.839752
2364.97	13.1487
