#Acq. time (s)=	30
#Accumulations=	2
#Range (cm-¹)=	1200...2365
#Windows=	3
#Auto scanning=	Off
#Autofocus=	Off
#Macrospot=	Off
#AutoExposure=	Off
#Spike filter=	Multiple accum.
#Delay time (s)=	2
#Binning=	1
#Readout mode=	Signal
#DeNoise=	Off
#ICS correction=	On
#Dark correction=	Off
#Inst. Process=	Off
#Detector Gain=	Best Dynamic
#Detector ADC=	50 kHz HS
#Detector temperature (°C)=	-60.09
#Instrument=	LabRAM HR Evol
#Detector=	SIN-EM FIVIS
#Objective=	x100_VIS_LWD
#Grating=	1800 (450-850nm)
#ND Filter=	100%
#Laser=	532nm_Edge
#Hole=	49.98
#Temperature=	0
#Range=	Visible
#StageXY=	75x50mm Scan+
#StageZ=	Z motor
#X (µm)=	0
#Y (µm)=	0
#Z (µm)=	-10.3
#Full time(mm:ss)=	3:11
#Project=	21_11_26
#Sample=	BU02Aw
#Site=	
#Title=	BU02aW-A-FF1-FI01-V_1800 (450-850nm)_532nm_Edge_100%_x100_VIS_LWD_H50um_30sX2
#Remark=	
#Date=	26.11.2021 10:39
#Acquired=	26.11.2021 10:39:57
#Base:Fit=	26.11.2021 10:51:03
#Base:Fit=	26.11.2021 10:51:08
#Base:Fit=	26.11.2021 10:51:11
#Base:Fit=	26.11.2021 10:51:11
#Base:Fit=	26.11.2021 10:51:11
#Base:Fit=	26.11.2021 10:51:11
#Base:Fit=	26.11.2021 10:51:11
#Base:Fit=	26.11.2021 10:51:11
#Base:Fit=	26.11.2021 10:51:11
#Base:Fit=	26.11.2021 10:51:11
#Base:Fit=	26.11.2021 10:51:11
#Base:Fit=	26.11.2021 10:51:11
#Base:Fit=	26.11.2021 10:51:11
#Base:Fit=	26.11.2021 10:51:12
#Base:Fit=	26.11.2021 10:51:12
#Base:Fit=	26.11.2021 10:51:12
#Base:Edit=	26.11.2021 10:51:20
#Base:Edit=	26.11.2021 10:51:21
#Base:Edit=	26.11.2021 10:51:22
#Base:Edit=	26.11.2021 10:51:22
#Base:Edit=	26.11.2021 10:51:23
#Base:Fit=	26.11.2021 10:51:26
#Base:Edit=	26.11.2021 10:51:29
#Base:Edit=	26.11.2021 10:51:29
#Base:Edit=	26.11.2021 10:51:30
#Base:Edit=	26.11.2021 10:51:30
#Base:Edit=	26.11.2021 10:51:31
#Base:Edit=	26.11.2021 10:51:31
#Base:Sub=	26.11.2021 10:51:33
#Edit:Shape=	26.11.2021 10:52:28
#Edit:Shape=	26.11.2021 10:52:35
#Edit:Shape=	26.11.2021 10:53:25
1202.72	-1.16604
1203	3.22612
1203.28	2.20543
1203.56	-0.995831
1203.84	1.1818
1204.11	1.21261
1204.39	0.170071
1204.67	3.43849
1204.95	-0.817142
1205.23	1.36825
1205.5	6.77014
1205.78	-1.79702
1206.06	3.5974
1206.34	1.47421
1206.61	6.86034
1206.89	4.7363
1207.17	4.75672
1207.45	1.56536
1207.73	1.59142
1208	5.89942
1208.28	3.78494
1208.56	4.87982
1208.84	2.76088
1209.11	3.85193
1209.39	2.80365
1209.67	4.96631
1209.95	3.92298
1210.23	2.87758
1210.5	-0.309034
1210.78	0.773783
1211.06	3.99139
1211.34	0.802641
1211.61	-0.251455
1211.89	2.96391
1212.17	0.841194
1212.45	-0.214001
1212.72	4.06247
1213	3.00812
1213.28	0.888384
1213.56	4.0963
1213.83	4.11035
1214.11	3.05675
1214.39	0.945505
1214.67	0.962442
1214.94	2.04284
1215.22	2.05744
1215.5	2.07063
1215.78	3.14752
1216.05	-1.09953
1216.33	3.16372
1216.61	1.03811
1216.89	2.10176
1217.16	2.10198
1217.44	1.04156
1217.72	-0.0181942
1218	4.2321
1218.27	1.04904
1218.55	-0.00978661
1218.83	-0.00700569
1219.1	3.18112
1219.38	-1.05816
1219.66	2.1292
1219.94	0.0102329
1220.21	1.07221
1220.49	2.13728
1220.77	7.44545
1221.04	1.08451
1221.32	4.26732
1221.6	-1.03581
1221.88	2.14337
1222.15	3.19806
1222.43	5.30822
1222.71	1.06076
1222.98	-0.00902748
1223.26	2.09607
1223.54	2.08461
1223.81	4.18773
1224.09	1.00789
1224.37	0.998476
1224.65	0.991457
1224.92	4.15273
1225.2	2.03628
1225.48	4.14496
1225.76	0.979427
1226.03	2.03564
1226.31	0.980532
1226.59	2.03199
1226.86	3.08257
1227.14	3.0737
1227.42	4.12046
1227.69	1.99154
1227.97	0.90737
1228.25	0.887022
1228.52	-2.29059
1228.8	0.837545
1229.08	2.914
1229.35	5.00744
1229.63	1.91534
1229.91	1.96609
1230.18	5.09793
1230.46	0.848303
1230.74	-0.221163
1231.01	-0.225758
1231.29	5.01574
1231.57	1.79712
1231.84	5.9974
1232.12	0.734484
1232.4	2.82676
1232.67	2.81481
1232.95	1.75468
1233.23	3.84529
1233.5	0.681849
1233.78	2.77267
1234.06	1.7141
1234.33	0.656162
1234.61	4.8516
1234.89	3.79501
1235.16	7.99363
1235.44	3.78144
1235.71	-0.431353
1235.99	2.71494
1236.27	0.603449
1236.54	0.591942
1236.82	3.73137
1237.1	3.71545
1237.37	0.544994
1237.65	3.67628
1237.93	2.60402
1238.2	7.83112
1238.48	3.60958
1238.76	3.58708
1239.03	2.51822
1239.31	0.40395
1239.58	2.48479
1239.86	3.51765
1240.14	1.40664
1240.41	1.393
1240.69	5.57279
1240.97	4.51249
1241.24	4.50103
1241.52	1.34418
1241.79	-0.767849
1242.07	1.31047
1242.35	2.34199
1242.62	-0.814688
1242.9	1.26933
1243.18	3.35585
1243.45	-1.89529
1243.73	3.33204
1244	2.27039
1244.28	5.4035
1244.56	-0.90066
1244.83	1.1804
1245.11	5.3565
1245.39	4.28794
1245.66	5.31412
1245.94	3.19489
1246.21	3.17127
1246.49	4.19993
1246.76	6.27692
1247.04	3.12278
1247.32	1.01465
1247.59	3.09147
1247.87	4.12341
1248.14	4.106
1248.42	7.21905
1248.7	4.06076
1248.97	-1.18412
1249.25	1.9409
1249.52	4.02081
1249.8	4.0046
1250.08	1.89766
1250.35	7.11325
1250.63	5.00081
1250.9	4.97875
1251.18	6.00289
1251.45	3.89254
1251.73	7.00755
1252.01	4.89856
1252.28	5.92327
1252.56	1.72658
1252.83	5.88349
1253.11	0.643749
1253.39	6.88633
1253.66	1.65167
1253.94	2.6815
1254.21	0.58489
1254.49	3.70771
1254.76	0.5681
1255.04	4.73348
1255.31	7.85236
1255.59	3.66433
1255.87	2.60646
1256.14	3.63575
1256.42	8.84504
1256.69	4.65701
1256.97	8.82614
1257.24	6.72544
1257.52	4.62157
1257.79	8.78139
1258.07	4.58815
1258.35	7.70527
1258.62	6.64536
1258.9	6.62883
1259.17	8.69569
1259.45	2.41988
1259.72	5.54198
1260	6.57808
1260.27	7.62351
1260.55	7.60231
1260.82	3.4063
1261.1	9.64431
1261.37	9.62332
1261.65	5.43304
1261.92	10.6417
1262.2	12.7509
1262.48	10.6992
1262.75	14.8955
1263.02	12.7274
1263.3	18.928
1263.58	18.8958
1263.85	23.1038
1264.13	21.0413
1264.4	28.3936
1264.68	31.5482
1264.95	18.956
1265.23	29.3854
1265.5	17.8778
1265.78	15.7733
1266.05	12.6204
1266.33	18.8789
1266.6	13.6471
1266.88	6.3267
1267.15	10.5038
1267.43	11.5478
1267.7	6.3192
1267.98	13.6417
1268.25	15.7381
1268.53	11.5597
1268.8	10.5168
1269.08	5.27726
1269.35	12.6069
1269.63	12.6027
1269.9	11.5436
1270.18	10.4789
1270.45	15.6947
1270.73	7.30129
1271	14.6116
1271.28	11.4565
1271.55	9.3527
1271.83	12.4788
1272.1	6.19526
1272.38	14.5682
1272.65	15.619
1272.93	9.34357
1273.2	11.4407
1273.47	11.4434
1273.75	16.6872
1274.03	14.5946
1274.3	14.5986
1274.57	8.30518
1274.85	10.398
1275.12	16.6834
1275.4	11.4325
1275.67	11.4304
1275.95	14.5781
1276.22	10.3818
1276.5	10.3848
1276.77	8.28614
1277.05	10.3873
1277.32	9.3369
1277.6	11.4413
1277.87	9.34401
1278.14	13.5514
1278.42	17.7591
1278.69	14.6086
1278.97	11.4608
1279.24	13.5661
1279.52	13.5684
1279.79	11.458
1280.07	16.7101
1280.34	21.9596
1280.61	14.592
1280.89	20.9022
1281.16	25.1108
1281.44	26.1726
1281.71	28.2908
1281.99	29.3479
1282.26	34.6067
1282.53	45.1367
1282.81	57.7761
1283.08	92.4968
1283.36	108.218
1283.63	152.249
1283.91	208.926
1284.18	273.018
1284.45	335.206
1284.73	362.291
1285	369.736
1285.28	267.518
1285.55	174.692
1285.83	100.923
1286.1	74.6034
1286.37	49.3505
1286.65	32.4998
1286.92	30.3824
1287.2	24.064
1287.47	20.9022
1287.75	15.6318
1288.02	11.4144
1288.29	10.3582
1288.57	14.5675
1288.84	8.25481
1289.12	10.3629
1289.39	8.26399
1289.66	16.6937
1289.94	6.17274
1290.21	8.2873
1290.49	7.24132
1290.76	4.08243
1291.03	5.13397
1291.31	10.4002
1291.58	6.18859
1291.86	6.1903
1292.13	8.29762
1292.4	9.35346
1292.68	1.98548
1292.95	6.19925
1293.22	5.14631
1293.5	4.09769
1293.77	7.27141
1294.05	4.12685
1294.32	4.14339
1294.59	4.15051
1294.87	-1.11846
1295.14	6.26475
1295.42	5.21998
1295.69	5.23759
1295.96	8.42636
1296.24	2.11734
1296.51	4.24758
1296.79	-1.02946
1297.06	4.26105
1297.33	1.09185
1297.61	6.37569
1297.88	4.26107
1298.15	1.0905
1298.43	2.14457
1298.7	5.32196
1298.97	5.32512
1299.25	4.26981
1299.52	6.38302
1299.79	0.0504227
1300.07	4.27864
1300.34	2.179
1300.62	7.46781
1300.89	4.30777
1301.16	5.369
1301.44	-0.960091
1301.71	3.27171
1301.98	0.115858
1302.25	2.23978
1302.53	-0.919121
1302.8	2.2582
1303.08	2.26558
1303.35	5.44031
1303.62	5.44477
1303.9	0.167391
1304.17	-0.881258
1304.44	2.29557
1304.72	0.19223
1304.99	6.53613
1305.26	2.31764
1305.54	3.37705
1305.81	3.3793
1306.08	2.32656
1306.35	4.43858
1306.63	2.33248
1306.9	1.28481
1307.18	7.62206
1307.45	4.47074
1307.72	0.262581
1308	2.38171
1308.27	2.39162
1308.54	3.45826
1308.81	-0.752045
1309.09	3.47895
1309.36	1.38445
1309.63	4.56441
1309.91	8.80078
1310.18	7.75978
1310.45	1.43799
1310.73	2.50266
1311	2.51407
1311.27	3.58205
1311.55	0.429161
1311.82	8.88545
1312.09	2.56704
1312.37	2.58399
1312.64	1.54438
1312.91	2.61435
1313.18	3.68128
1313.46	5.80032
1313.73	2.64459
1314	5.8214
1314.28	6.88725
1314.55	2.67789
1314.82	-1.52978
1315.09	3.76414
1315.37	0.613501
1315.64	-0.425959
1315.91	4.87123
1316.18	5.94495
1316.46	7.01332
1316.73	0.688145
1317	1.75682
1317.28	8.10625
1317.55	2.83992
1317.82	3.91432
1318.09	0.762428
1318.37	7.11682
1318.64	5.01964
1318.91	6.09126
1319.18	3.99299
1319.46	6.11973
1319.73	1.90757
1320	2.97774
1320.28	4.05115
1320.55	1.95364
1320.82	1.96721
1321.09	3.03463
1321.37	5.15558
1321.64	6.21791
1321.91	2.0017
1322.18	4.12275
1322.46	3.07504
1322.73	0.977325
1323	-1.11982
1323.27	1.00147
1323.55	5.22939
1323.82	1.0315
1324.09	-0.00558472
1324.36	5.28353
1324.64	2.13564
1324.91	4.26142
1325.18	1.11381
1325.45	1.13223
1325.73	4.30472
1326	3.25427
1326.27	3.25453
1326.54	4.30347
1326.81	3.25962
1327.09	4.32654
1327.36	3.30128
1327.63	5.44366
1327.9	4.4186
1328.18	2.33887
1328.45	2.36711
1328.72	1.34087
1328.99	1.3671
1329.27	3.49746
1329.54	3.51163
1329.81	7.75276
1330.08	4.6042
1330.35	3.56491
1330.63	1.4696
1330.9	4.64661
1331.17	2.54896
1331.44	3.61293
1331.71	3.62016
1331.99	8.89186
1332.26	0.475924
1332.53	2.59233
1332.8	5.75914
1333.07	4.71526
1333.35	4.72343
1333.62	8.93703
1333.89	2.64051
1334.16	3.70198
1334.43	4.76316
1334.71	3.72444
1334.98	5.83591
1335.25	5.84854
1335.52	3.76312
1335.79	4.82602
1336.07	1.69328
1336.34	11.147
1336.61	3.82086
1336.88	5.93332
1337.15	2.80421
1337.43	7.01407
1337.7	0.742027
1337.97	4.951
1338.24	6.01123
1338.51	8.11893
1338.78	3.94434
1339.06	3.95938
1339.33	2.92902
1339.6	2.9481
1339.87	4.01621
1340.14	6.13216
1340.42	8.2474
1340.69	5.12699
1340.96	4.10081
1341.23	8.30944
1341.5	4.13931
1341.77	3.11036
1342.04	5.22163
1342.32	7.33091
1342.59	6.29791
1342.86	3.17105
1343.13	3.18425
1343.4	8.43065
1343.67	3.21928
1343.95	3.23887
1344.22	5.35087
1344.49	4.32616
1344.76	1.20922
1345.03	6.45635
1345.3	5.42642
1345.58	6.48596
1345.85	3.36191
1346.12	2.33096
1346.39	4.43159
1346.66	9.65773
1346.93	5.49347
1347.2	9.67853
1347.47	4.47421
1347.75	4.48721
1348.02	7.63031
1348.29	5.56256
1348.56	5.58097
1348.83	3.51548
1349.1	5.61623
1349.37	6.67373
1349.65	4.60558
1349.92	5.66286
1350.19	4.63739
1350.46	3.61242
1350.73	6.75112
1351	8.84604
1351.27	7.81859
1351.54	6.79443
1351.81	7.84771
1352.09	4.74697
1352.36	3.72788
1352.63	2.71235
1352.9	5.85981
1353.17	6.93057
1353.44	3.83471
1353.71	2.83771
1353.98	7.05362
1354.25	9.1292
1354.53	3.9017
1354.8	7.01166
1355.07	8.0754
1355.34	3.94283
1355.61	8.10961
1355.88	8.12517
1356.15	7.11825
1356.42	7.14199
1356.69	9.23436
1356.96	8.21377
1357.24	6.15517
1357.51	6.17358
1357.78	6.19106
1358.05	6.20779
1358.32	9.33814
1358.59	8.31571
1358.86	7.29402
1359.13	9.38405
1359.4	10.4363
1359.67	7.34147
1359.94	12.5438
1360.22	8.409
1360.49	8.42096
1360.76	7.3973
1361.03	10.5207
1361.3	8.46751
1361.57	11.5958
1361.84	4.36507
1362.11	12.6707
1362.38	11.652
1362.65	12.7049
1362.92	4.43929
1363.19	10.6718
1363.46	7.5887
1363.73	9.68631
1364	9.71151
1364.28	9.73666
1364.55	12.865
1364.82	6.66886
1365.09	12.901
1365.36	16.0222
1365.63	13.9641
1365.9	12.9413
1366.17	15.0239
1366.44	14.0018
1366.71	11.9453
1366.98	15.0584
1367.25	14.0326
1367.52	9.91366
1367.79	13.0316
1368.06	12.0235
1368.33	15.1479
1368.6	13.1036
1368.87	11.0589
1369.15	11.0817
1369.41	16.2746
1369.68	26.6379
1369.95	31.8221
1370.23	27.7015
1370.5	21.5145
1370.77	17.3902
1371.04	17.4056
1371.31	18.4518
1371.58	11.2316
1371.85	17.4353
1372.12	16.408
1372.39	13.744
1372.66	13.744
1372.93	12.7969
1373.2	12.4526
1373.47	13.7786
1373.74	13.2879
1374.01	12.9631
1374.28	13.5281
1374.55	13.611
1374.82	15.2074
1375.09	15.5098
1375.36	17.1114
1375.63	16.1376
1375.9	16.0106
1376.17	17.4076
1376.44	16.3627
1376.71	15.6686
1376.98	15.6065
1377.25	16.7057
1377.52	16.2716
1377.79	16.4029
1378.06	16.9608
1378.33	17.2858
1378.6	17.5641
1378.87	17.4689
1379.14	17.2296
1379.41	17.6019
1379.68	18.022
1379.95	18.6713
1380.22	19.2043
1380.49	19.8321
1380.76	20.0694
1381.03	23.0045
1381.3	24.315
1381.57	27.4497
1381.84	29.2391
1382.11	33.0678
1382.38	33.0678
1382.65	33.0678
1382.92	35.0804
1383.19	35.0804
1383.46	37.0931
1383.73	36.4579
1384	39.1057
1384.27	45.1437
1384.54	45.047
1384.81	49.169
1385.08	57.2196
1385.34	57.2196
1385.61	69.2955
1385.88	77.7433
1386.15	84.9701
1386.42	101.432
1386.69	141.53
1386.96	176.487
1387.23	244.293
1387.5	393.944
1387.77	609.303
1388.04	803.578
1388.31	848.09
1388.58	591.269
1388.85	320.658
1389.12	178.467
1389.39	119.061
1389.66	88.2857
1389.93	62.6432
1390.2	50.3135
1390.46	46.1721
1390.73	41.0377
1391	37.9764
1391.27	32.8446
1391.54	30.8069
1391.81	26.7199
1392.08	26.7257
1392.35	27.7542
1392.62	25.7119
1392.89	24.6966
1393.16	18.5643
1393.43	22.6706
1393.7	19.6118
1393.97	17.5775
1394.23	20.6604
1394.5	19.6503
1394.77	18.6406
1395.04	14.5621
1395.31	16.6283
1395.58	19.7207
1395.85	18.7176
1396.12	20.7824
1396.39	18.7494
1396.66	16.7145
1396.93	14.6787
1397.2	15.7128
1397.46	17.7674
1397.73	12.661
1398	15.7414
1398.27	8.59632
1398.54	11.6819
1398.81	19.8847
1399.08	15.8099
1399.35	15.8266
1399.62	12.7775
1399.89	9.72539
1400.16	11.7898
1400.42	12.8275
1400.69	12.8465
1400.96	17.9888
1401.23	10.8392
1401.5	14.9482
1401.77	3.70103
1402.04	11.9078
1402.31	12.9571
1402.58	15.0398
1402.84	17.1265
1403.11	9.97367
1403.38	15.1293
1403.65	15.1482
1403.92	14.1354
1404.19	12.0888
1404.46	12.084
1404.73	12.102
1404.99	13.1382
1405.26	14.1732
1405.53	12.1289
1405.8	15.2122
1406.07	13.1683
1406.34	15.2259
1406.61	14.2099
1406.87	16.2696
1407.14	18.3338
1407.41	20.3991
1407.68	24.5155
1407.95	21.4549
1408.22	22.4948
1408.49	24.56
1408.76	35.8542
1409.02	40.9977
1409.29	44.092
1409.56	46.1605
1409.83	55.4093
1410.1	40.038
1410.37	34.9207
1410.63	26.7165
1410.9	23.6391
1411.17	20.5619
1411.44	14.415
1411.71	11.3464
1411.98	7.25528
1412.25	10.3387
1412.51	14.4522
1412.78	14.4729
1413.05	11.4282
1413.32	10.4493
1413.59	9.45083
1413.86	10.4655
1414.12	9.411
1414.39	7.37666
1414.66	9.45737
1414.93	11.5344
1415.2	10.5158
1415.47	6.4201
1415.73	12.5901
1416	9.52073
1416.27	6.45246
1416.54	8.51819
1416.81	3.39548
1417.07	8.54284
1417.34	9.58281
1417.61	10.6229
1417.88	8.58036
1418.15	8.59102
1418.42	7.57304
1418.68	10.6659
1418.95	7.5932
1419.22	6.57458
1419.49	10.6946
1419.76	5.56191
1420.02	6.59316
1420.29	9.67802
1420.56	10.708
1420.83	6.60269
1421.1	10.7117
1421.36	4.55554
1421.63	9.69316
1421.9	9.70271
1422.17	11.7716
1422.44	10.7628
1422.7	7.69834
1422.97	7.72045
1423.24	5.69338
1423.51	4.69312
1423.77	5.6709
1424.04	6.65102
1424.31	6.66509
1424.58	4.59805
1424.85	9.72774
1425.11	10.7677
1425.38	8.74423
1425.65	6.70312
1425.92	8.7571
1426.19	3.64377
1426.45	9.80342
1426.72	7.75326
1426.99	6.7271
1427.26	12.8768
1427.52	8.77416
1427.79	12.8664
1428.06	6.71719
1428.33	3.64699
1428.59	6.72276
1428.86	7.75259
1429.13	8.78365
1429.4	4.69521
1429.67	9.82415
1429.93	6.76089
1430.2	6.77158
1430.47	6.78358
1430.74	5.769
1431	1.67999
1431.27	10.9264
1431.54	1.70576
1431.81	8.89853
1432.07	8.90316
1432.34	8.90249
1432.61	4.79637
1432.87	6.84863
1433.14	4.79391
1433.41	9.91469
1433.68	4.78286
1433.95	5.80164
1434.21	8.87156
1434.48	1.70466
1434.75	4.79134
1435.01	7.87392
1435.28	4.80437
1435.55	3.78315
1435.82	9.9342
1436.08	7.88673
1436.35	3.78971
1436.62	6.8648
1436.89	9.93874
1437.15	8.91443
1437.42	8.9148
1437.69	5.84393
1437.95	9.94039
1438.22	8.91733
1438.49	6.87285
1438.76	8.92783
1439.02	6.88381
1439.29	8.93575
1439.56	6.89027
1439.82	3.82221
1440.09	4.85424
1440.36	5.88799
1440.63	8.96893
1440.89	6.92146
1441.16	3.84708
1441.43	3.84984
1441.69	5.90036
1441.96	0.771109
1442.23	6.92175
1442.49	1.80115
1442.76	5.9045
1443.03	7.96175
1443.3	5.90816
1443.56	8.98076
1443.83	3.85136
1444.1	6.92506
1444.36	6.92463
1444.63	6.92669
1444.9	4.8836
1445.16	5.91543
1445.43	5.9236
1445.7	5.92163
1445.97	6.94519
1446.23	6.94293
1446.5	3.86345
1446.77	5.91277
1447.03	6.93611
1447.3	4.88268
1447.57	5.90518
1447.83	7.95203
1448.1	3.84795
1448.37	5.89742
1448.63	6.92633
1448.9	-0.247913
1449.17	7.95758
1449.43	6.93051
1449.7	6.92716
1449.97	3.84623
1450.23	5.89175
1450.5	5.88628
1450.77	0.757446
1451.03	8.95409
1451.3	7.92535
1451.57	4.8469
1451.83	0.743826
1452.1	5.8631
1452.37	3.81013
1452.63	6.88067
1452.9	-0.292822
1453.17	5.8534
1453.43	7.90339
1453.7	3.80436
1453.97	1.75246
1454.23	3.79799
1454.5	4.81885
1454.77	4.81614
1455.03	2.764
1455.3	6.85931
1455.56	0.706881
1455.83	6.85226
1456.1	1.72946
1456.36	2.75323
1456.63	7.87469
1456.9	3.76968
1457.16	4.78711
1457.43	3.7553
1457.7	5.79894
1457.96	4.76932
1458.23	8.86215
1458.49	5.78543
1458.76	4.75779
1459.03	4.75524
1459.29	4.75236
1459.56	1.67542
1459.82	3.7209
1460.09	7.81406
1460.36	2.68555
1460.62	6.77734
1460.89	4.72201
1461.16	6.76341
1461.42	7.77959
1461.69	5.72348
1461.95	5.71516
1462.22	3.65882
1462.49	7.74377
1462.75	5.6868
1463.02	4.65325
1463.28	7.71124
1463.55	4.63178
1463.82	1.55428
1464.08	4.61535
1464.35	7.68549
1464.61	2.5766
1464.88	4.62593
1465.15	6.67951
1465.41	3.58426
1465.68	6.60128
1465.94	0.450882
1466.21	5.54547
1466.48	3.50555
1466.74	1.45595
1467.01	2.461
1467.27	0.411633
1467.54	3.46802
1467.8	4.48043
1468.07	2.43209
1468.34	5.48488
1468.6	6.49799
1468.87	5.4708
1469.13	1.38281
1469.4	5.45356
1469.67	4.42399
1469.93	3.39303
1470.2	4.40009
1470.46	3.36946
1470.73	2.34028
1470.99	5.38732
1471.26	4.3595
1471.53	2.31161
1471.79	5.35548
1472.06	3.30799
1472.32	4.31721
1472.59	3.29055
1472.85	4.30059
1473.12	3.27404
1473.39	3.26464
1473.65	2.23559
1473.92	2.22453
1474.18	4.24947
1474.45	5.25748
1474.71	8.30236
1474.98	4.22583
1475.24	4.21928
1475.51	3.19357
1475.78	5.22022
1476.04	4.19196
1476.31	6.21557
1476.57	3.15219
1476.84	2.12432
1477.1	3.12956
1477.37	2.10015
1477.63	6.15766
1477.9	3.09714
1478.16	4.10472
1478.43	3.07632
1478.69	4.07964
1478.96	4.06722
1479.22	1.0057
1479.49	6.07397
1479.76	1.99608
1480.02	2.99799
1480.29	6.03067
1480.55	1.95139
1480.82	-2.12387
1481.08	4.96629
1481.35	6.98384
1481.61	4.94087
1481.88	0.875357
1482.14	5.94262
1482.41	1.87801
1482.67	-0.157476
1482.94	1.86636
1483.2	1.85645
1483.47	3.88002
1483.73	3.87165
1484	4.87721
1484.26	2.83553
1484.53	0.786245
1484.79	4.82254
1485.06	0.73245
1485.32	3.73059
1485.59	3.70888
1485.85	4.69118
1486.12	1.69823
1486.38	1.6939
1486.65	3.71916
1486.91	2.67094
1487.18	9.76458
1487.44	0.637894
1487.71	3.66044
1487.97	3.64437
1488.24	0.592106
1488.5	2.60309
1488.77	2.58727
1489.03	-0.465441
1489.3	3.56767
1489.56	1.53042
1489.83	2.52926
1490.09	3.52829
1490.36	1.49366
1490.62	1.48216
1490.89	6.52607
1491.15	4.48686
1491.42	7.50414
1491.68	3.44599
1491.95	2.42254
1492.21	3.42203
1492.48	2.40055
1492.74	0.366247
1493	3.38658
1493.27	2.36325
1493.53	2.35157
1493.8	7.39262
1494.06	0.304077
1494.33	2.31426
1494.59	4.32578
1494.86	8.35998
1495.12	3.29229
1495.39	3.27661
1495.65	6.28927
1495.92	1.217
1496.18	2.20863
1496.45	5.22149
1496.71	2.17736
1496.97	2.16244
1497.24	4.16576
1497.5	5.16261
1497.77	6.15942
1498.03	3.11798
1498.3	4.1144
1498.56	2.08385
1498.82	3.08119
1499.09	4.07883
1499.35	0.0302162
1499.62	1.02844
1499.88	-2.01048
1500.15	1.00721
1500.41	-0.0141811
1500.68	0.982626
1500.94	-0.0402966
1501.2	3.98456
1501.47	5.98806
1501.73	0.924088
1502	-0.0991745
1502.26	0.896547
1502.52	-0.126127
1502.79	3.89507
1503.05	0.850611
1503.32	1.84205
1503.58	0.817989
1503.85	2.81786
1504.11	0.788164
1504.37	0.777191
1504.64	1.77356
1504.9	0.752302
1505.17	2.75503
1505.43	2.73947
1505.7	3.73089
1505.96	3.71093
1506.22	2.68152
1506.49	-0.355692
1506.75	2.65269
1507.02	3.6479
1507.28	0.615393
1507.54	4.63353
1507.81	1.59822
1508.07	0.576958
1508.34	3.58509
1508.6	-3.48268
1508.86	4.56498
1509.13	5.5602
1509.39	5.54712
1509.66	1.5027
1509.92	-0.526188
1510.18	2.48587
1510.45	1.46603
1510.71	0.440535
1510.98	2.43764
1511.24	3.4259
1511.5	6.42622
1511.77	1.36889
1512.03	2.34958
1512.29	2.32366
1512.56	0.28842
1512.82	-2.74805
1513.08	2.25513
1513.35	-0.776266
1513.61	2.21774
1513.88	2.20214
1514.14	-0.818363
1514.4	1.18459
1514.67	4.18668
1514.93	-0.852209
1515.2	1.13769
1515.46	2.12188
1515.72	1.09836
1515.99	1.07768
1516.25	5.06956
1516.51	4.04721
1516.78	5.03358
1517.04	4.01491
1517.3	3.99928
1517.57	3.98463
1517.83	1.96591
1518.09	2.95633
1518.36	1.94387
1518.62	2.93417
1518.88	2.9219
1519.15	-0.0999451
1519.41	-0.111998
1519.67	0.878887
1519.94	1.86925
1520.2	2.85804
1520.47	1.83857
1520.73	3.82909
1520.99	3.8166
1521.26	7.81816
1521.52	0.783184
1521.78	3.78011
1522.05	-0.248508
1522.31	1.74214
1522.57	0.72224
1522.84	3.71461
1523.1	-0.313877
1523.36	1.67405
1523.62	1.65301
1523.89	0.627508
1524.15	4.6148
1524.41	1.59032
1524.68	2.57356
1524.94	1.55437
1525.2	6.55
1525.47	3.53278
1525.73	1.51665
1525.99	1.5059
1526.26	2.49805
1526.52	0.486147
1526.78	2.48122
1527.05	-0.53808
1527.31	-1.55511
1527.57	2.43688
1527.84	1.41899
1528.1	-0.601217
1528.36	0.384886
1528.63	2.37186
1528.89	0.351629
1529.15	1.33716
1529.41	0.320295
1529.68	4.3123
1529.94	0.290247
1530.2	1.27394
1530.47	1.25879
1530.73	2.24838
1530.99	2.23923
1531.25	-1.77732
1531.52	-0.786278
1531.78	0.202238
1532.04	2.19065
1532.31	2.17731
1532.57	-1.84753
1532.83	3.15091
1533.09	1.13906
1533.36	-1.87442
1533.62	0.123758
1533.88	-0.890205
1534.15	0.10074
1534.41	2.09282
1534.67	4.08374
1534.94	3.06465
1535.2	-0.963598
1535.46	5.03749
1535.72	3.01313
1535.99	2.98654
1536.25	0.961296
1536.51	-0.0595398
1536.77	-4.08624
1537.04	2.89945
1537.3	-0.124458
1537.56	1.85946
1537.82	2.84028
1538.09	0.826181
1538.35	1.8077
1538.61	1.78624
1538.87	1.77005
1539.14	-0.245125
1539.4	1.74678
1539.66	-0.253822
1539.92	0.749798
1540.19	2.7511
1540.45	-0.258034
1540.71	2.74548
1540.97	-1.27226
1541.24	0.722221
1541.5	0.698853
1541.76	0.684141
1542.02	-0.338009
1542.29	0.64477
1542.55	0.625389
1542.81	-2.3982
1543.07	7.59514
1543.34	-1.43363
1543.6	1.54973
1543.86	-2.47319
1544.12	0.506611
1544.39	4.49449
1544.65	2.48246
1544.91	0.473684
1545.17	-0.533354
1545.43	4.46258
1545.7	0.45499
1545.96	2.44973
1546.22	0.436533
1546.48	1.42752
1546.74	-0.590473
1547.01	1.40075
1547.27	0.388514
1547.53	4.38588
1547.79	3.37361
1548.06	0.349226
1548.32	0.323925
1548.58	-0.690516
1548.84	1.30031
1549.1	1.29446
1549.37	0.258287
1549.63	2.22063
1549.89	2.20211
1550.15	-1.79699
1550.42	1.21557
1550.68	3.24468
1550.94	-3.76525
1551.2	0.259516
1551.46	3.24299
1551.73	1.22454
1551.99	0.202988
1552.25	1.18656
1552.51	1.18467
1552.77	1.18201
1553.03	2.17055
1553.3	2.15057
1553.56	3.12283
1553.82	3.106
1554.08	3.09128
1554.34	3.07347
1554.61	-0.956976
1554.87	-0.976908
1555.13	4.01232
1555.39	1.99282
1555.65	2.98052
1555.91	-2.04052
1556.18	2.95736
1556.44	0.941807
1556.7	1.92751
1556.96	1.91555
1557.22	2.90676
1557.48	-0.109167
1557.75	1.88266
1558.01	0.867447
1558.27	-0.150606
1558.53	-2.17247
1558.79	-2.18986
1559.06	-0.207701
1559.32	-0.226736
1559.58	5.75569
1559.84	1.73794
1560.1	0.721972
1560.36	0.706659
1560.63	-0.307091
1560.89	-1.32005
1561.15	1.66493
1561.41	-0.345675
1561.67	-0.355654
1561.93	4.63492
1562.19	0.631678
1562.46	1.62757
1562.72	1.61635
1562.98	-1.39662
1563.24	-0.409868
1563.5	-1.42017
1563.76	0.566298
1564.02	0.55356
1564.29	4.55186
1564.55	3.55097
1564.81	-0.459913
1565.07	3.5302
1565.33	0.503214
1565.59	-0.548876
1565.85	1.37583
1566.11	-1.65127
1566.38	-0.572023
1566.64	-0.554911
1566.9	-0.577702
1567.16	-0.603897
1567.42	3.40293
1567.68	3.41637
1567.94	2.39903
1568.2	1.37033
1568.47	2.36252
1568.73	2.35555
1568.99	-1.65298
1569.25	2.33386
1569.51	1.31423
1569.77	-0.700287
1570.03	0.288818
1570.29	-2.71772
1570.55	-2.72753
1570.82	1.26018
1571.08	3.2482
1571.34	1.2381
1571.6	0.226421
1571.86	0.212519
1572.12	-1.7997
1572.38	4.18299
1572.64	1.17307
1572.9	0.159658
1573.17	0.146231
1573.43	1.13127
1573.69	2.11546
1573.95	1.10395
1574.21	-0.901241
1574.47	0.0915031
1574.73	1.0859
1574.99	-0.914949
1575.25	4.076
1575.51	3.0741
1575.78	6.06766
1576.04	4.06095
1576.3	2.05096
1576.56	1.04188
1576.82	3.02812
1577.08	-0.985117
1577.34	2.99067
1577.6	3.96986
1577.86	2.95322
1578.12	-0.0568542
1578.38	-1.07022
1578.64	0.910538
1578.9	0.900154
1579.17	1.88794
1579.43	-1.11182
1579.69	1.87044
1579.95	2.86024
1580.21	1.85842
1580.47	1.85173
1580.73	0.84646
1580.99	-0.160257
1581.25	-2.16563
1581.51	0.81311
1581.77	2.79499
1582.03	-0.208527
1582.29	-1.21833
1582.55	0.764341
1582.81	7.72799
1583.07	1.74048
1583.33	5.71527
1583.59	2.71816
1583.85	1.71346
1584.11	3.6948
1584.38	-0.296913
1584.64	0.693396
1584.9	3.67557
1585.16	-0.315502
1585.42	-0.323402
1585.68	1.65976
1585.94	2.64757
1586.2	3.63339
1586.46	0.632248
1586.72	2.60956
1586.98	1.60205
1587.24	2.58642
1587.5	3.57131
1587.76	3.56169
1588.02	3.55315
1588.28	0.561478
1588.54	2.54643
1588.8	3.53765
1589.06	2.53957
1589.32	-1.44551
1589.58	4.52365
1589.84	4.51958
1590.1	1.52696
1590.36	2.51584
1590.62	1.51568
1590.88	-0.479488
1591.14	4.49582
1591.4	2.49673
1591.66	1.49425
1591.92	2.48193
1592.18	2.47282
1592.44	0.469522
1592.7	-1.535
1592.96	5.41804
1593.22	2.42294
1593.48	-2.56518
1593.74	2.39022
1594	0.385796
1594.26	3.35359
1594.52	0.364231
1594.78	6.31793
1595.04	2.34245
1595.3	0.355129
1595.56	4.32766
1595.82	0.347353
1596.08	4.30341
1596.34	3.30412
1596.6	1.31225
1596.86	2.30036
1597.12	1.30284
1597.38	-0.687223
1597.64	1.29657
1597.9	1.2937
1598.16	5.2619
1598.42	1.28053
1598.68	3.25733
1598.94	2.25191
1599.2	0.255074
1599.46	1.23812
1599.72	7.18304
1599.98	6.18077
1600.24	3.19485
1600.5	-0.781694
1600.76	2.18411
1601.02	2.17302
1601.28	5.13358
1601.54	4.12852
1601.8	2.13393
1602.06	5.09302
1602.32	4.09259
1602.58	5.07271
1602.84	-0.875336
1603.1	3.07225
1603.36	2.07298
1603.62	5.03094
1603.88	4.0345
1604.14	3.03957
1604.4	5.01264
1604.66	2.04328
1604.92	1.05171
1605.17	5.00357
1605.43	2.03436
1605.69	4.0096
1605.95	7.96424
1606.21	4.00866
1606.47	3.02005
1606.73	10.9347
1606.99	1.04153
1607.25	3.02205
1607.51	3.01984
1607.77	5.97738
1608.03	5.01187
1608.29	5.87759
1608.55	3.15257
1608.81	2.86982
1609.07	4.11313
1609.32	4.03333
1609.58	3.26704
1609.84	2.3505
1610.1	5.81026
1610.36	4.65096
1610.62	5.50465
1610.88	4.06187
1611.14	4.70156
1611.4	4.3918
1611.66	4.40536
1611.92	1.56546
1612.18	8.05727
1612.44	4.32767
1612.69	3.32752
1612.95	3.4505
1613.21	-0.97928
1613.47	3.93684
1613.73	4.92204
1613.99	3.71847
1614.25	3.76127
1614.51	0.765839
1614.77	2.62064
1615.03	6.57015
1615.29	1.95739
1615.54	6.47216
1615.8	4.00499
1616.06	6.26627
1616.32	4.26138
1616.58	3.01822
1616.84	5.14075
1617.1	5.30703
1617.36	5.73613
1617.62	7.01328
1617.88	5.8891
1618.13	3.72603
1618.39	4.60712
1618.65	3.91505
1618.91	3.27427
1619.17	4.09435
1619.43	6.80894
1619.69	3.06676
1619.95	2.89026
1620.2	4.55742
1620.46	3.74786
1620.72	4.72532
1620.98	6.60901
1621.24	1.87329
1621.5	4.74653
1621.76	6.06888
1622.02	4.94196
1622.27	5.51345
1622.53	6.36987
1622.79	5.38126
1623.05	4.76054
1623.31	5.45907
1623.57	5.18303
1623.83	3.71567
1624.09	5.79269
1624.34	4.76602
1624.6	3.93498
1624.86	5.88376
1625.12	6.25526
1625.38	4.29361
1625.64	4.42534
1625.9	4.11135
1626.15	5.90937
1626.41	7.08837
1626.67	6.70971
1626.93	2.48984
1627.19	5.1604
1627.45	4.93513
1627.7	4.65867
1627.96	5.24851
1628.22	5.74818
1628.48	3.02113
1628.74	5.09538
1629	5.3275
1629.26	6.92627
1629.51	6.38815
1629.77	4.16414
1630.03	3.3959
1630.29	6.18848
1630.55	4.42443
1630.81	7.43109
1631.06	5.51898
1631.32	3.95388
1631.53	3.9838
1631.79	6.94612
1632.05	7.93995
1632.31	4.00612
1632.57	10.9055
1632.84	4.01793
1633.1	7.98063
1633.36	6.98536
1633.62	9.92758
1633.88	7.9558
1634.14	7.96342
1634.4	7.97171
1634.66	6.99081
1634.93	5.02332
1635.19	6.99737
1635.45	4.04231
1635.71	7.9861
1635.97	5.03009
1636.23	8.97196
1636.49	8.97113
1636.75	6.99993
1637.02	6.99901
1637.28	5.02758
1637.54	6.01034
1637.8	4.04186
1638.06	6.99833
1638.32	10.9372
1638.58	7.98407
1638.84	7.0011
1639.1	7.00542
1639.37	9.96263
1639.63	5.0446
1639.89	9.97027
1640.15	10.9582
1640.41	3.08675
1640.67	4.07627
1640.93	6.05527
1641.19	9.01796
1641.46	6.06968
1641.72	8.04129
1641.98	7.05772
1642.24	5.0911
1642.5	8.04744
1642.76	6.08199
1643.02	7.06973
1643.28	4.1205
1643.54	6.09333
1643.8	11.0188
1644.06	8.06828
1644.33	5.11744
1644.59	8.06958
1644.85	3.15129
1645.11	7.09073
1645.37	8.0824
1645.63	11.0442
1645.89	9.08429
1646.15	3.18566
1646.41	0.236307
1646.67	6.14211
1646.93	5.16062
1647.19	4.18056
1647.46	8.11775
1647.72	7.13634
1647.98	5.17236
1648.24	8.12785
1648.5	5.18473
1648.76	8.14693
1649.02	7.17569
1649.28	6.21377
1649.54	10.1643
1649.8	4.26004
1650.06	8.2003
1650.32	15.0966
1650.58	9.20732
1650.85	9.22213
1651.11	6.27986
1651.37	5.30721
1651.63	7.28851
1651.89	7.297
1652.15	9.27476
1652.41	8.29612
1652.67	6.33331
1652.93	8.30781
1653.19	6.34005
1653.45	4.3748
1653.71	7.33766
1653.97	9.31681
1654.23	1.44418
1654.49	8.35131
1654.75	8.35993
1655.01	4.42716
1655.27	9.3668
1655.53	6.42333
1655.8	4.46753
1656.06	8.4319
1656.32	3.51336
1656.57	9.44731
1656.84	5.50974
1657.1	9.46733
1657.36	5.52565
1657.62	7.50479
1657.88	6.52213
1658.14	3.56733
1658.4	11.4674
1658.66	6.53797
1658.92	3.58187
1659.18	3.58577
1659.44	3.58959
1659.7	4.57962
1659.96	5.56936
1660.22	6.55676
1660.48	5.5818
1660.74	2.63614
1661	6.5933
1661.26	9.56631
1661.52	6.62183
1661.78	3.67673
1662.04	7.63492
1662.3	7.64606
1662.56	4.66712
1662.82	7.69532
1663.08	6.74913
1663.34	6.74051
1663.6	2.79272
1663.86	6.74663
1664.12	8.66244
1664.38	6.7329
1664.64	4.77518
1664.9	7.74893
1665.16	5.79864
1665.42	1.86173
1665.68	4.80321
1665.94	6.75705
1666.2	3.8816
1666.46	7.85253
1666.72	4.89225
1666.98	6.83501
1667.24	4.77803
1667.5	4.87451
1667.76	2.90369
1668.02	7.84281
1668.28	6.8624
1668.54	5.88027
1668.8	2.931
1669.06	5.91433
1669.32	5.94154
1669.58	6.94249
1669.84	1.02662
1670.1	4.98867
1670.36	4.00793
1670.62	7.96875
1670.88	8.98395
1671.14	5.05112
1671.4	5.05833
1671.66	5.06622
1671.92	6.06352
1672.18	4.09839
1672.44	6.08817
1672.69	6.09957
1672.95	1.16729
1673.21	2.16612
1673.47	6.13155
1673.73	3.1777
1673.99	4.17883
1674.25	7.15878
1674.51	5.19593
1674.77	5.21029
1675.03	4.2357
1675.29	1.28382
1675.55	6.24619
1675.81	5.27015
1676.07	5.28147
1676.33	7.27118
1676.59	2.33502
1676.85	6.30629
1677.11	7.30796
1677.37	6.32885
1677.63	4.35888
1677.89	6.34664
1678.14	0.416773
1678.4	-1.5553
1678.66	3.39631
1678.92	3.40261
1679.18	6.37634
1679.44	4.40677
1679.7	8.36992
1679.96	5.41275
1680.22	1.46787
1680.48	3.45398
1680.74	6.42719
1681	4.45963
1681.26	6.44468
1681.52	7.44281
1681.78	4.4902
1682.03	6.4775
1682.29	1.54968
1682.55	5.5134
1682.81	2.56204
1683.07	3.56072
1683.33	3.57183
1683.59	8.52279
1683.85	4.58324
1684.11	0.643072
1684.37	6.58026
1684.63	4.61239
1684.89	0.671879
1685.14	5.62027
1685.4	3.65652
1685.66	3.6682
1685.92	-1.25697
1686.18	1.71785
1686.44	3.70571
1686.7	3.72031
1686.96	5.71385
1687.22	1.77775
1687.48	4.75448
1687.73	0.813431
1687.99	0.823063
1688.25	1.82038
1688.51	2.81804
1688.77	4.80256
1689.03	7.77281
1689.29	5.80465
1689.55	4.82544
1689.81	-0.100452
1690.06	5.82681
1690.32	3.86036
1690.58	4.85757
1690.84	3.8905
1691.1	-0.0395012
1691.36	4.90895
1691.62	6.89686
1691.88	0.991896
1692.13	4.95483
1692.39	2.99398
1692.65	1.03172
1692.91	3.01469
1693.17	2.03614
1693.43	1.05712
1693.69	6.9801
1693.95	0.0836926
1694.2	1.07772
1694.46	5.02769
1694.72	6.02016
1694.98	1.10386
1695.24	2.10181
1695.5	5.07187
1695.76	2.13137
1696.01	1.16101
1696.27	3.14664
1696.53	4.14912
1696.79	3.17963
1697.05	5.16389
1697.31	1.23306
1697.57	5.18294
1697.82	-5.64559
1698.08	3.22577
1698.34	1.26476
1698.6	3.24281
1698.86	2.26792
1699.12	2.27811
1699.38	-2.6299
1699.63	4.27088
1699.89	2.31812
1700.15	-0.620037
1700.41	1.36216
1700.67	2.35531
1700.92	-2.55104
1701.18	1.39692
1701.44	-0.558035
1701.7	1.42109
1701.96	2.41447
1702.22	4.38979
1702.47	4.39883
1702.73	3.42447
1702.99	0.485477
1703.25	3.44608
1703.51	-0.471146
1703.77	3.47169
1704.02	2.50066
1704.28	-0.434025
1704.54	-0.417908
1704.8	-2.3661
1705.06	1.57937
1705.32	1.59235
1705.57	3.57004
1705.83	1.61907
1706.09	3.59843
1706.35	1.6437
1706.61	4.59937
1706.86	3.62523
1707.12	3.63284
1707.38	3.64061
1707.64	3.64925
1707.9	1.69452
1708.16	-0.260233
1708.41	0.727436
1708.67	3.67455
1708.93	-0.239479
1709.19	1.72647
1709.44	-0.222982
1709.7	4.68323
1709.96	0.779871
1710.22	4.7097
1710.48	1.78784
1710.73	1.80309
1710.99	3.77775
1711.25	3.7961
1711.51	-0.104147
1711.77	-1.06703
1712.02	0.908091
1712.28	3.86143
1712.54	2.89373
1712.8	1.92216
1713.06	3.88423
1713.31	0.952728
1713.57	2.9138
1713.83	2.91934
1714.09	3.90168
1714.34	0.00359917
1714.6	2.94597
1714.86	3.9351
1715.12	2.97158
1715.38	2.98586
1715.63	0.0742111
1715.89	-0.883249
1716.15	2.06259
1716.41	-0.855654
1716.66	3.06341
1716.92	2.09618
1717.18	1.12776
1717.44	1.13441
1717.69	1.13936
1717.95	-3.73294
1718.21	4.07149
1718.47	-0.795351
1718.72	2.1345
1718.98	-0.777321
1719.24	0.208561
1719.5	-2.69803
1719.75	4.13205
1720.01	1.22472
1720.27	2.21485
1720.53	2.23076
1720.78	0.296101
1721.04	0.307011
1721.3	0.315826
1721.56	1.29901
1721.81	0.336555
1722.07	1.31889
1722.33	0.355816
1722.59	-2.55103
1722.84	1.34611
1723.1	-1.55907
1723.36	3.3083
1723.62	2.3478
1723.87	1.38883
1724.13	-1.50959
1724.39	-0.525349
1724.64	1.4303
1724.9	1.44156
1725.16	2.421
1725.42	3.3966
1725.67	-1.44616
1725.93	3.40827
1726.19	4.38624
1726.45	2.46003
1726.7	1.50769
1726.96	2.48992
1727.22	3.47028
1727.47	-2.33501
1727.73	0.585138
1727.99	0.605438
1728.24	2.55639
1728.5	0.630301
1728.76	-0.331167
1729.02	-1.3121
1729.27	-0.362568
1729.53	1.57017
1729.79	0.632891
1730.05	1.62521
1730.3	1.64911
1730.56	1.65016
1730.82	-0.271801
1731.07	0.706404
1731.33	-1.18654
1731.59	3.66209
1731.84	0.778099
1732.1	0.792637
1732.36	0.80628
1732.61	0.819162
1732.87	-0.134386
1733.13	4.70759
1733.39	0.853767
1733.64	0.862009
1733.9	3.76382
1734.16	2.80369
1734.41	0.882427
1734.67	2.81889
1734.93	-1.02925
1735.18	-1.02075
1735.44	-1.97533
1735.7	0.923061
1735.95	-1.95475
1736.21	-0.0175762
1736.47	1.92049
1736.72	0.00819778
1736.98	0.0203972
1737.24	3.88113
1737.49	3.8924
1737.75	1.98024
1738.01	-0.89307
1738.26	2.00316
1738.52	1.05178
1738.78	2.98448
1739.03	1.07237
1739.29	-2.76095
1739.55	1.09065
1739.8	3.97761
1740.06	1.10236
1740.32	3.02639
1740.57	3.0323
1740.83	-1.75335
1741.09	1.13197
1741.34	1.14186
1741.6	2.10981
1741.86	-1.71101
1742.11	3.08859
1742.37	-1.68656
1742.63	2.15685
1742.88	4.08445
1743.14	3.13944
1743.4	1.23836
1743.65	5.08113
1743.91	-0.649059
1744.16	2.23217
1744.42	3.1997
1744.68	0.341137
1744.93	0.354383
1745.19	5.15146
1745.45	2.29706
1745.7	1.35516
1745.96	-0.544216
1746.22	-0.532118
1746.47	5.21552
1746.73	-1.46791
1746.98	1.40786
1747.24	5.23904
1747.5	2.3809
1747.75	0.480495
1748.01	3.35419
1748.27	2.41149
1748.52	-1.39277
1748.78	2.4403
1749.03	0.546469
1749.29	-0.392254
1749.55	-0.375549
1749.8	3.46197
1750.06	1.57076
1750.32	3.50092
1750.57	0.654064
1750.83	-0.282928
1751.08	4.51252
1751.34	-1.20626
1751.6	0.720736
1751.85	-0.223532
1752.11	0.740814
1752.36	1.7041
1752.62	-0.196791
1752.88	3.63286
1753.13	1.73236
1753.39	0.787325
1753.64	-0.156721
1753.9	0.808315
1754.15	0.819128
1754.41	-1.07877
1754.67	1.79187
1754.92	-1.05761
1755.18	3.72035
1755.43	-1.03414
1755.69	3.74289
1755.95	1.84719
1756.2	0.903902
1756.46	-0.039547
1756.71	1.87355
1756.97	0.928719
1757.23	-0.0155373
1757.48	3.79791
1757.74	5.71144
1757.99	0.966824
1758.25	4.78666
1758.5	2.90495
1758.76	3.87244
1759.02	1.98383
1759.27	0.0947762
1759.53	2.01199
1759.78	3.93023
1760.04	3.9436
1760.3	4.9072
1760.55	3.01587
1760.81	0.173273
1761.06	3.03855
1761.32	1.14632
1761.57	3.05765
1761.83	-0.73572
1762.08	-0.724455
1762.34	0.238247
1762.6	-0.699457
1762.85	3.12006
1763.11	1.23446
1763.36	5.05182
1763.62	2.21183
1763.87	1.27522
1764.13	-0.611683
1764.38	-0.596327
1764.64	2.27464
1764.89	5.15081
1765.15	3.26456
1765.4	3.28087
1765.66	2.34443
1765.92	2.35915
1766.17	4.2773
1766.43	1.43447
1766.68	-0.457108
1766.94	3.36242
1767.19	2.42216
1767.45	1.48305
1767.7	0.542608
1767.96	5.31145
1768.21	0.563059
1768.47	2.47665
1768.73	1.53649
1768.98	0.596659
1769.24	4.40504
1769.49	3.45454
1769.75	0.606251
1770	1.56186
1770.26	0.625725
1770.51	3.49267
1770.77	-3.13921
1771.02	1.62417
1771.28	1.6384
1771.53	0.706337
1771.79	2.62763
1772.04	0.741299
1772.3	2.65689
1772.55	-0.18014
1772.81	3.64147
1773.06	4.60898
1773.32	-0.133474
1773.57	1.78467
1773.83	2.75111
1774.08	1.81372
1774.34	-1.02814
1774.59	1.84144
1774.85	7.56728
1775.1	3.77448
1775.36	0.931677
1775.61	4.75746
1775.87	2.87462
1776.12	2.89249
1776.38	1.95418
1776.63	1.9672
1776.89	1.02505
1777.14	1.03465
1777.4	-1.81577
1777.65	0.100262
1777.91	-0.843773
1778.16	2.02274
1778.42	0.126038
1778.67	3.94353
1778.93	2.99862
1779.18	4.90833
1779.44	3.96206
1779.69	0.164677
1779.95	4.9329
1780.2	-1.70994
1780.46	3.06149
1780.71	2.12297
1780.97	2.13644
1781.22	1.19817
1781.47	1.21018
1781.73	4.07878
1781.98	0.283817
1782.24	1.25017
1782.49	2.21725
1782.75	1.28091
1783	1.2954
1783.26	3.21496
1783.51	-1.53651
1783.77	1.33648
1784.02	3.25694
1784.28	2.31791
1784.53	3.28657
1784.79	5.21105
1785.04	0.455742
1785.29	1.42253
1785.55	2.38771
1785.8	0.48951
1786.06	2.40651
1786.31	3.36921
1786.57	2.42661
1786.82	3.39329
1787.08	1.49939
1787.33	2.46882
1787.58	0.576111
1787.84	1.54899
1788.09	-0.339437
1788.35	3.50761
1788.6	2.57533
1788.86	2.59483
1789.11	1.65162
1789.37	3.58217
1789.62	4.55895
1789.87	2.6587
1790.13	3.63028
1790.38	9.39483
1790.64	2.69825
1790.89	4.62618
1791.15	1.75954
1791.4	7.51589
1791.65	-3.02577
1791.91	2.72967
1792.16	1.78013
1792.42	3.70589
1792.67	1.80147
1792.93	2.77048
1793.18	2.78321
1793.43	4.71099
1793.69	3.76354
1793.94	5.68979
1794.2	2.82832
1794.45	3.79723
1794.7	5.72307
1794.96	4.77117
1795.21	3.82905
1795.47	3.85575
1795.72	0.0382919
1795.97	3.89211
1796.23	2.94519
1796.48	1.99838
1796.74	2.97217
1796.99	2.98582
1797.25	3.96033
1797.5	3.97388
1797.75	4.94797
1798.01	3.99908
1798.26	2.08807
1798.51	3.0607
1798.77	3.0712
1799.02	3.08057
1799.28	0.203999
1799.53	2.13398
1799.78	3.1012
1800.04	2.14505
1800.29	4.07225
1800.55	1.19573
1800.8	5.04506
1801.05	3.13074
1801.31	5.05938
1801.56	2.18596
1801.81	1.23422
1802.07	3.1647
1802.32	2.21421
1802.58	5.10693
1802.83	5.11857
1803.08	3.20897
1803.34	3.22168
1803.59	4.19613
1803.84	2.28525
1804.1	1.33381
1804.35	4.22848
1804.61	3.27777
1804.86	3.29002
1805.11	0.415419
1805.37	2.35262
1805.62	4.29124
1805.87	-0.510052
1806.13	6.24399
1806.38	0.476179
1806.64	3.37762
1806.89	1.46116
1807.14	0.507032
1807.4	5.33447
1807.65	7.27018
1807.9	1.49529
1808.16	4.39476
1808.41	1.51133
1808.66	3.44724
1808.92	5.38338
1809.17	4.42792
1809.42	4.43637
1809.68	3.48067
1809.93	3.48909
1810.18	3.49744
1810.44	3.50559
1810.69	3.51319
1810.94	2.55539
1811.2	6.41801
1811.45	3.53272
1811.7	2.57544
1811.96	3.54638
1812.21	4.51778
1812.46	1.63362
1812.72	3.57119
1812.97	2.61681
1813.22	1.66281
1813.48	3.60188
1813.73	5.53954
1813.98	0.725206
1814.24	2.66627
1814.49	2.67842
1814.74	5.58769
1815	2.70403
1815.25	5.6131
1815.5	3.69067
1815.76	2.73259
1816.01	4.67314
1816.26	3.71414
1816.52	5.65487
1816.77	4.69619
1817.02	3.73737
1817.27	3.74247
1817.53	4.71225
1817.78	1.80997
1818.03	4.70705
1818.29	0.851023
1818.54	7.62231
1818.79	3.77007
1819.05	6.67868
1819.3	4.75071
1819.55	2.82538
1819.8	5.73339
1820.06	2.84193
1820.31	2.84958
1820.56	3.82458
1820.82	2.86614
1821.07	2.87404
1821.32	-0.020155
1821.58	5.7921
1821.83	0.963631
1822.08	2.90711
1822.33	2.91494
1822.59	4.85805
1822.84	6.80091
1823.09	1.96748
1823.34	3.90988
1823.6	2.94669
1823.85	2.9502
1824.1	4.88916
1824.36	3.92586
1824.61	6.83652
1824.86	6.84371
1825.11	2.9783
1825.37	4.92175
1825.62	5.89742
1825.87	7.84086
1826.12	3.97243
1826.38	3.00871
1826.63	1.07694
1826.88	5.92465
1827.14	6.8984
1827.39	3.99881
1827.64	4.00543
1827.89	3.04354
1828.15	2.08115
1828.4	2.08572
1828.65	2.08937
1828.9	4.02946
1829.16	0.156239
1829.41	2.09601
1829.66	3.06808
1829.91	5.00849
1830.17	3.07454
1830.42	5.01295
1830.67	8.88743
1830.92	5.98441
1831.18	4.05227
1831.43	5.0268
1831.68	6.97046
1831.93	3.10363
1832.19	3.11002
1832.44	4.08513
1832.69	3.12296
1832.94	6.03805
1833.2	4.10652
1833.45	4.11056
1833.7	2.17604
1833.95	7.02835
1834.2	4.12465
1834.46	3.16003
1834.71	4.12756
1834.96	5.08864
1835.21	4.11283
1835.47	2.17079
1835.72	3.13595
1835.97	4.10097
1836.22	5.07113
1836.48	6.03625
1836.73	6.13223
1836.98	4.1906
1837.23	3.19575
1837.48	4.1583
1837.74	4.14631
1837.99	3.16829
1838.24	4.11767
1838.49	6.0401
1838.74	4.10776
1839	4.14559
1839.25	6.10042
1839.5	2.23627
1839.75	6.11747
1840	2.24669
1840.26	4.19266
1840.51	4.17585
1840.76	3.19583
1841.01	4.15354
1841.27	0.278414
1841.52	2.20518
1841.77	5.09645
1842.02	0.262627
1842.27	1.22365
1842.53	4.11396
1842.78	3.14468
1843.03	3.15021
1843.28	1.2212
1843.53	2.18982
1843.78	5.08533
1844.04	1.22872
1844.29	3.15769
1844.54	2.19484
1844.79	4.12826
1845.04	7.98908
1845.3	3.1641
1845.55	3.16652
1845.8	4.13284
1846.05	0.283167
1846.3	5.11913
1846.55	7.0608
1846.81	0.31373
1847.06	5.1353
1847.31	5.10526
1847.56	5.06975
1847.81	3.13864
1848.07	2.17766
1848.32	3.1515
1848.57	5.08903
1848.82	4.11588
1849.07	4.11139
1849.32	6.03875
1849.57	5.07262
1849.83	7.95444
1850.08	3.13723
1850.33	4.09404
1850.58	6.00992
1850.83	3.12056
1851.09	5.03793
1851.34	2.15187
1851.59	3.10948
1851.84	1.18645
1852.09	3.10577
1852.34	6.94632
1852.59	4.06593
1852.84	5.98692
1853.1	6.94752
1853.35	1.186
1853.6	5.0258
1853.85	5.98377
1854.1	5.01975
1854.35	5.97352
1854.6	5.96635
1854.86	3.08303
1855.11	1.16233
1855.36	5.95327
1855.61	3.0714
1855.86	1.14867
1856.11	2.10322
1856.36	2.10146
1856.61	3.05816
1856.87	6.88928
1857.12	4.01551
1857.37	4.01437
1857.62	4.96996
1857.87	4.00952
1858.12	3.04918
1858.37	5.91764
1858.63	3.99842
1858.88	3.99326
1859.13	3.98795
1859.38	3.02592
1859.63	2.06409
1859.88	5.88433
1860.13	5.88314
1860.38	3.97053
1860.63	0.146753
1860.89	4.93052
1861.14	3.02064
1861.39	4.93591
1861.64	4.93913
1861.89	4.94169
1862.14	3.98494
1862.39	2.06903
1862.64	1.1084
1862.9	3.01669
1863.15	5.88002
1863.4	3.96124
1863.65	4.91124
1863.9	4.90538
1864.15	2.03335
1864.4	3.93935
1864.65	2.97922
1864.9	4.88439
1865.15	5.83333
1865.4	2.00785
1865.66	7.72653
1865.91	3.90099
1866.16	2.93797
1866.41	3.88138
1866.66	4.82375
1866.91	1.95587
1867.16	6.7064
1867.41	4.79185
1867.66	5.73323
1867.91	4.77387
1868.16	2.86669
1868.41	4.76405
1868.67	1.90876
1868.92	3.80847
1869.17	4.75834
1869.42	2.85476
1869.67	0.950405
1869.92	5.70023
1870.17	4.74631
1870.42	6.64409
1870.67	5.69031
1870.92	4.73681
1871.17	0.932465
1871.42	5.68186
1871.67	3.77732
1871.92	3.77266
1872.17	1.86669
1872.42	5.66181
1872.68	0.907909
1872.93	5.65056
1873.18	1.84556
1873.43	2.78984
1873.68	8.48226
1873.93	3.73146
1874.18	1.82775
1874.43	-3.87197
1874.68	4.66087
1874.93	3.70433
1875.18	6.54103
1875.43	1.79194
1875.68	2.73161
1875.93	6.51126
1876.18	0.814356
1876.43	4.59093
1876.68	3.63521
1876.93	0.789335
1877.18	3.62136
1877.43	1.71734
1877.68	4.53743
1877.93	6.39735
1878.18	4.52419
1878.44	7.44257
1878.69	2.67236
1878.93	3.60658
1879.19	4.54676
1879.44	5.51079
1879.69	5.51781
1879.94	4.56049
1880.19	5.49743
1880.44	4.5461
1880.69	6.43469
1880.94	1.70167
1881.19	10.2148
1881.44	2.63624
1881.69	4.51717
1881.94	6.39466
1882.19	4.48861
1882.44	3.5286
1882.69	4.45741
1882.94	5.38245
1883.19	4.42897
1883.44	2.52422
1883.69	4.5473
1883.94	3.50567
1884.19	6.27559
1884.44	5.33107
1884.69	3.45436
1884.94	4.38206
1885.19	4.3861
1885.44	4.39313
1885.69	3.44865
1885.94	4.39085
1886.19	1.56493
1886.44	2.50951
1886.69	2.50842
1886.94	3.44667
1887.19	1.54589
1887.44	2.48129
1887.69	3.41606
1887.94	7.18009
1888.19	1.51106
1888.44	6.21555
1888.69	2.43226
1888.94	3.36321
1889.19	0.526844
1889.44	5.2246
1889.69	4.27501
1889.94	4.26976
1890.19	3.32292
1890.44	4.26167
1890.69	7.08677
1890.94	7.08779
1891.19	6.14295
1891.43	1.4281
1891.68	4.24708
1891.94	5.18373
1892.18	6.11925
1892.43	4.22994
1892.68	4.22439
1892.93	3.27502
1893.18	3.26594
1893.43	7.01766
1893.68	2.29713
1893.93	4.16271
1894.18	6.03492
1894.43	6.03375
1894.68	3.20126
1894.93	6.01116
1895.18	4.12547
1895.43	5.99998
1895.68	3.17801
1895.93	4.11467
1896.18	5.99158
1896.43	3.16979
1896.68	3.16796
1896.93	-1.53443
1897.18	2.22463
1897.42	5.04352
1897.68	4.09973
1897.92	4.09544
1898.17	5.97138
1898.42	2.20221
1898.67	5.0161
1898.92	5.9472
1899.17	8.75693
1899.42	4.98532
1899.67	4.97562
1899.92	4.0282
1900.17	6.83848
1900.42	4.95117
1900.67	4.9449
1900.92	3.06131
1901.16	3.05783
1901.41	4.93491
1901.66	2.11444
1901.91	6.81272
1902.16	4.93155
1902.41	2.10981
1902.66	1.16765
1902.91	3.04352
1903.16	4.91726
1903.41	3.0282
1903.66	3.96039
1903.91	5.83336
1904.16	3.94555
1904.41	4.87889
1904.65	2.05182
1904.9	1.10511
1905.15	4.85865
1905.4	0.151501
1905.65	2.9655
1905.9	3.89841
1906.15	6.70571
1906.4	1.05491
1906.65	5.74285
1906.9	4.79491
1907.14	3.84753
1907.39	1.02286
1907.64	1.95603
1907.89	3.82928
1908.14	6.64365
1908.39	4.76327
1908.64	3.81947
1908.89	4.75409
1909.14	3.8106
1909.39	1.92818
1909.63	1.9259
1909.88	3.80507
1910.13	1.92416
1910.38	2.86516
1910.63	0.983641
1910.88	1.92454
1911.13	3.80602
1911.38	6.62861
1911.62	3.79886
1911.87	3.79337
1912.12	4.72884
1912.37	3.77901
1912.62	4.71301
1912.87	5.64797
1913.12	4.69965
1913.37	3.75144
1913.61	4.68764
1913.86	2.80049
1914.11	-0.0270748
1914.36	2.79981
1914.61	4.68373
1914.86	2.79575
1915.11	4.68016
1915.36	2.79111
1915.6	2.78747
1915.85	0.894821
1916.1	7.49314
1916.35	2.76672
1916.6	7.4765
1916.85	4.63619
1917.1	0.852133
1917.34	5.55724
1917.59	5.54719
1917.84	4.59536
1918.09	2.70186
1918.34	3.63843
1918.59	3.63469
1918.83	3.63268
1919.08	5.51839
1919.33	2.68768
1919.58	4.57538
1919.83	4.57789
1920.08	4.57901
1920.33	-0.147942
1920.57	8.35039
1920.82	6.45091
1921.07	4.55593
1921.32	5.49994
1921.57	2.66306
1921.81	4.55045
1922.06	3.60101
1922.31	4.54181
1922.56	3.58917
1922.81	4.52627
1923.06	4.51593
1923.31	0.724081
1923.55	3.55135
1923.8	0.706877
1924.05	3.5337
1924.3	2.57866
1924.55	3.51295
1924.79	3.50334
1925.04	1.60603
1925.29	5.3789
1925.54	1.59531
1925.79	0.647276
1926.04	2.53671
1926.28	5.37235
1926.53	2.5336
1926.78	5.37072
1927.03	5.371
1927.28	5.36878
1927.52	7.25894
1927.77	6.30843
1928.02	3.46312
1928.27	2.51128
1928.52	2.50643
1928.76	6.29033
1929.01	5.33887
1929.26	2.49183
1929.51	4.38359
1929.76	-1.30673
1930	4.38126
1930.25	5.32839
1930.5	2.48177
1930.75	1.53048
1931	5.32597
1931.24	0.573408
1931.49	2.4657
1931.74	4.35573
1931.99	5.2949
1932.24	5.28456
1932.48	6.2231
1932.73	5.26364
1932.98	3.35535
1933.23	5.24458
1933.47	3.33706
1933.72	4.27981
1933.97	2.38119
1934.22	4.28275
1934.46	1.44008
1934.71	1.45014
1934.96	7.16973
1935.21	3.37169
1935.46	5.28365
1935.7	1.47405
1935.95	6.24232
1936.2	6.21891
1936.45	2.39692
1936.69	2.38838
1936.94	6.19006
1937.19	5.22506
1937.44	-1.45524
1937.68	4.2477
1937.93	4.2357
1938.18	3.27239
1938.43	7.06757
1938.68	3.25322
1938.92	5.15752
1939.17	2.29653
1939.42	5.14933
1939.67	5.14596
1939.91	3.23653
1940.16	4.18555
1940.41	4.17919
1940.66	3.22429
1940.9	2.26901
1941.15	4.18313
1941.4	8.00166
1941.64	7.0401
1941.89	-2.51225
1942.14	1.29016
1942.39	6.03743
1942.63	3.17818
1942.88	5.10214
1943.13	2.23586
1943.38	1.27451
1943.62	3.16829
1943.87	4.10536
1944.12	5.04404
1944.37	3.14295
1944.61	4.09488
1944.86	2.18275
1945.11	3.13523
1945.35	3.13327
1945.6	0.264875
1945.85	5.04073
1946.1	4.08275
1946.34	4.07971
1946.59	5.98837
1946.84	2.15838
1947.09	-0.716965
1947.33	5.97031
1947.58	6.91732
1947.83	4.03869
1948.07	2.11843
1948.32	2.11102
1948.57	2.10357
1948.82	2.09464
1949.06	4.95702
1949.31	1.12852
1949.56	4.95152
1949.8	3.03576
1950.05	6.86208
1950.3	2.07515
1950.54	2.07664
1950.79	2.07889
1951.04	2.079
1951.29	4.95646
1951.53	3.04043
1951.78	4.00113
1952.03	3.04091
1952.27	6.8785
1952.52	3.99441
1952.77	2.07002
1953.01	3.02242
1953.26	3.97982
1953.51	4.93922
1953.76	3.00437
1954	2.98903
1954.25	2.00835
1954.49	3.90777
1954.74	3.88866
1954.99	4.82931
1955.24	4.81885
1955.48	2.89499
1955.73	0.0162754
1955.98	4.80589
1956.22	4.80898
1956.47	2.89968
1956.72	5.77786
1956.96	2.89869
1957.21	1.93518
1957.46	1.93298
1957.7	3.8516
1957.95	0.00553703
1958.2	1.92316
1958.44	0.957169
1958.69	2.87388
1958.94	2.86799
1959.18	6.7037
1959.43	0.926134
1959.68	3.7997
1959.92	0.909435
1960.17	2.82074
1960.42	-0.0712128
1960.66	0.879337
1960.91	4.70997
1961.16	2.77846
1961.4	3.72755
1961.65	4.67692
1961.9	0.829025
1962.14	3.70183
1962.39	3.69622
1962.63	3.69024
1962.88	4.64418
1963.13	0.798872
1963.37	0.792782
1963.62	6.54637
1963.87	3.66048
1964.11	5.5749
1964.36	1.73046
1964.61	-0.194599
1964.85	2.67903
1965.1	2.67058
1965.35	2.66422
1965.59	0.736315
1965.84	0.729952
1966.08	5.52675
1966.33	1.68277
1966.58	0.720011
1966.82	2.63957
1967.07	0.714104
1967.32	1.67114
1967.56	5.50863
1967.81	2.61856
1968.05	2.61385
1968.3	2.60805
1968.55	0.679661
1968.79	3.55673
1969.04	2.58678
1969.29	3.53747
1969.53	4.48621
1969.78	4.47216
1970.02	-0.343264
1970.27	3.48545
1970.52	1.55457
1970.76	4.4242
1971.01	4.41362
1971.25	2.48479
1971.5	1.51652
1971.75	3.42646
1971.99	0.54084
1972.24	2.45426
1972.48	4.36852
1972.73	-1.39276
1972.98	3.39736
1973.22	2.42977
1973.47	5.29714
1973.71	3.36754
1973.96	2.39833
1974.21	2.3891
1974.45	2.38096
1974.7	5.24928
1974.94	-0.507862
1975.19	2.36218
1975.44	4.27494
1975.68	4.27177
1975.93	2.35135
1976.17	4.26612
1976.42	1.38498
1976.66	3.29855
1976.91	2.33399
1977.16	1.36869
1977.4	-0.556501
1977.65	3.27279
1977.89	4.22318
1978.14	1.33671
1978.39	4.20352
1978.63	0.359743
1978.88	6.10276
1979.12	1.30275
1979.37	0.338232
1979.61	6.08393
1979.86	4.16106
1980.1	4.15608
1980.35	1.27477
1980.6	6.05932
1980.84	2.2156
1981.09	3.16421
1981.33	3.1564
1981.58	2.18939
1981.82	4.09685
1982.07	6.00502
1982.31	1.20953
1982.56	7.90697
1982.81	4.06661
1983.05	4.05692
1983.3	3.08845
1983.54	2.11919
1983.79	1.15207
1984.03	2.10096
1984.28	4.9634
1984.52	4.95538
1984.77	0.16535
1985.02	3.02692
1985.26	5.88595
1985.51	3.00608
1985.75	2.99772
1986	2.99228
1986.24	2.98813
1986.49	5.85366
1986.73	-0.840528
1986.98	2.02421
1987.22	5.84272
1987.47	2.97038
1987.71	3.91724
1987.96	3.90496
1988.21	3.89177
1988.45	0.0569801
1988.7	0.9977
1988.94	3.83732
1989.19	3.81621
1989.43	2.83298
1989.68	-0.826254
1989.92	2.86386
1990.17	3.68194
1990.41	1.72961
1990.66	1.17761
1990.9	1.85833
1991.15	2.66786
1991.39	2.06362
1991.64	1.85148
1991.88	1.52819
1992.13	2.58482
1992.37	4.4583
1992.62	2.0263
1992.86	4.09135
1993.11	2.0407
1993.35	1.13249
1993.6	-0.999029
1993.84	3.35322
1994.09	3.7245
1994.33	4.45977
1994.58	3.9385
1994.82	1.37591
1995.07	2.05291
1995.31	3.10212
1995.56	1.04413
1995.8	2.99073
1996.05	1.59725
1996.29	1.70326
1996.54	1.0929
1996.78	0.334589
1997.03	3.18796
1997.27	-0.891947
1997.52	1.94639
1997.76	5.32852
1998.01	3.64301
1998.25	1.07685
1998.5	1.65137
1998.74	1.14737
1998.99	3.42429
1999.23	2.41657
1999.48	3.71913
1999.72	3.23669
1999.97	2.92349
2000.21	2.40816
2000.46	3.54303
2000.7	2.5195
2000.95	1.39143
2001.19	3.22889
2001.43	2.86084
2001.68	3.48947
2001.92	1.08468
2002.17	1.67088
2002.41	1.46146
2002.66	2.28301
2002.9	1.53561
2003.15	2.79506
2003.39	1.43081
2003.64	3.19042
2003.88	1.6469
2004.13	0.600359
2004.37	2.3538
2004.61	3.0288
2004.86	2.01457
2005.1	1.51275
2005.35	1.96181
2005.59	3.48973
2005.84	2.46853
2006.08	4.59446
2006.33	2.06255
2006.57	2.47088
2006.81	3.18014
2007.06	3.76796
2007.3	2.11277
2007.55	2.50651
2007.79	2.71224
2008.04	4.63437
2008.28	4.51297
2008.53	2.79265
2008.77	2.45419
2009.01	2.26627
2009.26	3.04773
2009.5	1.46331
2009.75	0.261299
2009.99	4.02291
2010.24	3.10339
2010.48	2.42945
2010.73	2.67675
2010.97	2.27921
2011.21	1.50657
2011.46	2.48486
2011.7	2.51649
2011.95	4.10362
2012.19	-0.321657
2012.43	2.40801
2012.68	1.46115
2012.92	1.45621
2013.17	-2.317
2013.42	2.37864
2013.67	1.42362
2013.91	-3.28722
2014.16	-2.35667
2014.41	4.2089
2014.66	4.19289
2014.9	2.30128
2015.15	1.35678
2015.4	4.17009
2015.64	4.1703
2015.89	4.17143
2016.14	0.415688
2016.39	3.22689
2016.63	4.16887
2016.88	5.12358
2017.13	3.24452
2017.37	4.18003
2017.62	1.35435
2017.87	3.22543
2018.11	-0.541325
2018.36	3.20359
2018.61	0.375847
2018.86	-2.44868
2019.1	5.98172
2019.35	2.21917
2019.6	3.14533
2019.84	2.20134
2020.09	5.00561
2020.34	1.25453
2020.58	1.25147
2020.83	0.311298
2021.08	-0.628611
2021.33	1.24312
2021.57	2.1786
2021.82	2.17625
2022.07	1.23612
2022.31	3.10476
2022.56	2.16265
2022.81	2.15601
2023.05	1.21224
2023.3	2.13958
2023.55	4.00353
2023.8	5.86652
2024.04	1.18302
2024.29	3.98084
2024.54	3.03921
2024.78	0.226166
2025.03	2.08511
2025.27	7.67818
2025.52	2.06641
2025.77	1.12452
2026.02	-0.749243
2026.26	-0.758093
2026.51	2.0399
2026.76	0.180065
2027	2.05832
2027.25	3.00776
2027.5	2.0906
2027.74	3.0363
2027.99	2.09573
2028.23	3.94973
2028.48	2.99147
2028.73	4.78946
2028.98	0.18412
2029.22	0.257076
2029.47	-0.721212
2029.72	5.85084
2029.96	2.06414
2030.21	2.97196
2030.45	0.14566
2030.7	2.00834
2030.95	2.92051
2031.19	5.73368
2031.44	2.01485
2031.69	0.14389
2031.93	-0.79052
2032.18	2.94091
2032.43	2.94623
2032.67	1.08512
2032.92	0.157534
2033.17	2.96594
2033.41	2.9706
2033.66	0.169724
2033.91	3.91474
2034.15	3.91696
2034.4	4.83783
2034.64	1.08331
2034.89	1.99347
2035.14	4.78512
2035.38	3.86138
2035.63	1.06773
2035.87	4.81532
2036.12	-1.71133
2036.37	-1.70291
2036.61	0.165827
2036.86	1.08899
2037.11	0.153799
2037.35	5.76811
2037.6	2.96178
2037.84	2.02472
2038.09	2.95656
2038.34	-0.786402
2038.58	2.94865
2038.83	3.8787
2039.08	1.0709
2039.32	2.00093
2039.57	1.06226
2039.81	3.85958
2040.06	4.78719
2040.31	1.04568
2040.55	5.70496
2040.8	1.03297
2041.04	1.0272
2041.29	3.81969
2041.54	5.67958
2041.78	1.94786
2042.03	3.81038
2042.27	0.0782547
2042.52	1.00731
2042.77	1.93414
2043.01	1.00023
2043.26	2.86312
2043.5	2.86478
2043.75	4.73477
2044	3.81207
2044.24	1.02333
2044.49	1.95928
2044.73	-1.77378
2044.98	0.086935
2045.23	1.00977
2045.47	2.85345
2045.72	1.94908
2045.96	1.0229
2046.21	2.9216
2046.45	2.95939
2046.7	2.00445
2046.95	1.98285
2047.19	1.96637
2047.44	2.90068
2047.68	1.96065
2047.93	0.0781002
2048.17	2.87035
2048.42	2.87139
2048.67	3.80489
2048.91	6.60362
2049.16	0.0794659
2049.4	1.01758
2049.65	0.0894012
2049.89	3.82811
2050.14	3.83718
2050.39	4.77777
2050.63	4.78518
2050.88	2.92104
2051.12	1.05402
2051.37	1.05299
2051.61	0.114977
2051.86	2.91055
2052.11	1.97698
2052.35	-0.823399
2052.6	4.7834
2052.84	0.115238
2053.09	4.78844
2053.33	3.8588
2053.58	3.86413
2053.82	4.80557
2054.07	1.07763
2054.31	0.146942
2054.56	2.02111
2054.8	2.02248
2055.05	4.82892
2055.3	4.82827
2055.54	2.95651
2055.79	0.146334
2056.03	2.01471
2056.28	2.94933
2056.52	1.07813
2056.77	5.75043
2057.01	0.141264
2057.26	4.81547
2057.5	2.01325
2057.75	0.146185
2058	3.88942
2058.24	4.82912
2058.49	-0.777634
2058.73	1.09909
2058.98	0.169193
2059.22	2.04626
2059.47	4.85893
2059.71	1.117
2059.96	2.0554
2060.2	4.86556
2060.45	1.11909
2060.69	1.11693
2060.94	0.179863
2061.18	2.99134
2061.43	2.05975
2061.67	2.9994
2061.92	1.1291
2062.16	4.87587
2062.41	3.00537
2062.65	3.94467
2062.9	2.07552
2063.14	2.07998
2063.39	3.02211
2063.63	3.02733
2063.88	1.15758
2064.12	2.09851
2064.37	3.03908
2064.61	4.91712
2064.86	2.10898
2065.1	1.17605
2065.35	2.12035
2065.59	2.12861
2065.84	3.07473
2066.08	-1.61143
2066.33	7.78231
2066.57	-0.663189
2066.82	4.03436
2067.06	2.16024
2067.31	3.10362
2067.55	1.22855
2067.8	3.11195
2068.04	2.17779
2068.29	5.00187
2068.53	1.24671
2068.78	5.94936
2069.02	-3.44588
2069.27	2.19662
2069.51	-0.624832
2069.76	1.25067
2070	5.00019
2070.25	3.11941
2070.49	5.00182
2070.73	1.25569
2070.98	1.26834
2071.22	0.340679
2071.47	5.98427
2071.71	2.21725
2071.96	2.24484
2072.2	3.19763
2072.45	4.13953
2072.69	1.31475
2072.94	5.08238
2073.18	3.19909
2073.43	5.08402
2073.67	4.14313
2073.92	2.26316
2074.16	2.26589
2074.4	2.2692
2074.65	6.04065
2074.89	2.28
2075.14	0.403679
2075.38	1.35537
2075.63	-0.51885
2075.87	1.38051
2076.12	3.27798
2076.36	6.11637
2076.6	3.28714
2076.85	5.17843
2077.09	2.34597
2077.34	4.23099
2077.58	4.22758
2077.83	4.21848
2078.07	3.27489
2078.31	3.27993
2078.56	2.34391
2078.8	3.29155
2079.05	4.2394
2079.29	-1.41669
2079.54	6.14103
2079.78	2.3784
2080.03	2.38523
2080.27	1.44676
2080.51	0.507683
2080.76	1.45768
2081	4.29533
2081.25	3.35027
2081.49	4.29581
2081.74	3.35263
2081.98	-0.424513
2082.22	3.35626
2082.47	0.525913
2082.71	4.30963
2082.96	1.47847
2083.2	0.536324
2083.45	0.538406
2083.69	2.42992
2083.93	-0.403332
2084.18	4.32387
2084.42	3.38172
2084.67	1.49405
2084.91	2.44184
2085.15	4.33508
2085.4	3.3928
2085.64	3.39525
2085.89	1.50785
2086.13	-0.378271
2086.37	4.35605
2086.62	1.5295
2086.86	3.42884
2087.11	4.37976
2087.35	1.54705
2087.59	2.49951
2087.84	1.55795
2088.08	2.5071
2088.32	4.40288
2088.57	3.45976
2088.81	2.517
2089.06	7.25347
2089.3	-0.315134
2089.54	3.47752
2089.79	4.43109
2090.03	1.59884
2090.28	2.55081
2090.52	2.55466
2090.76	2.55899
2091.01	6.35368
2091.25	3.51661
2091.5	6.36503
2091.74	4.47499
2091.98	2.58797
2092.23	2.59733
2092.47	2.60733
2092.72	5.46429
2092.96	6.42525
2093.2	-3.06046
2093.45	1.69556
2093.69	1.7039
2093.93	2.66229
2094.18	2.66979
2094.42	5.52892
2094.66	3.63174
2094.91	4.58525
2095.15	-0.166664
2095.39	3.63728
2095.64	2.68564
2095.88	5.53521
2096.13	4.58423
2096.37	2.6841
2096.61	5.53525
2096.86	3.6372
2097.1	3.63908
2097.34	3.63873
2097.59	7.43535
2097.83	3.63502
2098.07	1.7372
2098.32	4.58679
2098.56	4.58844
2098.8	3.63864
2099.05	3.64155
2099.29	3.64382
2099.53	5.54339
2099.78	4.59612
2100.02	2.70057
2100.27	4.60168
2100.51	3.6563
2100.75	2.71139
2101	3.66574
2101.24	0.82612
2101.48	3.68195
2101.73	6.53708
2101.97	7.49148
2102.21	0.845644
2102.45	2.74763
2102.7	5.60011
2102.94	6.55126
2103.18	1.80187
2103.43	4.64856
2103.67	-0.0977993
2103.92	-0.0954533
2104.16	-0.0936832
2104.4	2.75734
2104.64	5.61019
2104.89	3.71808
2105.13	3.72453
2105.37	1.83121
2105.62	0.887993
2105.86	3.74608
2106.1	3.75352
2106.35	2.8086
2106.59	1.86324
2106.83	0.916664
2107.08	2.82181
2107.32	2.82683
2107.56	5.68289
2107.8	2.83091
2108.05	1.87896
2108.29	0.926004
2108.53	5.6732
2108.78	4.71946
2109.02	4.71717
2109.26	7.56646
2109.51	3.7725
2109.75	1.88193
2109.99	1.88924
2110.23	8.5422
2110.48	5.69526
2110.72	2.84816
2110.96	1.90102
2111.21	3.80392
2111.45	2.8566
2111.69	3.80785
2111.93	2.8577
2112.18	3.80794
2112.42	6.65832
2112.66	3.81215
2112.91	5.71682
2113.15	1.92299
2113.39	3.82834
2113.63	2.88682
2113.88	4.79512
2114.12	1.94889
2114.36	5.75221
2114.61	3.85208
2114.85	4.80477
2115.09	2.90797
2115.33	1.96093
2115.58	1.01221
2115.82	4.81438
2116.06	2.91486
2116.31	2.91576
2116.55	5.76383
2116.79	2.91245
2117.03	2.91315
2117.28	1.01551
2117.52	5.76538
2117.76	1.02106
2118	3.87033
2118.25	6.71756
2118.49	1.02055
2118.73	5.76274
2118.97	1.01449
2119.22	4.80644
2119.46	1.01087
2119.7	6.69773
2119.94	3.85138
2120.19	5.7452
2120.43	3.84907
2120.67	2.903
2120.91	3.85392
2121.16	3.86052
2121.4	2.91761
2121.64	2.92535
2121.88	4.83012
2122.13	3.88975
2122.37	-0.84613
2122.61	4.85322
2122.85	4.85964
2123.1	4.8656
2123.34	3.92181
2123.58	2.02769
2123.82	3.92995
2124.07	6.77866
2124.31	2.03224
2124.55	2.98019
2124.79	2.97691
2125.03	5.81581
2125.28	3.91027
2125.52	3.90241
2125.76	3.89689
2126	1.99836
2126.25	2.94123
2126.49	3.88427
2126.73	4.828
2126.97	1.98734
2127.21	4.82257
2127.46	5.76555
2127.7	1.9837
2127.94	3.87598
2128.18	2.9316
2128.43	4.82227
2128.67	4.82315
2128.91	3.88041
2129.15	3.88294
2129.39	3.8844
2129.64	3.8849
2129.88	3.88568
2130.12	0.10677
2130.36	2.9432
2130.6	3.88915
2130.85	1.99992
2131.09	2.94493
2131.33	1.05512
2131.57	3.88802
2131.81	6.71982
2132.06	2.94134
2132.3	3.88558
2132.54	5.77329
2132.78	1.99506
2133.02	1.99331
2133.27	6.71152
2133.51	5.76977
2133.75	4.82939
2133.99	2.94516
2134.23	4.83496
2134.48	3.89447
2134.72	5.78491
2134.96	3.89889
2135.2	6.73151
2135.44	2.01437
2135.68	1.07173
2135.93	4.846
2136.17	2.01368
2136.41	1.06607
2136.65	-0.823698
2136.89	8.60244
2137.14	6.72024
2137.38	2.95227
2137.62	4.8403
2137.86	2.95915
2138.1	1.07975
2138.34	2.02317
2138.59	2.96174
2138.83	4.84404
2139.07	2.0222
2139.31	4.86019
2139.55	2.03794
2139.79	4.85752
2140.03	3.90769
2140.28	5.79003
2140.52	2.96161
2140.76	4.8446
2141	1.0761
2141.24	4.84364
2141.49	2.01816
2141.73	3.9038
2141.97	4.8424
2142.21	2.01452
2142.45	6.72087
2142.69	2.95737
2142.93	3.90492
2143.18	4.85189
2143.42	2.98859
2143.66	1.09723
2143.9	6.68548
2144.14	3.86798
2144.38	1.99426
2144.62	2.94353
2144.87	2.01227
2145.11	2.9588
2145.35	2.94744
2145.59	2.0106
2145.83	2.95334
2146.07	2.95357
2146.31	2.01301
2146.55	2.95269
2146.8	4.83229
2147.04	5.77168
2147.28	6.71039
2147.52	5.76839
2147.76	4.8268
2148	2.00677
2148.24	-0.81221
2148.48	2.94393
2148.73	4.82088
2148.97	4.81899
2149.21	3.87765
2149.45	0.119406
2149.69	2.93136
2149.93	3.8613
2150.17	2.91928
2150.42	5.72711
2150.66	4.78579
2150.9	7.59635
2151.14	2.91055
2151.38	3.8509
2151.62	0.105806
2151.86	3.85936
2152.1	1.05074
2152.34	1.05317
2152.58	1.99508
2152.83	3.86856
2153.07	3.86627
2153.31	6.67556
2153.55	6.67216
2153.79	4.79629
2154.03	3.85776
2154.27	4.79179
2154.51	1.97626
2154.75	6.65233
2154.99	0.0893784
2155.24	5.69679
2155.48	5.68629
2155.72	1.00407
2155.96	4.73762
2156.2	3.79772
2156.44	1.92542
2156.68	0.989695
2156.92	1.92364
2157.16	3.79205
2157.4	1.92452
2157.64	2.86093
2157.89	0.0615959
2158.13	4.7384
2158.37	3.8082
2158.61	1.94031
2158.85	4.74486
2159.09	3.80963
2159.33	5.67731
2159.57	6.6091
2159.81	4.73668
2160.05	2.86398
2160.29	3.79284
2160.53	2.85376
2160.77	0.982302
2161.01	2.84524
2161.25	5.64267
2161.5	1.90913
2161.74	2.84049
2161.98	0.972748
2162.22	8.43562
2162.46	6.56996
2162.7	0.972755
2162.94	2.83844
2163.18	4.70233
2163.42	2.83391
2163.66	3.76421
2163.9	0.0319481
2164.14	2.82715
2164.38	4.6892
2164.62	4.68408
2164.86	3.74597
2165.11	3.74225
2165.35	2.81145
2165.59	8.40463
2165.83	3.74577
2166.07	6.54165
2166.31	2.81439
2166.55	3.74348
2166.79	2.80919
2167.03	8.3949
2167.27	-0.924173
2167.51	5.59132
2167.75	4.65434
2167.99	2.78556
2168.23	5.56528
2168.47	4.62412
2168.71	5.54977
2168.95	1.83027
2169.19	4.62032
2169.43	5.55306
2169.67	-1.88248
2169.91	4.63418
2170.15	4.64211
2170.39	3.72003
2170.63	4.65603
2170.87	3.7264
2171.11	7.4493
2171.35	1.85722
2171.59	1.8548
2171.83	2.77633
2172.07	5.55005
2172.31	3.68109
2172.56	1.81729
2172.79	5.53
2173.04	4.59686
2173.28	3.66645
2173.51	4.59451
2173.76	3.66442
2174	0.877954
2174.24	6.45541
2174.48	4.59839
2174.72	2.73993
2174.96	5.52767
2175.2	3.66787
2175.44	0.878441
2175.68	3.66427
2175.92	0.874107
2176.16	6.44797
2176.4	3.65813
2176.64	3.65529
2176.88	2.72175
2177.12	0.861547
2177.36	5.5052
2177.6	4.57592
2177.84	4.57533
2178.08	4.57377
2178.32	2.71565
2178.55	4.57025
2178.8	5.49133
2179.03	4.55677
2179.28	-0.0872021
2179.52	4.55489
2179.75	0.840092
2180	4.55313
2180.23	-1.94773
2180.47	3.62191
2180.71	4.54844
2180.95	4.54564
2181.19	5.47117
2181.43	4.54081
2181.67	1.75313
2181.91	3.60559
2182.15	1.74545
2182.39	2.67094
2182.63	4.52246
2182.87	4.51871
2183.11	4.51502
2183.35	4.50889
2183.59	1.71998
2183.83	3.56643
2184.07	-2.00117
2184.31	0.774677
2184.55	1.69673
2184.79	4.4738
2185.03	2.61983
2185.27	2.62035
2185.51	5.4006
2185.75	6.3277
2185.99	-0.159369
2186.23	2.62345
2186.47	1.69845
2186.7	5.41018
2186.95	2.63239
2187.18	1.70926
2187.42	3.57025
2187.66	3.57511
2187.9	2.64952
2188.14	3.57771
2188.38	-1.07017
2188.62	4.49607
2188.86	0.776024
2189.1	-0.158426
2189.34	4.47474
2189.58	5.39389
2189.82	3.52896
2190.06	4.44775
2190.3	4.44257
2190.54	1.65861
2190.78	4.43801
2191.01	4.438
2191.25	2.58359
2191.49	3.50863
2191.73	2.58064
2191.97	4.43494
2192.21	5.36235
2192.45	3.50742
2192.69	4.43467
2192.93	5.36229
2193.17	5.36423
2193.41	0.726484
2193.65	-0.200611
2193.89	3.51479
2194.13	3.52235
2194.36	0.743567
2194.6	6.32486
2194.84	5.39745
2195.08	2.60484
2195.32	1.67034
2195.56	2.59524
2195.8	5.37722
2196.04	2.58216
2196.28	5.35994
2196.52	2.56332
2196.76	2.55376
2197	-0.238129
2197.23	7.17806
2197.47	4.38813
2197.71	3.45453
2197.95	4.37962
2198.19	4.37775
2198.43	2.52241
2198.67	3.45296
2198.91	6.24052
2199.15	4.3888
2199.38	6.25188
2199.62	2.54074
2199.86	2.54535
2200.1	5.33886
2200.34	8.13844
2200.58	0.705784
2200.82	2.57456
2201.06	3.51225
2201.3	5.37976
2201.54	-0.208563
2201.77	7.23312
2202.01	4.41109
2202.25	2.50025
2202.49	4.32039
2202.73	4.33275
2202.97	1.58283
2203.21	5.31746
2203.45	6.23752
2203.68	2.51007
2203.92	4.38758
2204.16	-0.20636
2204.4	5.36183
2204.64	-0.237564
2204.88	3.49302
2205.12	5.33812
2205.36	5.3129
2205.59	2.49906
2205.83	5.27324
2206.07	8.05556
2206.31	5.26394
2206.55	0.616861
2206.79	8.05431
2207.03	3.39277
2207.26	3.39108
2207.5	4.32123
2207.74	2.46249
2207.98	1.53371
2208.22	6.18724
2208.46	7.12026
2208.7	7.12256
2208.93	3.40024
2209.17	6.1938
2209.41	5.26207
2209.65	1.53519
2209.89	5.25736
2210.13	0.59693
2210.36	1.52573
2210.6	1.52518
2210.84	-0.338249
2211.08	0.59333
2211.32	4.32091
2211.56	1.52511
2211.8	3.3898
2212.03	2.45905
2212.27	1.52785
2212.51	3.39326
2212.75	0.593075
2212.99	3.38673
2213.23	0.582901
2213.46	1.51019
2213.7	1.50341
2213.94	0.563961
2214.18	4.29115
2214.42	1.49481
2214.66	1.50011
2214.89	3.37153
2215.13	0.570309
2215.37	2.43564
2215.61	3.36721
2215.85	4.29844
2216.08	2.42828
2216.32	4.29224
2216.56	4.28843
2216.8	6.15157
2217.04	-3.18909
2217.28	4.27525
2217.51	1.47098
2217.75	3.33548
2217.99	5.20034
2218.23	2.39576
2218.47	4.25926
2218.7	4.25677
2218.94	1.45423
2219.18	4.25544
2219.42	1.45383
2219.66	-0.41437
2219.9	4.25619
2220.13	-0.416975
2220.37	2.38522
2220.61	3.3157
2220.85	5.18021
2221.09	4.2412
2221.32	5.16959
2221.56	3.29163
2221.8	4.2158
2222.04	-0.46199
2222.27	1.39789
2222.51	4.19203
2222.75	2.3208
2222.99	3.25229
2223.23	1.38463
2223.46	3.25177
2223.7	2.31806
2223.94	-0.482965
2224.18	3.25703
2224.42	-1.41346
2224.65	0.458279
2224.89	4.20089
2225.13	0.460468
2225.37	3.26838
2225.6	3.27045
2225.84	4.20967
2226.08	4.2114
2226.32	0.466125
2226.56	-0.47002
2226.79	4.21445
2227.03	5.15319
2227.27	3.27954
2227.51	3.27962
2227.74	3.27874
2227.98	1.40109
2228.22	0.459131
2228.46	2.32927
2228.69	-0.488897
2228.93	-0.493925
2229.17	4.18896
2229.41	-3.31581
2229.64	3.24284
2229.88	2.30542
2230.12	1.36968
2230.36	1.37117
2230.6	0.43302
2230.83	3.24873
2231.07	3.24981
2231.31	3.25113
2231.55	6.07026
2231.78	2.31553
2232.02	1.37663
2232.26	3.25674
2232.5	2.31774
2232.73	1.37836
2232.97	3.25928
2233.21	3.26006
2233.45	3.26063
2233.68	0.438694
2233.92	2.32098
2234.16	4.20288
2234.39	2.31945
2234.63	4.1971
2234.87	-1.45551
2235.11	3.24397
2235.34	0.413498
2235.58	6.04611
2235.82	7.91654
2236.06	4.15215
2236.29	0.38797
2236.53	4.14737
2236.77	5.08573
2237	3.20206
2237.24	5.08101
2237.48	4.14257
2237.72	2.26204
2237.95	0.384211
2238.19	3.2147
2238.43	-1.49094
2238.67	0.395599
2238.9	1.34018
2239.14	4.17226
2239.38	4.1776
2239.61	4.17579
2239.85	0.396753
2240.09	1.33377
2240.33	2.26732
2240.56	1.31569
2240.8	1.30974
2241.04	-3.39992
2241.27	3.207
2241.51	4.1486
2241.75	1.31609
2241.99	-1.51658
2242.22	5.08722
2242.46	2.25466
2242.7	4.14159
2242.93	6.02936
2243.17	6.02661
2243.41	2.24615
2243.64	2.23986
2243.88	-1.54189
2244.12	2.22819
2244.36	1.28057
2244.59	3.16544
2244.83	4.10963
2245.07	2.22522
2245.3	1.28654
2245.54	3.18096
2245.78	4.12838
2246.01	4.12998
2246.25	4.13196
2246.49	4.13377
2246.72	0.351133
2246.96	1.29603
2247.2	0.350016
2247.43	3.18893
2247.67	3.18824
2247.91	0.346813
2248.14	3.18286
2248.38	2.23217
2248.62	1.28139
2248.85	0.330719
2249.09	2.2191
2249.33	0.322401
2249.56	3.15714
2249.8	3.15823
2250.04	5.05111
2250.27	2.20852
2250.51	5.04187
2250.75	-1.58918
2250.98	6.91802
2251.22	3.12561
2251.46	2.17288
2251.69	-0.669554
2251.93	1.21737
2252.17	5.94271
2252.4	4.05168
2252.64	4.05272
2252.88	4.0549
2253.11	5.0062
2253.35	3.12365
2253.59	4.07705
2253.82	4.08164
2254.06	4.08478
2254.3	0.295319
2254.53	2.19274
2254.77	3.14135
2255.01	1.24287
2255.24	1.23822
2255.48	1.23675
2255.72	1.23437
2255.95	2.18088
2256.19	3.12765
2256.42	4.07763
2256.66	2.1826
2256.9	-0.662258
2257.13	1.23642
2257.37	3.13593
2257.61	1.23885
2257.84	-1.60842
2258.08	4.08858
2258.32	0.289295
2258.55	1.23759
2258.79	4.08595
2259.02	1.23665
2259.26	1.23752
2259.5	-0.661631
2259.73	1.23855
2259.97	1.23823
2260.2	1.23864
2260.44	0.288319
2260.68	-2.56357
2260.91	0.288221
2261.15	2.19116
2261.39	-1.60839
2261.62	6.0048
2261.86	0.295448
2262.1	2.19783
2262.33	0.294647
2262.57	0.294556
2262.8	3.15115
2263.04	4.10638
2263.28	4.11009
2263.51	3.16233
2263.75	2.21502
2263.98	4.12759
2264.22	1.27495
2264.46	4.1433
2264.69	1.2874
2264.93	2.24667
2265.16	5.11495
2265.4	1.29872
2265.64	0.345888
2265.87	1.30032
2266.11	2.25502
2266.34	-6.34493
2266.58	5.11041
2266.81	1.28399
2267.05	0.322731
2267.29	6.04285
2267.52	3.17467
2267.76	3.16993
2267.99	6.02666
2268.23	2.20487
2268.47	3.15338
2268.7	1.24385
2268.94	-0.663603
2269.17	1.24533
2269.41	2.20275
2269.65	1.25358
2269.88	5.0764
2270.12	-0.645157
2270.35	1.27085
2270.59	3.1875
2270.82	1.28007
2271.06	-0.629398
2271.3	3.19766
2271.53	-0.623194
2271.77	-0.621435
2272	3.20601
2272.24	2.25326
2272.47	0.34165
2272.71	1.29814
2272.95	0.341818
2273.18	-2.52801
2273.42	2.25671
2273.65	1.3005
2273.89	1.3012
2274.12	1.30194
2274.36	1.30264
2274.6	4.17465
2274.83	0.346849
2275.07	2.26217
2275.3	0.348852
2275.54	-1.56502
2275.77	-1.56404
2276.01	0.349995
2276.24	1.31049
2276.48	2.27337
2276.72	3.23698
2276.95	-1.54926
2277.18	0.37146
2277.42	0.376127
2277.66	3.26011
2277.89	3.26909
2278.13	1.35891
2278.36	4.24898
2278.6	2.33217
2278.83	2.33408
2279.07	-2.46773
2279.3	1.37357
2279.54	0.412085
2279.78	1.36886
2280.01	1.35942
2280.24	-0.565554
2280.48	1.348
2280.72	0.384352
2280.95	-0.578058
2281.19	0.378294
2281.42	4.21131
2281.66	0.374731
2281.89	3.24866
2282.13	1.33487
2282.36	-0.580082
2282.6	4.21729
2282.83	0.387129
2283.07	1.352
2283.3	3.27669
2283.54	1.36493
2283.77	-1.50582
2284.01	1.38557
2284.24	0.434769
2284.48	0.445597
2284.71	-2.43287
2284.95	1.41756
2285.19	0.461697
2285.42	0.46752
2285.65	1.43265
2285.89	4.32169
2286.12	0.468885
2286.36	3.34775
2286.59	1.42471
2286.83	1.42769
2287.06	0.470608
2287.3	2.4068
2287.54	-0.471495
2287.77	0.496016
2288	-2.38967
2288.24	1.47054
2288.47	2.43393
2288.71	-1.42082
2288.94	-0.458933
2289.18	1.46501
2289.41	-0.465204
2289.65	3.37821
2289.88	-0.475964
2290.12	5.28693
2290.35	3.36231
2290.59	1.43915
2290.82	2.40251
2291.06	0.482214
2291.29	1.44879
2291.53	5.30373
2291.76	-0.458263
2292	8.20941
2292.23	1.47897
2292.47	0.52223
2292.7	4.37999
2292.94	1.49876
2293.17	6.32261
2293.41	2.47556
2293.64	0.553988
2293.88	-0.405109
2294.11	1.52615
2294.34	3.45451
2294.58	-3.29159
2294.81	-0.401148
2295.05	1.52428
2295.28	3.45018
2295.52	-0.402895
2295.75	1.5228
2295.99	0.55958
2296.22	-0.402956
2296.46	2.4826
2296.69	3.43814
2296.93	2.47753
2297.16	1.5201
2297.39	-0.398544
2297.63	0.570492
2297.86	-1.34727
2298.1	0.586973
2298.33	2.52372
2298.57	-0.358889
2298.8	0.61067
2299.04	3.50957
2299.27	-0.337757
2299.51	1.59841
2299.74	2.56999
2299.97	1.6108
2300.21	2.57832
2300.44	1.61705
2300.68	0.655148
2300.91	2.5904
2301.15	2.59767
2301.38	2.60398
2301.61	4.54032
2301.85	0.684471
2302.08	0.688395
2302.32	1.65645
2302.55	-0.272369
2302.79	-0.270218
2303.02	4.55951
2303.25	1.66716
2303.49	3.59969
2303.72	1.67284
2303.96	0.711823
2304.19	1.68275
2304.43	0.724857
2304.66	-0.233606
2304.89	2.66932
2305.13	-1.18674
2305.36	-0.213316
2305.6	-0.207218
2305.83	4.62841
2306.07	0.769398
2306.3	1.74236
2306.53	1.749
2306.77	0.78738
2307	0.791779
2307.24	0.795488
2307.47	3.69845
2307.7	-0.165499
2307.94	0.802385
2308.17	3.70371
2308.41	0.807056
2308.64	1.77553
2308.87	1.77964
2309.11	1.78482
2309.34	2.75864
2309.58	2.76676
2309.81	4.71022
2310.04	0.854109
2310.28	2.79744
2310.51	0.86924
2310.75	1.84155
2310.98	2.81261
2311.21	0.879946
2311.45	-1.05473
2311.68	1.83829
2311.92	-0.103258
2312.15	1.82518
2312.38	-0.106586
2312.62	-0.105101
2312.85	-0.104202
2313.08	0.862513
2313.32	0.866663
2313.55	-1.05642
2313.79	-1.04616
2314.02	1.86279
2314.25	2.83977
2314.49	0.918514
2314.72	2.86263
2314.95	3.84275
2315.19	0.953543
2315.42	-0.00574684
2315.66	0.960733
2315.89	2.894
2316.12	-0.973148
2316.36	1.92587
2316.59	1.9185
2316.82	3.8483
2317.06	3.84953
2317.29	1.92248
2317.52	0.962633
2317.76	1.93414
2317.99	3.87654
2318.23	-0.945221
2318.46	0.984562
2318.69	5.81398
2318.93	2.91862
2319.16	1.95426
2319.39	2.92045
2319.63	3.88678
2319.86	4.85379
2320.09	3.89171
2320.33	3.89645
2320.56	3.90176
2320.79	2.94127
2321.03	2.94811
2321.26	2.95617
2321.5	1.03387
2321.73	0.0768337
2321.96	3.9489
2322.2	1.06211
2322.43	3.97237
2322.66	3.01657
2322.9	3.99021
2323.13	4.96038
2323.36	3.99935
2323.6	3.03886
2323.83	4.01162
2324.06	3.05084
2324.3	4.02307
2324.53	2.09262
2324.76	-0.804678
2325	6.92859
2325.23	7.89113
2325.46	4.98751
2325.7	5.95193
2325.93	2.08872
2326.16	5.95052
2326.4	4.98431
2326.63	4.98329
2326.86	6.91187
2327.09	5.94573
2327.33	9.80204
2327.56	15.5849
2327.79	17.512
2328.03	25.2211
2328.26	37.7496
2328.49	48.3591
2328.73	51.2555
2328.96	57.0449
2329.19	42.5782
2329.43	28.1174
2329.66	20.4026
2329.89	12.6974
2330.13	13.663
2330.36	12.7081
2330.59	10.7833
2330.82	10.7846
2331.06	5.97037
2331.29	5.9732
2331.52	0.200214
2331.76	1.17004
2331.99	4.0673
2332.22	1.18573
2332.46	2.14688
2332.69	0.219667
2332.92	1.18325
2333.16	3.10958
2333.39	-1.70404
2333.62	4.07297
2333.85	3.11103
2334.09	3.11209
2334.32	3.11208
2334.55	1.18698
2334.79	2.14651
2335.02	-2.66277
2335.25	4.07029
2335.48	2.14902
2335.72	1.189
2335.95	6.96254
2336.18	-3.61192
2336.41	7.93066
2336.65	3.12232
2336.88	6.00803
2337.11	4.08636
2337.34	5.04932
2337.58	1.2047
2337.81	1.2061
2338.04	4.09048
2338.28	4.09095
2338.51	2.16951
2338.74	-1.67424
2338.97	6.97742
2339.21	4.09674
2339.44	2.17666
2339.67	1.21706
2339.91	3.14039
2340.14	3.14007
2340.37	2.17772
2340.6	1.21457
2340.84	6.01565
2341.07	3.12975
2341.3	2.16432
2341.53	2.15835
2341.77	2.151
2342	4.06405
2342.23	4.06051
2342.46	2.13939
2342.7	6.93051
2342.93	4.05202
2343.16	2.13376
2343.39	4.05082
2343.63	3.09265
2343.86	4.05025
2344.09	5.96635
2344.32	-0.743252
2344.56	3.0923
2344.79	4.05145
2345.02	2.13306
2345.25	0.213951
2345.49	5.96206
2345.72	2.12386
2345.95	1.15922
2346.18	3.07018
2346.41	0.191641
2346.65	2.10427
2346.88	1.1441
2347.11	4.01427
2347.34	0.180677
2347.58	4.96444
2347.81	-0.782267
2348.04	3.04586
2348.27	4.00267
2348.5	4.00329
2348.74	2.08748
2348.97	-0.788179
2349.2	2.08021
2349.43	2.07383
2349.67	0.147598
2349.9	3.00594
2350.13	-1.78936
2350.36	2.01894
2350.59	1.99963
2350.83	4.82874
2351.06	3.8214
2351.29	2.90159
2351.52	1.06214
2351.75	3.95162
2351.99	3.89883
2352.22	3.86795
2352.45	1.00194
2352.68	0.999653
2352.91	1.93596
2353.15	3.81727
2353.38	-0.0145588
2353.61	1.89033
2353.84	1.88268
2354.07	-0.0322285
2354.31	-0.038044
2354.54	4.71713
2354.77	4.71677
2355	2.81019
2355.23	1.84985
2355.47	0.888628
2355.7	2.78514
2355.93	0.87031
2356.16	1.81286
2356.39	-2.00813
2356.63	0.834423
2356.86	-0.135101
2357.09	0.800329
2357.32	1.73862
2357.55	0.775278
2357.79	1.71367
2358.02	-0.199884
2358.25	3.5899
2358.48	-0.223757
2358.71	3.5662
2358.94	0.700756
2359.18	3.53853
2359.41	-0.273436
2359.64	1.61458
2359.87	1.60103
2360.1	4.43505
2360.33	2.51962
2360.57	2.50276
2360.8	-0.361204
2361.03	0.570921
2361.26	2.45091
2361.49	-4.20542
2361.72	0.518332
2361.96	0.500059
2362.19	3.32427
2362.42	2.35676
2362.65	-0.5042
2362.88	4.21163
2363.11	3.24567
2363.34	0.387405
2363.58	3.20846
2363.81	2.24436
2364.04	0.334137
2364.27	3.15426
2364.5	2.18899
2364.73	2.16949
2364.97	0.258331
