#Acq. time (s)=	30
#Accumulations=	2
#Range (cm-¹)=	1200...2365
#Windows=	3
#Auto scanning=	Off
#Autofocus=	Off
#Macrospot=	Off
#AutoExposure=	Off
#Spike filter=	Multiple accum.
#Delay time (s)=	2
#Binning=	1
#Readout mode=	Signal
#DeNoise=	Off
#ICS correction=	On
#Dark correction=	Off
#Inst. Process=	Off
#Detector Gain=	Best Dynamic
#Detector ADC=	50 kHz HS
#Detector temperature (°C)=	-60.09
#Instrument=	LabRAM HR Evol
#Detector=	SIN-EM FIVIS
#Objective=	x100_VIS_LWD
#Grating=	1800 (450-850nm)
#ND Filter=	100%
#Laser=	532nm_Edge
#Hole=	100.021
#Temperature=	0
#Range=	Visible
#StageXY=	75x50mm Scan+
#StageZ=	Z motor
#X (µm)=	0
#Y (µm)=	0
#Z (µm)=	-10.9
#Full time(mm:ss)=	3:18
#Project=	21_11_26
#Sample=	BU19(2)w
#Site=	
#Title=	BU19(2)w-A-FF1-FI03-L_1800 (450-850nm)_532nm_Edge_100%_x100_VIS_LWD_H100um_30sX2
#Remark=	
#Date=	26.11.2021 12:23
#Acquired=	26.11.2021 12:23:13
1202.72	1566.35
1203	1592.32
1203.28	1599.33
1203.56	1593.01
1203.84	1559.54
1204.11	1592.14
1204.39	1589.38
1204.67	1570.13
1204.95	1612.26
1205.23	1591.54
1205.5	1590.95
1205.78	1579.57
1206.06	1568.11
1206.34	1616.74
1206.61	1604.2
1206.89	1617.4
1207.17	1577
1207.45	1571.05
1207.73	1603.86
1208	1601.35
1208.28	1593.62
1208.56	1584.75
1208.84	1580.01
1209.11	1558.2
1209.39	1605.93
1209.67	1625
1209.95	1556.53
1210.23	1586.34
1210.5	1624.51
1210.78	1593.93
1211.06	1586.9
1211.34	1578.94
1211.61	1567.68
1211.89	1578.97
1212.17	1577.28
1212.45	1569.23
1212.72	1616.78
1213	1583.3
1213.28	1570.06
1213.56	1579.35
1213.83	1583.42
1214.11	1599.07
1214.39	1619.39
1214.67	1586.46
1214.94	1551.36
1215.22	1599.28
1215.5	1593.91
1215.78	1583.2
1216.05	1594.79
1216.33	1612.49
1216.61	1588.53
1216.89	1549.58
1217.16	1623.38
1217.44	1558.08
1217.72	1605.45
1218	1615.63
1218.27	1573.86
1218.55	1623.41
1218.83	1598.68
1219.1	1578.35
1219.38	1571.88
1219.66	1605.7
1219.94	1627.8
1220.21	1598.89
1220.49	1632.79
1220.77	1551.14
1221.04	1547.89
1221.32	1579.57
1221.6	1630.19
1221.88	1604.47
1222.15	1604.02
1222.43	1612.95
1222.71	1602.7
1222.98	1569.1
1223.26	1591.65
1223.54	1626.89
1223.81	1598.75
1224.09	1589.76
1224.37	1621.95
1224.65	1617.35
1224.92	1593.83
1225.2	1582.02
1225.48	1597.82
1225.76	1582.2
1226.03	1616.16
1226.31	1601.61
1226.59	1631.1
1226.86	1623.6
1227.14	1609.59
1227.42	1569.22
1227.69	1623.28
1227.97	1628.06
1228.25	1578.65
1228.52	1613.55
1228.8	1604.68
1229.08	1591.91
1229.35	1596
1229.63	1613.65
1229.91	1594.93
1230.18	1583.95
1230.46	1619.35
1230.74	1621.95
1231.01	1600.02
1231.29	1607.52
1231.57	1616.99
1231.84	1620.45
1232.12	1621.48
1232.4	1643.51
1232.67	1634.92
1232.95	1593.92
1233.23	1594.9
1233.5	1614.72
1233.78	1574.78
1234.06	1641.06
1234.33	1608.65
1234.61	1633
1234.89	1640.61
1235.16	1612.51
1235.44	1612.66
1235.71	1604.41
1235.99	1578.34
1236.27	1621.6
1236.54	1621.58
1236.82	1624.55
1237.1	1584.37
1237.37	1615.56
1237.65	1621.34
1237.93	1588.22
1238.2	1619.16
1238.48	1588.16
1238.76	1615.93
1239.03	1593.48
1239.31	1628.87
1239.58	1601.4
1239.86	1644.23
1240.14	1629.46
1240.41	1590.64
1240.69	1604.27
1240.97	1610.62
1241.24	1627.5
1241.52	1643.29
1241.79	1609.62
1242.07	1578.95
1242.35	1650.04
1242.62	1614.46
1242.9	1637.63
1243.18	1586.52
1243.45	1634.96
1243.73	1634.96
1244	1634.99
1244.28	1611
1244.56	1622.53
1244.83	1641.31
1245.11	1625.44
1245.39	1629.29
1245.66	1622.61
1245.94	1616.83
1246.21	1634.11
1246.49	1675.76
1246.76	1635.87
1247.04	1613.91
1247.32	1643.21
1247.59	1664.01
1247.87	1650.39
1248.14	1638.72
1248.42	1650.68
1248.7	1654.56
1248.97	1610.57
1249.25	1655.66
1249.52	1679.85
1249.8	1637.92
1250.08	1649.38
1250.35	1654.65
1250.63	1665.82
1250.9	1604.77
1251.18	1643.1
1251.45	1655.33
1251.73	1617.45
1252.01	1637.03
1252.28	1640.93
1252.56	1650.04
1252.83	1645.57
1253.11	1618.1
1253.39	1661.64
1253.66	1639.58
1253.94	1644.82
1254.21	1669.1
1254.49	1650.64
1254.76	1641.62
1255.04	1620.89
1255.31	1682.51
1255.59	1636.71
1255.87	1681.63
1256.14	1628.31
1256.42	1655.55
1256.69	1691.2
1256.97	1620.44
1257.24	1661.27
1257.52	1676.86
1257.79	1676.64
1258.07	1701.57
1258.35	1679.53
1258.62	1697.15
1258.9	1689.67
1259.17	1712.25
1259.45	1695.53
1259.72	1684.26
1260	1683.47
1260.27	1718.65
1260.55	1711.96
1260.82	1748.1
1261.1	1743.31
1261.37	1726.21
1261.65	1718.64
1261.92	1766.89
1262.2	1789.35
1262.48	1806.34
1262.75	1799.12
1263.02	1819.18
1263.3	1832.66
1263.58	1844.35
1263.85	1799.2
1264.13	1825.66
1264.4	1776.16
1264.68	1796.94
1264.95	1717.42
1265.23	1724.33
1265.5	1741.07
1265.78	1728.39
1266.05	1689.44
1266.33	1732.28
1266.6	1682.27
1266.88	1713.86
1267.15	1698.52
1267.43	1713.56
1267.7	1705.67
1267.98	1721.87
1268.25	1675.36
1268.53	1713.81
1268.8	1685.12
1269.08	1682.32
1269.35	1724.52
1269.63	1714.27
1269.9	1721.52
1270.18	1683.45
1270.45	1691.33
1270.73	1669
1271	1685.36
1271.28	1671.49
1271.55	1727.9
1271.83	1688.97
1272.1	1717.37
1272.38	1707.31
1272.65	1718.28
1272.93	1681.25
1273.2	1653.42
1273.47	1709.4
1273.75	1709.88
1274.03	1713.49
1274.3	1692.98
1274.57	1696.42
1274.85	1725.89
1275.12	1676.54
1275.4	1703.83
1275.67	1720.82
1275.95	1695.94
1276.22	1765.51
1276.5	1744.96
1276.77	1742.14
1277.05	1755.09
1277.32	1754.31
1277.6	1758.96
1277.87	1756.25
1278.14	1696.78
1278.42	1729.72
1278.69	1783.68
1278.97	1789.46
1279.24	1777.15
1279.52	1817.43
1279.79	1840.49
1280.07	1854.03
1280.34	1905.36
1280.61	1924.24
1280.89	2035.9
1281.16	2165.49
1281.44	2335.44
1281.71	2502.48
1281.99	2887.05
1282.26	3332.25
1282.53	3881.04
1282.81	4420.55
1283.08	4799.84
1283.36	4898.51
1283.63	4700.83
1283.91	4334.49
1284.18	3823.72
1284.45	3340.03
1284.73	2840.19
1285	2507.74
1285.28	2299.08
1285.55	2106.3
1285.83	2020.32
1286.1	1937.2
1286.37	1888.14
1286.65	1866.03
1286.92	1800.42
1287.2	1779.35
1287.47	1774
1287.75	1780.07
1288.02	1792.41
1288.29	1743.83
1288.57	1796.44
1288.84	1781.78
1289.12	1752.46
1289.39	1767.47
1289.66	1726.74
1289.94	1722.87
1290.21	1783.28
1290.49	1738.31
1290.76	1762.55
1291.03	1762.37
1291.31	1701.21
1291.58	1742.27
1291.86	1709.62
1292.13	1752.76
1292.4	1699.08
1292.68	1737.13
1292.95	1688.6
1293.22	1745.35
1293.5	1699.12
1293.77	1690.21
1294.05	1751
1294.32	1709.58
1294.59	1716.12
1294.87	1705.6
1295.14	1699.18
1295.42	1743.79
1295.69	1726.61
1295.96	1752.9
1296.24	1702.4
1296.51	1708.41
1296.79	1682.18
1297.06	1692.82
1297.33	1744.44
1297.61	1695.55
1297.88	1669.87
1298.15	1727.61
1298.43	1729.29
1298.7	1708.39
1298.97	1754.74
1299.25	1743.91
1299.52	1705.68
1299.79	1688.54
1300.07	1701.21
1300.34	1699.42
1300.62	1721.78
1300.89	1722.9
1301.16	1709.12
1301.44	1731.25
1301.71	1740.85
1301.98	1708.43
1302.25	1736.17
1302.53	1713.1
1302.8	1710
1303.08	1706.83
1303.35	1700.4
1303.62	1707.63
1303.9	1690.45
1304.17	1723.14
1304.44	1755.93
1304.72	1732.73
1304.99	1715.83
1305.26	1700.86
1305.54	1691.08
1305.81	1701.27
1306.08	1735.73
1306.35	1684.7
1306.63	1714.97
1306.9	1713.79
1307.18	1710.64
1307.45	1717.13
1307.72	1757.28
1308	1709.82
1308.27	1698.22
1308.54	1704.66
1308.81	1716.18
1309.09	1690.98
1309.36	1708.14
1309.63	1708.4
1309.91	1716.05
1310.18	1708.85
1310.45	1672.94
1310.73	1729.84
1311	1733.02
1311.27	1708.84
1311.55	1724.79
1311.82	1718.55
1312.09	1725.04
1312.37	1700.02
1312.64	1697.12
1312.91	1721.54
1313.18	1714.1
1313.46	1673.73
1313.73	1733.87
1314	1698.9
1314.28	1692.46
1314.55	1708.31
1314.82	1724.26
1315.09	1738.18
1315.37	1718.35
1315.64	1691.12
1315.91	1719.87
1316.18	1726.45
1316.46	1722.18
1316.73	1708.36
1317	1716.75
1317.28	1738.9
1317.55	1694.56
1317.82	1737.07
1318.09	1714.02
1318.37	1720.49
1318.64	1713.18
1318.91	1726.98
1319.18	1707.99
1319.46	1725.92
1319.73	1725.87
1320	1716.32
1320.28	1695.32
1320.55	1702.76
1320.82	1678.39
1321.09	1749.99
1321.37	1741.17
1321.64	1724.87
1321.91	1714.85
1322.18	1709.28
1322.46	1724.65
1322.73	1715.99
1323	1710.5
1323.27	1689.18
1323.55	1722.61
1323.82	1710.18
1324.09	1727.14
1324.36	1757.77
1324.64	1720.83
1324.91	1700.84
1325.18	1697.65
1325.45	1724.14
1325.73	1724.77
1326	1709.27
1326.27	1748.33
1326.54	1714.49
1326.81	1714.01
1327.09	1714.96
1327.36	1716.59
1327.63	1707.2
1327.9	1736.27
1328.18	1725.3
1328.45	1733.36
1328.72	1718.23
1328.99	1726.17
1329.27	1752.73
1329.54	1724.05
1329.81	1739.02
1330.08	1706.26
1330.35	1719.86
1330.63	1741.8
1330.9	1715.14
1331.17	1735.84
1331.44	1744.83
1331.71	1700.98
1331.99	1705.53
1332.26	1721.81
1332.53	1748.72
1332.8	1706.12
1333.07	1753.94
1333.35	1715.49
1333.62	1732.82
1333.89	1747.03
1334.16	1748.65
1334.43	1745.04
1334.71	1715.2
1334.98	1759.94
1335.25	1762.75
1335.52	1735.14
1335.79	1746.38
1336.07	1730.36
1336.34	1765.75
1336.61	1771.8
1336.88	1704.47
1337.15	1744.13
1337.43	1762.86
1337.7	1731.28
1337.97	1748.93
1338.24	1720.23
1338.51	1742.9
1338.78	1708.1
1339.06	1719.36
1339.33	1733.85
1339.6	1735.91
1339.87	1738.09
1340.14	1747.63
1340.42	1733.02
1340.69	1733.1
1340.96	1739.46
1341.23	1767.72
1341.5	1727.87
1341.77	1756.03
1342.04	1760.05
1342.32	1756.64
1342.59	1756.29
1342.86	1760.03
1343.13	1750.18
1343.4	1752.04
1343.67	1757.16
1343.95	1762.35
1344.22	1739.34
1344.49	1741.48
1344.76	1720.59
1345.03	1750.77
1345.3	1746.33
1345.58	1751.18
1345.85	1724.53
1346.12	1782.62
1346.39	1745.48
1346.66	1742.55
1346.93	1752.45
1347.2	1771.77
1347.47	1754.56
1347.75	1715.51
1348.02	1735.03
1348.29	1724.4
1348.56	1744.07
1348.83	1726.25
1349.1	1752.05
1349.37	1746.53
1349.65	1741
1349.92	1754.24
1350.19	1774.77
1350.46	1753.66
1350.73	1726.29
1351	1748.78
1351.27	1748.36
1351.54	1726.25
1351.81	1746.63
1352.09	1788.11
1352.36	1713.23
1352.63	1737.36
1352.9	1727.35
1353.17	1772.63
1353.44	1741.71
1353.71	1748.4
1353.98	1726.05
1354.25	1747.37
1354.53	1745.84
1354.8	1738.89
1355.07	1748.45
1355.34	1759
1355.61	1732.44
1355.88	1769.54
1356.15	1748.33
1356.42	1753.68
1356.69	1782.41
1356.96	1776.02
1357.24	1726.03
1357.51	1763.27
1357.78	1762.02
1358.05	1785.65
1358.32	1758.37
1358.59	1771.56
1358.86	1770.25
1359.13	1742.93
1359.4	1741.58
1359.67	1776.61
1359.94	1797.14
1360.22	1764.56
1360.49	1737.12
1360.76	1762.56
1361.03	1762.25
1361.3	1780.77
1361.57	1791.12
1361.84	1793.14
1362.11	1760.95
1362.38	1773.18
1362.65	1793.73
1362.92	1795.64
1363.19	1810.09
1363.46	1794.69
1363.73	1799.16
1364	1812.86
1364.28	1814.14
1364.55	1798.6
1364.82	1789.17
1365.09	1828.36
1365.36	1769.03
1365.63	1774.87
1365.9	1798.27
1366.17	1777.19
1366.44	1816.13
1366.71	1778.49
1366.98	1789.37
1367.25	1809.45
1367.52	1788.52
1367.79	1781.13
1368.06	1802.05
1368.33	1834.25
1368.6	1783.72
1368.87	1862.42
1369.15	1912.17
1369.41	1953.7
1369.68	1976.6
1369.95	1937.1
1370.23	1842.82
1370.5	1819.89
1370.77	1798.77
1371.04	1841.96
1371.31	1855.07
1371.58	1821.53
1371.85	1811.65
1372.12	1808.9
1372.39	1820.61
1372.66	1815.87
1372.93	1835
1373.2	1831.62
1373.47	1805.63
1373.74	1797.18
1374.01	1833.08
1374.28	1846.34
1374.55	1813.26
1374.82	1843.03
1375.09	1836.73
1375.36	1819
1375.63	1859.27
1375.9	1849.21
1376.17	1853.31
1376.44	1833.86
1376.71	1834.44
1376.98	1827.84
1377.25	1883.87
1377.52	1838.87
1377.79	1836.03
1378.06	1799.45
1378.33	1847.55
1378.6	1873.2
1378.87	1853.62
1379.14	1910.65
1379.41	1886.89
1379.68	1890.78
1379.95	1877.13
1380.22	1894.29
1380.49	1863.63
1380.76	1879.65
1381.03	1913.79
1381.3	1928.53
1381.57	1910.35
1381.84	1927.36
1382.11	1933.68
1382.38	1918.37
1382.65	1980.23
1382.92	1942.58
1383.19	1938.78
1383.46	2035.71
1383.73	2037.19
1384	2035.83
1384.27	2109.38
1384.54	2173.03
1384.81	2224.5
1385.08	2344.91
1385.34	2478.92
1385.61	2696.43
1385.88	3083.12
1386.15	3701.89
1386.42	4688.18
1386.69	6095.19
1386.96	7807.03
1387.23	9100.12
1387.5	9076.51
1387.77	7623.98
1388.04	5720.31
1388.31	4358.74
1388.58	3380.52
1388.85	2867.19
1389.12	2562.85
1389.39	2403.27
1389.66	2229.96
1389.93	2149.11
1390.2	2133.02
1390.46	2062.66
1390.73	2000.41
1391	1983.95
1391.27	1986.25
1391.54	1927.68
1391.81	1958.27
1392.08	1936.33
1392.35	1938.93
1392.62	1897.55
1392.89	1901.35
1393.16	1895.99
1393.43	1832.33
1393.7	1882.32
1393.97	1856.58
1394.23	1818.59
1394.5	1860.44
1394.77	1886.94
1395.04	1819.36
1395.31	1889.16
1395.58	1883.35
1395.85	1885.64
1396.12	1849.92
1396.39	1859.09
1396.66	1882.5
1396.93	1873.09
1397.2	1865.71
1397.46	1844.92
1397.73	1875.29
1398	1870.02
1398.27	1873.08
1398.54	1849.7
1398.81	1844.82
1399.08	1859.3
1399.35	1865.55
1399.62	1838.26
1399.89	1848.71
1400.16	1847.88
1400.42	1840.72
1400.69	1879.89
1400.96	1883.45
1401.23	1878.57
1401.5	1848.83
1401.77	1859.31
1402.04	1830.64
1402.31	1882.5
1402.58	1844.62
1402.84	1854.99
1403.11	1873.27
1403.38	1834.87
1403.65	1888.56
1403.92	1833.16
1404.19	1830.75
1404.46	1867.71
1404.73	1900.84
1404.99	1859.66
1405.26	1847.15
1405.53	1913.52
1405.8	1899.86
1406.07	1924.15
1406.34	1908.49
1406.61	1945.22
1406.87	1933.81
1407.14	1965.7
1407.41	1972.01
1407.68	2013.2
1407.95	2036.93
1408.22	2062.7
1408.49	2117.18
1408.76	2129.63
1409.02	2107.25
1409.29	2112.59
1409.56	2061.51
1409.83	2048.35
1410.1	2010.54
1410.37	1961.32
1410.63	1957.89
1410.9	1895.86
1411.17	1884.02
1411.44	1869.27
1411.71	1887.42
1411.98	1859.53
1412.25	1866.66
1412.51	1881.29
1412.78	1869.55
1413.05	1870.73
1413.32	1846.26
1413.59	1880.28
1413.86	1817.28
1414.12	1839.54
1414.39	1851.25
1414.66	1814.53
1414.93	1842.08
1415.2	1844.04
1415.47	1824.62
1415.73	1824.66
1416	1832.95
1416.27	1816.69
1416.54	1818.93
1416.81	1825.3
1417.07	1875.84
1417.34	1831.91
1417.61	1836.26
1417.88	1801.55
1418.15	1830.45
1418.42	1836.67
1418.68	1837.8
1418.95	1827.63
1419.22	1849.26
1419.49	1833.91
1419.76	1817.3
1420.02	1866.31
1420.29	1817.68
1420.56	1823.54
1420.83	1804.71
1421.1	1847.47
1421.36	1832.79
1421.63	1861.39
1421.9	1840.99
1422.17	1827.13
1422.44	1807.22
1422.7	1848.94
1422.97	1816.03
1423.24	1853.6
1423.51	1840.82
1423.77	1841.7
1424.04	1849.2
1424.31	1843.57
1424.58	1824.42
1424.85	1839.83
1425.11	1817.83
1425.38	1856.02
1425.65	1848.07
1425.92	1840.66
1426.19	1807.46
1426.45	1859.68
1426.72	1845.02
1426.99	1823.04
1427.26	1829.75
1427.52	1849.74
1427.79	1830.58
1428.06	1857.67
1428.33	1823.61
1428.59	1825.57
1428.86	1820.5
1429.13	1797.08
1429.4	1829
1429.67	1796.46
1429.93	1817.25
1430.2	1817.66
1430.47	1829.43
1430.74	1827.79
1431	1815.04
1431.27	1814.83
1431.54	1830.86
1431.81	1836.33
1432.07	1818.91
1432.34	1849.4
1432.61	1807.95
1432.87	1822.07
1433.14	1777.46
1433.41	1841.41
1433.68	1791.48
1433.95	1808.22
1434.21	1831.36
1434.48	1816.87
1434.75	1777.78
1435.01	1820.18
1435.28	1771.1
1435.55	1781.38
1435.82	1805.96
1436.08	1799.76
1436.35	1838.61
1436.62	1834.41
1436.89	1832.22
1437.15	1837.19
1437.42	1828.87
1437.69	1849.33
1437.95	1796.92
1438.22	1825.53
1438.49	1819.5
1438.76	1821.85
1439.02	1839.46
1439.29	1840.57
1439.56	1808.93
1439.82	1835.88
1440.09	1813.77
1440.36	1780.46
1440.63	1807.37
1440.89	1765.46
1441.16	1812.68
1441.43	1832.3
1441.69	1799.37
1441.96	1768.34
1442.23	1808.2
1442.49	1829.1
1442.76	1859.94
1443.03	1828.53
1443.3	1832.43
1443.56	1840.35
1443.83	1833.97
1444.1	1822.54
1444.36	1840.95
1444.63	1858.51
1444.9	1827.28
1445.16	1847.23
1445.43	1823.21
1445.7	1804.62
1445.97	1820.89
1446.23	1842.31
1446.5	1842.18
1446.77	1842.07
1447.03	1810.16
1447.3	1859.27
1447.57	1775.03
1447.83	1819.95
1448.1	1823.89
1448.37	1846.46
1448.63	1798.61
1448.9	1830.83
1449.17	1806.35
1449.43	1849.43
1449.7	1841.09
1449.97	1822.43
1450.23	1831.38
1450.5	1848.54
1450.77	1828.93
1451.03	1844.19
1451.3	1878.92
1451.57	1840.87
1451.83	1803.82
1452.1	1839.53
1452.37	1842.49
1452.63	1795.31
1452.9	1828.15
1453.17	1813.92
1453.43	1815.17
1453.7	1823.56
1453.97	1789.78
1454.23	1851.17
1454.5	1814.21
1454.77	1816.28
1455.03	1852.17
1455.3	1863.42
1455.56	1839.75
1455.83	1855.18
1456.1	1800.18
1456.36	1845.47
1456.63	1830.12
1456.9	1826.92
1457.16	1865.58
1457.43	1838.67
1457.7	1833.43
1457.96	1844.61
1458.23	1815.88
1458.49	1803.62
1458.76	1821.1
1459.03	1846.84
1459.29	1811.09
1459.56	1819.37
1459.82	1850.17
1460.09	1798.9
1460.36	1842.86
1460.62	1854.03
1460.89	1852.87
1461.16	1855.77
1461.42	1863.75
1461.69	1811.32
1461.95	1852.04
1462.22	1839.47
1462.49	1848.37
1462.75	1806.08
1463.02	1850.73
1463.28	1854.42
1463.55	1838.67
1463.82	1812.75
1464.08	1835.2
1464.35	1840.9
1464.61	1811.07
1464.88	1832.2
1465.15	1837.16
1465.41	1830.68
1465.68	1857.06
1465.94	1801.5
1466.21	1792.16
1466.48	1840.7
1466.74	1855.87
1467.01	1869.37
1467.27	1825.28
1467.54	1841.8
1467.8	1833.54
1468.07	1825.28
1468.34	1865
1468.6	1838.47
1468.87	1850.69
1469.13	1869.99
1469.4	1835.15
1469.67	1848.21
1469.93	1794.86
1470.2	1871.94
1470.46	1831.86
1470.73	1869.34
1470.99	1816.17
1471.26	1848.66
1471.53	1826.02
1471.79	1828.74
1472.06	1825.46
1472.32	1826.37
1472.59	1859.93
1472.85	1871.1
1473.12	1817.1
1473.39	1812.91
1473.65	1815.73
1473.92	1845
1474.18	1861.08
1474.45	1850.8
1474.71	1875.24
1474.98	1854.05
1475.24	1806.35
1475.51	1847.11
1475.78	1839.95
1476.04	1856.09
1476.31	1859.93
1476.57	1834.34
1476.84	1842.34
1477.1	1825.8
1477.37	1858.07
1477.63	1808.1
1477.9	1818.23
1478.16	1872.1
1478.43	1859.71
1478.69	1857.34
1478.96	1813.38
1479.22	1841.6
1479.49	1877.89
1479.76	1805.43
1480.02	1866.01
1480.29	1828.07
1480.55	1860.95
1480.82	1880.74
1481.08	1848.94
1481.35	1855.89
1481.61	1876.91
1481.88	1851.73
1482.14	1849
1482.41	1830.07
1482.67	1862.94
1482.94	1852.08
1483.2	1839.91
1483.47	1848.27
1483.73	1864.66
1484	1858.59
1484.26	1870.73
1484.53	1865.95
1484.79	1837.56
1485.06	1869.1
1485.32	1860.57
1485.59	1821.26
1485.85	1866.4
1486.12	1840.27
1486.38	1873.22
1486.65	1874.95
1486.91	1843.66
1487.18	1845.61
1487.44	1814.49
1487.71	1857.55
1487.97	1867.28
1488.24	1847.8
1488.5	1858.66
1488.77	1846.13
1489.03	1882.15
1489.3	1842.36
1489.56	1855.33
1489.83	1833.94
1490.09	1870.26
1490.36	1863.18
1490.62	1875.32
1490.89	1809.36
1491.15	1892.97
1491.42	1854.2
1491.68	1872.24
1491.95	1859.03
1492.21	1891.4
1492.48	1883.41
1492.74	1873.26
1493	1877.22
1493.27	1895.38
1493.53	1825.64
1493.8	1872.03
1494.06	1831.54
1494.33	1855.85
1494.59	1869.13
1494.86	1883.45
1495.12	1870.26
1495.39	1902.33
1495.65	1881.59
1495.92	1850.64
1496.18	1846.09
1496.45	1853.86
1496.71	1880.88
1496.97	1872.6
1497.24	1889.52
1497.5	1846.13
1497.77	1851.17
1498.03	1884.39
1498.3	1875.29
1498.56	1894.49
1498.82	1885.47
1499.09	1883.53
1499.35	1926.02
1499.62	1871.66
1499.88	1861.74
1500.15	1904.32
1500.41	1897.34
1500.68	1888.26
1500.94	1897.3
1501.2	1853.85
1501.47	1886.98
1501.73	1891.69
1502	1868.38
1502.26	1861.28
1502.52	1878.38
1502.79	1893.36
1503.05	1890.96
1503.32	1884.56
1503.58	1879.32
1503.85	1908.25
1504.11	1863.89
1504.37	1851.99
1504.64	1923.69
1504.9	1893.47
1505.17	1869.2
1505.43	1888.18
1505.7	1896.99
1505.96	1885.4
1506.22	1892.82
1506.49	1888.68
1506.75	1874.54
1507.02	1871.61
1507.28	1882.98
1507.54	1879.04
1507.81	1878.13
1508.07	1881.16
1508.34	1856.87
1508.6	1897.09
1508.86	1866.92
1509.13	1893.2
1509.39	1909.37
1509.66	1855.96
1509.92	1883.17
1510.18	1906.57
1510.45	1861.36
1510.71	1929.55
1510.98	1898.98
1511.24	1899.57
1511.5	1896.05
1511.77	1874.18
1512.03	1902.41
1512.29	1875.31
1512.56	1852.31
1512.82	1889.74
1513.08	1867.18
1513.35	1832.64
1513.61	1890.53
1513.88	1847.24
1514.14	1881.82
1514.4	1908.66
1514.67	1885.76
1514.93	1873.51
1515.2	1861.06
1515.46	1882.68
1515.72	1867.17
1515.99	1860.62
1516.25	1873.13
1516.51	1867.74
1516.78	1858.56
1517.04	1881.49
1517.3	1898.43
1517.57	1891.38
1517.83	1883.41
1518.09	1855.49
1518.36	1872.89
1518.62	1935.19
1518.88	1886.19
1519.15	1912.4
1519.41	1903.56
1519.67	1937.83
1519.94	1864.7
1520.2	1890.77
1520.47	1886.6
1520.73	1925.61
1520.99	1887.62
1521.26	1912.9
1521.52	1915.1
1521.78	1865.01
1522.05	1867.97
1522.31	1900.93
1522.57	1884.69
1522.84	1902.54
1523.1	1884.31
1523.36	1859.96
1523.62	1880.48
1523.89	1882.77
1524.15	1906.34
1524.41	1891.95
1524.68	1916.68
1524.94	1903.38
1525.2	1895.6
1525.47	1921.75
1525.73	1874.76
1525.99	1870.04
1526.26	1875.41
1526.52	1912
1526.78	1916.41
1527.05	1874.48
1527.31	1889.49
1527.57	1902.27
1527.84	1922.21
1528.1	1902.03
1528.36	1877.85
1528.63	1920.73
1528.89	1906.52
1529.15	1888.34
1529.41	1904.29
1529.68	1896.26
1529.94	1912.18
1530.2	1885.86
1530.47	1902.82
1530.73	1897
1530.99	1913.43
1531.25	1908.82
1531.52	1878.06
1531.78	1890.15
1532.04	1870
1532.31	1904.14
1532.57	1865.84
1532.83	1891.12
1533.09	1901.66
1533.36	1872.27
1533.62	1941.06
1533.88	1895.2
1534.15	1897.38
1534.41	1912.43
1534.67	1903.31
1534.94	1891.15
1535.2	1919.05
1535.46	1925.92
1535.72	1886.48
1535.99	1872.55
1536.25	1939.13
1536.51	1907.67
1536.77	1907.04
1537.04	1906.37
1537.3	1897.77
1537.56	1889.52
1537.82	1896.11
1538.09	1930.16
1538.35	1879.79
1538.61	1908.22
1538.87	1886.06
1539.14	1875.9
1539.4	1945.41
1539.66	1869.49
1539.92	1923.9
1540.19	1904.84
1540.45	1906.65
1540.71	1904.48
1540.97	1921.05
1541.24	1926.3
1541.5	1926.53
1541.76	1933.48
1542.02	1929.97
1542.29	1869.41
1542.55	1938.08
1542.81	1914.59
1543.07	1903.16
1543.34	1908.76
1543.6	1834.27
1543.86	1914.73
1544.12	1909.11
1544.39	1912.21
1544.65	1877.34
1544.91	1953.77
1545.17	1898.33
1545.43	1912.77
1545.7	1892.51
1545.96	1895.93
1546.22	1934.25
1546.48	1910.44
1546.74	1903.34
1547.01	1918.47
1547.27	1909.69
1547.53	1907.93
1547.79	1883.09
1548.06	1937.81
1548.32	1931.83
1548.58	1931.84
1548.84	1896.92
1549.1	1947.56
1549.37	1913.8
1549.63	1890.88
1549.89	1908.48
1550.15	1918.54
1550.42	1907.51
1550.68	1880.28
1550.94	1938.53
1551.2	1932.36
1551.46	1941.14
1551.73	1962.43
1551.99	1936.97
1552.25	1898.25
1552.51	1902.12
1552.77	1936.04
1553.03	1915.73
1553.3	1944.32
1553.56	1926.9
1553.82	1938.66
1554.08	1929.49
1554.34	1913.07
1554.61	1948.65
1554.87	1926.98
1555.13	1893.26
1555.39	1942.13
1555.65	1951.04
1555.91	1952.05
1556.18	1925.14
1556.44	1920.17
1556.7	1911.88
1556.96	1915.93
1557.22	1915.07
1557.48	1899.17
1557.75	1879.18
1558.01	1903.14
1558.27	1913.83
1558.53	1942.29
1558.79	1910.8
1559.06	1931.2
1559.32	1931.64
1559.58	1938.15
1559.84	1907.75
1560.1	1914.44
1560.36	1949.17
1560.63	1907.01
1560.89	1922.87
1561.15	1931.77
1561.41	1952.75
1561.67	1898.94
1561.93	1896.3
1562.19	1894.82
1562.46	1950.4
1562.72	1915.43
1562.98	1908.36
1563.24	1883.22
1563.5	1903.33
1563.76	1913.16
1564.02	1909.07
1564.29	1942.75
1564.55	1932.5
1564.81	1903.73
1565.07	1921.63
1565.33	1923.59
1565.59	1924.29
1565.85	1935.67
1566.11	1954.18
1566.38	1898.17
1566.64	1895.43
1566.9	1887.49
1567.16	1924.25
1567.42	1906.81
1567.68	1915.49
1567.94	1900.06
1568.2	1935.76
1568.47	1920.01
1568.73	1927.29
1568.99	1898.44
1569.25	1925.28
1569.51	1897.61
1569.77	1894.23
1570.03	1938.23
1570.29	1896.43
1570.55	1945.46
1570.82	1912.52
1571.08	1939.48
1571.34	1939.41
1571.6	1951.25
1571.86	1885.02
1572.12	1931.66
1572.38	1897.65
1572.64	1942.38
1572.9	1946.02
1573.17	1953.74
1573.43	1901.58
1573.69	1925.24
1573.95	1909.02
1574.21	1951.99
1574.47	1908.43
1574.73	1926.85
1574.99	1951.29
1575.25	1911.83
1575.51	1901.31
1575.78	1916.66
1576.04	1917.76
1576.3	1891.66
1576.56	1938.61
1576.82	1925.42
1577.08	1951.81
1577.34	1926.13
1577.6	1951.41
1577.86	1901.87
1578.12	1906.28
1578.38	1925.69
1578.64	1888.46
1578.9	1934.23
1579.17	1910.3
1579.43	1928.24
1579.69	1948.21
1579.95	1937.37
1580.21	1948.63
1580.47	1935.82
1580.73	1938.87
1580.99	1900.91
1581.25	1938.6
1581.51	1955.26
1581.77	1955.02
1582.03	1969.6
1582.29	1931.34
1582.55	1926.24
1582.81	1913.17
1583.07	1949.89
1583.33	1882.06
1583.59	1917.88
1583.85	1978.61
1584.11	1904.73
1584.38	1897.77
1584.64	1902.93
1584.9	1957.85
1585.16	1925.07
1585.42	1936.02
1585.68	1948.88
1585.94	1920.96
1586.2	1877.97
1586.46	1921.37
1586.72	1915.94
1586.98	1914.62
1587.24	1960.16
1587.5	1949.03
1587.76	1924
1588.02	1935.87
1588.28	1938.88
1588.54	1940.04
1588.8	1954.21
1589.06	1959.48
1589.32	1931.86
1589.58	1971.94
1589.84	1917.37
1590.1	1905.51
1590.36	1941.36
1590.62	1945.51
1590.88	1937.78
1591.14	1929.01
1591.4	1905.07
1591.66	1951.88
1591.92	1941.8
1592.18	1950.58
1592.44	1948.18
1592.7	1949.58
1592.96	1941.19
1593.22	1919.03
1593.48	1974.04
1593.74	1926.57
1594	1964.55
1594.26	1974
1594.52	1965.81
1594.78	1946.95
1595.04	1917.39
1595.3	1939.65
1595.56	1936.93
1595.82	1901.18
1596.08	1975.83
1596.34	1926.14
1596.6	1943.04
1596.86	1973.86
1597.12	1972.96
1597.38	1937.34
1597.64	1943.49
1597.9	1927.77
1598.16	1909.85
1598.42	1967.31
1598.68	1958.04
1598.94	1956.54
1599.2	1939.21
1599.46	1968.65
1599.72	1941.54
1599.98	1929.32
1600.24	1904.22
1600.5	1982.28
1600.76	1910.52
1601.02	1947.75
1601.28	1909.51
1601.54	1945.56
1601.8	1957.83
1602.06	1942.48
1602.32	1947.04
1602.58	1914.02
1602.84	1966.08
1603.1	1946.83
1603.36	1971.15
1603.62	1934.22
1603.88	1933
1604.14	1928.9
1604.4	1944.69
1604.66	1967.48
1604.92	1956.67
1605.17	1959.67
1605.43	1940.94
1605.69	1967.73
1605.95	1975.81
1606.21	1948.36
1606.47	1961.48
1606.73	1952.84
1606.99	1952.07
1607.25	1938.31
1607.51	1963.71
1607.77	1953.67
1608.03	1926.72
1608.29	1934.33
1608.55	1935.52
1608.81	1985.73
1609.07	1947.81
1609.32	1975.08
1609.58	1949.06
1609.84	1926.98
1610.1	1918.99
1610.36	1913.22
1610.62	1952.7
1610.88	1922.92
1611.14	1931.95
1611.4	1947.25
1611.66	1974.63
1611.92	1970.22
1612.18	1945.43
1612.44	1971.89
1612.69	1934.47
1612.95	1928.75
1613.21	1960.33
1613.47	1935.12
1613.73	1948.65
1613.99	1922.4
1614.25	1926.78
1614.51	1978.18
1614.77	1927.49
1615.03	1943.99
1615.29	1934.39
1615.54	1964.74
1615.8	1948.86
1616.06	1952.3
1616.32	1938.09
1616.58	1940.27
1616.84	1959.21
1617.1	1939.68
1617.36	1955.71
1617.62	1929.24
1617.88	1946.72
1618.13	1938.88
1618.39	1938.81
1618.65	1960.51
1618.91	1971.44
1619.17	1932.11
1619.43	1936.28
1619.69	1975.22
1619.95	1956.59
1620.2	1961.53
1620.46	1944.63
1620.72	1948.55
1620.98	1923.55
1621.24	1903.53
1621.5	1934.31
1621.76	1972.81
1622.02	1953.36
1622.27	1963.4
1622.53	1956.72
1622.79	1963.19
1623.05	1955.56
1623.31	1957.48
1623.57	1955.55
1623.83	1953.49
1624.09	1960.96
1624.34	1952.7
1624.6	1946.27
1624.86	1937.95
1625.12	1941.63
1625.38	1926.92
1625.64	1933.56
1625.9	1948.63
1626.15	1974.18
1626.41	1961.46
1626.67	1946.05
1626.93	1944.61
1627.19	1943.05
1627.45	1946.3
1627.7	1960.26
1627.96	1957.24
1628.22	1955.24
1628.48	1970.61
1628.74	1956.5
1629	1960.78
1629.26	1964.37
1629.51	1961.56
1629.77	1968.94
1630.03	1958.03
1630.29	1932.17
1630.55	1930.15
1630.81	1954.28
1631.06	1937.76
1631.32	1949.98
1631.53	1993.32
1631.79	1938.47
1632.05	1955.61
1632.31	1970.75
1632.57	1969.68
1632.84	1970.25
1633.1	1948.6
1633.36	1985.36
1633.62	1944.92
1633.88	1944.71
1634.14	1995.26
1634.4	1980.81
1634.66	1959.25
1634.93	1944.53
1635.19	1971.13
1635.45	1944.46
1635.71	1930.55
1635.97	1974.75
1636.23	1946.97
1636.49	1969.4
1636.75	1983.94
1637.02	1969.89
1637.28	1959.73
1637.54	1939.69
1637.8	1972.01
1638.06	1932.58
1638.32	1923.55
1638.58	1998.18
1638.84	1969.49
1639.1	1964.61
1639.37	1969.55
1639.63	2003.01
1639.89	1940.01
1640.15	1983.3
1640.41	1978.32
1640.67	1972.49
1640.93	1943.35
1641.19	1979.08
1641.46	1946.68
1641.72	1975.11
1641.98	1939.46
1642.24	1985.61
1642.5	1972.72
1642.76	1982.49
1643.02	1972.57
1643.28	1944.95
1643.54	1980.36
1643.8	1939.96
1644.06	1966.39
1644.33	1960.28
1644.59	1979.66
1644.85	1954.81
1645.11	1956.72
1645.37	2000.18
1645.63	1947.33
1645.89	1913.05
1646.15	1979.03
1646.41	1958.18
1646.67	1972.71
1646.93	1954.8
1647.19	1945.83
1647.46	1955.48
1647.72	1945.44
1647.98	1971.82
1648.24	1952.13
1648.5	1949.27
1648.76	1952.58
1649.02	1939.2
1649.28	1972.69
1649.54	1992.79
1649.8	1912.85
1650.06	1965.79
1650.32	1977.61
1650.58	1978.22
1650.85	1977.73
1651.11	1970.24
1651.37	1949.95
1651.63	1979.78
1651.89	2003.56
1652.15	1975.99
1652.41	1960.25
1652.67	1934.72
1652.93	1995.63
1653.19	1955
1653.45	1950.96
1653.71	1969.7
1653.97	1955.03
1654.23	1986.78
1654.49	1968.2
1654.75	1939.72
1655.01	1970.42
1655.27	1940.13
1655.53	1941.53
1655.8	1961.84
1656.06	1986.25
1656.32	1955.17
1656.57	1975.24
1656.84	1952.73
1657.1	1958.76
1657.36	1982.41
1657.62	1985.21
1657.88	1980.07
1658.14	1958.24
1658.4	1953.17
1658.66	1933.23
1658.92	1958.62
1659.18	1955.38
1659.44	2003.42
1659.7	1987.36
1659.96	1963.41
1660.22	1946.23
1660.48	1932.61
1660.74	1976.25
1661	1943.05
1661.26	1976.95
1661.52	1987.21
1661.78	1964.95
1662.04	1979.93
1662.3	1972.21
1662.56	1954.62
1662.82	1964.32
1663.08	2002.01
1663.34	1959.39
1663.6	1972.03
1663.86	1972.52
1664.12	1963.47
1664.38	1947.83
1664.64	1974
1664.9	1997.89
1665.16	1974.22
1665.42	1980.57
1665.68	1990.25
1665.94	1990.35
1666.2	1930.32
1666.46	1933.73
1666.72	1988.91
1666.98	1998.93
1667.24	1945.39
1667.5	1940.38
1667.76	1953.78
1668.02	1958.4
1668.28	1966.1
1668.54	1942.1
1668.8	1929.33
1669.06	1981.56
1669.32	1967.9
1669.58	1980.97
1669.84	1967.2
1670.1	1958.4
1670.36	1975
1670.62	1974.02
1670.88	1959.27
1671.14	1952.04
1671.4	1950.86
1671.66	1932.93
1671.92	2000.06
1672.18	1968.53
1672.44	1980.58
1672.69	1989.56
1672.95	1992.53
1673.21	1957.94
1673.47	1957.02
1673.73	2014.45
1673.99	1955.29
1674.25	1993.08
1674.51	1974.58
1674.77	1958.03
1675.03	1998.86
1675.29	1981.45
1675.55	1991.67
1675.81	1984.93
1676.07	1959.24
1676.33	1974.07
1676.59	1960.3
1676.85	1962.39
1677.11	1961.47
1677.37	2015.89
1677.63	1960.36
1677.89	1973.06
1678.14	2034.14
1678.4	1981.32
1678.66	1975.95
1678.92	1953.84
1679.18	2004
1679.44	1993.88
1679.7	1995.7
1679.96	1953
1680.22	1958.74
1680.48	1954.65
1680.74	1970.27
1681	1944.39
1681.26	1991.64
1681.52	2002.43
1681.78	1978.69
1682.03	1972.76
1682.29	1972.77
1682.55	1989.59
1682.81	2007.43
1683.07	2009.33
1683.33	1984.59
1683.59	1982.6
1683.85	1989.52
1684.11	1939.1
1684.37	1944.91
1684.63	1963.38
1684.89	1996.8
1685.14	1977.95
1685.4	1977.89
1685.66	1975.89
1685.92	1968.98
1686.18	2001.59
1686.44	1988.81
1686.7	1919.86
1686.96	1966.69
1687.22	1988.64
1687.48	1958.07
1687.73	1977.69
1687.99	2005.12
1688.25	1946.63
1688.51	1982.99
1688.77	1982.79
1689.03	1958.81
1689.29	1969.25
1689.55	1972.87
1689.81	2002.13
1690.06	1948.47
1690.32	1987.49
1690.58	2002.17
1690.84	1966.15
1691.1	1983.19
1691.36	1977.46
1691.62	1983.5
1691.88	1997.54
1692.13	1977
1692.39	1943.46
1692.65	1969.02
1692.91	1962.82
1693.17	1980.21
1693.43	1962.01
1693.69	1963.45
1693.95	1944.14
1694.2	1959.52
1694.46	1988.7
1694.72	1989.28
1694.98	1939.74
1695.24	1994.88
1695.5	1939.85
1695.76	1983.31
1696.01	1967.68
1696.27	1945.17
1696.53	2004.57
1696.79	1989.01
1697.05	1988.01
1697.31	1980.94
1697.57	1975.65
1697.82	1972.19
1698.08	1968.72
1698.34	1991.94
1698.6	1964.03
1698.86	2002.1
1699.12	1967.39
1699.38	2005.63
1699.63	2021.33
1699.89	1951.59
1700.15	2021.48
1700.41	1992.99
1700.67	1969.02
1700.92	1994.52
1701.18	1977.71
1701.44	2036.63
1701.7	1973.51
1701.96	1998.76
1702.22	1987.55
1702.47	1977.37
1702.73	2001.55
1702.99	1983.5
1703.25	2006.98
1703.51	1970.58
1703.77	1955.72
1704.02	1991.89
1704.28	2003.57
1704.54	1998.85
1704.8	1983.4
1705.06	1958.91
1705.32	2000.09
1705.57	2008.82
1705.83	1985.25
1706.09	1948.9
1706.35	2033.09
1706.61	2030.7
1706.86	2005.67
1707.12	1979.65
1707.38	2017.44
1707.64	1964.02
1707.9	1990.96
1708.16	1999.16
1708.41	1993.63
1708.67	2000.84
1708.93	1986.39
1709.19	1971.06
1709.44	1936.34
1709.7	1994.8
1709.96	1964.32
1710.22	1998.56
1710.48	1983.92
1710.73	1980.08
1710.99	2019.41
1711.25	2009.94
1711.51	2008.18
1711.77	2014.25
1712.02	1966.41
1712.28	1979.19
1712.54	1989.75
1712.8	1989.19
1713.06	1989.35
1713.31	1948.39
1713.57	1996.5
1713.83	2025.11
1714.09	1981.35
1714.34	2016.16
1714.6	1995.4
1714.86	1975.68
1715.12	2014.65
1715.38	2007.78
1715.63	1980.79
1715.89	1947.04
1716.15	1962.67
1716.41	1994.75
1716.66	1984.7
1716.92	1983.3
1717.18	1999.34
1717.44	2002.55
1717.69	1958.77
1717.95	1997.78
1718.21	2010.55
1718.47	1980.55
1718.72	2008.15
1718.98	2002.84
1719.24	2010.38
1719.5	1976.27
1719.75	2017.15
1720.01	1992.7
1720.27	1983.12
1720.53	1956.92
1720.78	1986.92
1721.04	2019.66
1721.3	2016.19
1721.56	1963.23
1721.81	1974.51
1722.07	1964.34
1722.33	1986.22
1722.59	2002.23
1722.84	1990.07
1723.1	2023.6
1723.36	1961.01
1723.62	1970.39
1723.87	1986.67
1724.13	2001.22
1724.39	1978.73
1724.64	1995.14
1724.9	1981.23
1725.16	1999.15
1725.42	1993.52
1725.67	2026.75
1725.93	1999.81
1726.19	2006.11
1726.45	2003.93
1726.7	1986.65
1726.96	2044.65
1727.22	2011.4
1727.47	2028.12
1727.73	1989.34
1727.99	1998.55
1728.24	2000.37
1728.5	2008.75
1728.76	2048.66
1729.02	1991.66
1729.27	1959.61
1729.53	1997.09
1729.79	1978.95
1730.05	2000.28
1730.3	1990.45
1730.56	1998.89
1730.82	1993.52
1731.07	2022.3
1731.33	1998.52
1731.59	2029.59
1731.84	1979.39
1732.1	2039.27
1732.36	2003.4
1732.61	1980.02
1732.87	2000.1
1733.13	1994.98
1733.39	2026.43
1733.64	1990.09
1733.9	2029.84
1734.16	2002.94
1734.41	2002.33
1734.67	2058.59
1734.93	2024.2
1735.18	1993.67
1735.44	2010.38
1735.7	1985.74
1735.95	2000.73
1736.21	2020.65
1736.47	2013.73
1736.72	2010.64
1736.98	2014.23
1737.24	2015.89
1737.49	2001.17
1737.75	2024.95
1738.01	2002.58
1738.26	1991.66
1738.52	1974.9
1738.78	1996.6
1739.03	2015.4
1739.29	2005.32
1739.55	2035.47
1739.8	2005.91
1740.06	1987.73
1740.32	1976.33
1740.57	2038.87
1740.83	1993.18
1741.09	2004.2
1741.34	2002.79
1741.6	2026.3
1741.86	1997.16
1742.11	2017.9
1742.37	1999.51
1742.63	1985.04
1742.88	2014.56
1743.14	2001.92
1743.4	2018.07
1743.65	1996.01
1743.91	1976.68
1744.16	1991.59
1744.42	2014.21
1744.68	2015.83
1744.93	2005.17
1745.19	1998.48
1745.45	2021.48
1745.7	2036.8
1745.96	2017.57
1746.22	2010.63
1746.47	2020.75
1746.73	2013.54
1746.98	2021.54
1747.24	2007.7
1747.5	2009.99
1747.75	2047.73
1748.01	2003.34
1748.27	1993.57
1748.52	1979.22
1748.78	1974.48
1749.03	2027.08
1749.29	2003.36
1749.55	2032.25
1749.8	2054.56
1750.06	2010.09
1750.32	2018.2
1750.57	2011.05
1750.83	2021.05
1751.08	2028.88
1751.34	2012.87
1751.6	2023.46
1751.85	2007.91
1752.11	1998.74
1752.36	1988.58
1752.62	2048.3
1752.88	1991.53
1753.13	1999.68
1753.39	1997.33
1753.64	2041.81
1753.9	2028.11
1754.15	1991.54
1754.41	1999.68
1754.67	2009.74
1754.92	2015.15
1755.18	2019.65
1755.43	1984.15
1755.69	2026.8
1755.95	1997.88
1756.2	2026.99
1756.46	2000.78
1756.71	1993.59
1756.97	1991.99
1757.23	1992.31
1757.48	2009.81
1757.74	2006.72
1757.99	2050.23
1758.25	2031.35
1758.5	1995.82
1758.76	2013.15
1759.02	2008.45
1759.27	1963.76
1759.53	1985.69
1759.78	2001.98
1760.04	1998.15
1760.3	2028.46
1760.55	1969.31
1760.81	2013.84
1761.06	2026.94
1761.32	2027.57
1761.57	2005.3
1761.83	1979.28
1762.08	1980.95
1762.34	2033.09
1762.6	1998.8
1762.85	1982.04
1763.11	2034.57
1763.36	2027.97
1763.62	1996.52
1763.87	2026.07
1764.13	2028.14
1764.38	2037.87
1764.64	2026.9
1764.89	1999.13
1765.15	1994.71
1765.4	2000.7
1765.66	2018.99
1765.92	2047.7
1766.17	2024.94
1766.43	2037.34
1766.68	2034.43
1766.94	2042.84
1767.19	2053.18
1767.45	1979.87
1767.7	2040.63
1767.96	2025.13
1768.21	2019.13
1768.47	2017.95
1768.73	2011.13
1768.98	2060.46
1769.24	2017.77
1769.49	2044.22
1769.75	2012.77
1770	2023.47
1770.26	2008.35
1770.51	2038.29
1770.77	2010.32
1771.02	1986.62
1771.28	2024.78
1771.53	2008.24
1771.79	2012.79
1772.04	2035.88
1772.3	2041.72
1772.55	2029.71
1772.81	2015.87
1773.06	2005.74
1773.32	2026.94
1773.57	1969.14
1773.83	2044.55
1774.08	2082.84
1774.34	2031.61
1774.59	1999.38
1774.85	2010.91
1775.1	2042.64
1775.36	2052.34
1775.61	2008.91
1775.87	2018.43
1776.12	2054.24
1776.38	2051.67
1776.63	2046.04
1776.89	2020.22
1777.14	2030.46
1777.4	2027.26
1777.65	2042.3
1777.91	2002.88
1778.16	2001.58
1778.42	2005.02
1778.67	2013.24
1778.93	1990.92
1779.18	2031.33
1779.44	1983.2
1779.69	2008.57
1779.95	2036.14
1780.2	2031.03
1780.46	2015.97
1780.71	2038.97
1780.97	2030.61
1781.22	2026.07
1781.47	2019.46
1781.73	1975.77
1781.98	2018.81
1782.24	2010.54
1782.49	2010.88
1782.75	2041.86
1783	2006.94
1783.26	2015.77
1783.51	2036.98
1783.77	1987.7
1784.02	2037.55
1784.28	2021.66
1784.53	2024.9
1784.79	2055.01
1785.04	2044.86
1785.29	2004.02
1785.55	2037.43
1785.8	2006.8
1786.06	1997.07
1786.31	1982.56
1786.57	2056.06
1786.82	2030.49
1787.08	2004.13
1787.33	2017.94
1787.58	2012.79
1787.84	2005.93
1788.09	2033.93
1788.35	2040.05
1788.6	2016.5
1788.86	2027.92
1789.11	1989.99
1789.37	2030.7
1789.62	1997.01
1789.87	2036.82
1790.13	2030.4
1790.38	2044.1
1790.64	2031.93
1790.89	2041.55
1791.15	2007.92
1791.4	2033.35
1791.65	2003.37
1791.91	1995.55
1792.16	2006.86
1792.42	2017.43
1792.67	2014.66
1792.93	1983.18
1793.18	1974.84
1793.43	2021.96
1793.69	1983.71
1793.94	2026.86
1794.2	1999.36
1794.45	2008.08
1794.7	2036.8
1794.96	2015.43
1795.21	2006.44
1795.47	1980.22
1795.72	2049.4
1795.97	2014.45
1796.23	2034.95
1796.48	2038.22
1796.74	2040.56
1796.99	2012.16
1797.25	1981.85
1797.5	2029.33
1797.75	2027.76
1798.01	2025.16
1798.26	1990.8
1798.51	2035.23
1798.77	2015.18
1799.02	2032.52
1799.28	2037.23
1799.53	2044.71
1799.78	2021.33
1800.04	2012.29
1800.29	2021.55
1800.55	2037.6
1800.8	2002.79
1801.05	2017.03
1801.31	2004.43
1801.56	2004.38
1801.81	1991.91
1802.07	2027.54
1802.32	2013.28
1802.58	1999.09
1802.83	1992.64
1803.08	2025.67
1803.34	2018.4
1803.59	2043.86
1803.84	1988.46
1804.1	2012.71
1804.35	1982.06
1804.61	2003.49
1804.86	2029.87
1805.11	1982.15
1805.37	2029.78
1805.62	2013.94
1805.87	1998.08
1806.13	2033.21
1806.38	2025.89
1806.64	2044.53
1806.89	2041.94
1807.14	2014.19
1807.4	1976.69
1807.65	2052.86
1807.9	2008.55
1808.16	2002.81
1808.41	2029.84
1808.66	2006.78
1808.92	2009.75
1809.17	2001.16
1809.42	2009.93
1809.68	1997.49
1809.93	2019.76
1810.18	2036.25
1810.44	2012.23
1810.69	2026.73
1810.94	1991.94
1811.2	2017.88
1811.45	1998.58
1811.7	1961.92
1811.96	2009.15
1812.21	2025.57
1812.46	2027.62
1812.72	2022.07
1812.97	1993.44
1813.22	1980.31
1813.48	1969.04
1813.73	1992.33
1813.98	2015.79
1814.24	2032.66
1814.49	2031.3
1814.74	2017.41
1815	2040.31
1815.25	2037.83
1815.5	2027.54
1815.76	2003.57
1816.01	2026.88
1816.26	2042.46
1816.52	2018.42
1816.77	2036.94
1817.02	1993.6
1817.27	1979.96
1817.53	2028.01
1817.78	2000.99
1818.03	1981.97
1818.29	1979.19
1818.54	1981.49
1818.79	2014.9
1819.05	2018.14
1819.3	1966.83
1819.55	2030.78
1819.8	2034.9
1820.06	1957.83
1820.31	2022.8
1820.56	1992.11
1820.82	2003.04
1821.07	2027.45
1821.32	2014.12
1821.58	2007.64
1821.83	1981.85
1822.08	2030.54
1822.33	1996.92
1822.59	1998.09
1822.84	2009.86
1823.09	2033.22
1823.34	1982.03
1823.6	2004.27
1823.85	2032.18
1824.1	1994.24
1824.36	2007.75
1824.61	2052.45
1824.86	2022.65
1825.11	2002.51
1825.37	2009.5
1825.62	2039.75
1825.87	1981.81
1826.12	2018.67
1826.38	2012.86
1826.63	2013.88
1826.88	1989.74
1827.14	2013.05
1827.39	2019.97
1827.64	2050.21
1827.89	1990.39
1828.15	2028.39
1828.4	2025.51
1828.65	2002.18
1828.9	2006.84
1829.16	2018.19
1829.41	1993.8
1829.66	2031.51
1829.91	2014.98
1830.17	2007.13
1830.42	1977.85
1830.67	2038.64
1830.92	2013.26
1831.18	2026.84
1831.43	2006.75
1831.68	2019.62
1831.93	2014.11
1832.19	1989.19
1832.44	2034.03
1832.69	2007.2
1832.94	2048.33
1833.2	2025.37
1833.45	2042.88
1833.7	2011.92
1833.95	1993.7
1834.2	2050.04
1834.46	2009.47
1834.71	1991.52
1834.96	2017.6
1835.21	2002.08
1835.47	1972.13
1835.72	2017.03
1835.97	1962.32
1836.22	2047.42
1836.48	2023.75
1836.73	1998.05
1836.98	1999.75
1837.23	1994.14
1837.48	2013.55
1837.74	2027.62
1837.99	1998.29
1838.24	2003.03
1838.49	1960.26
1838.74	2017.99
1839	2008.84
1839.25	2011.29
1839.5	1986.86
1839.75	2012.36
1840	2033.97
1840.26	2036.43
1840.51	2009.38
1840.76	1992.49
1841.01	1993.25
1841.27	1993.21
1841.52	2025.13
1841.77	1994.29
1842.02	1995.42
1842.27	1996.63
1842.53	2033.59
1842.78	1999.17
1843.03	1994.71
1843.28	2004.17
1843.53	1979.33
1843.78	1995.71
1844.04	2042.99
1844.29	2014.81
1844.54	2018.67
1844.79	2005.43
1845.04	2015.13
1845.3	2024.45
1845.55	1999.46
1845.8	2039.04
1846.05	2022.53
1846.3	2010.89
1846.55	2030.05
1846.81	2029.57
1847.06	2018.78
1847.31	2017.81
1847.56	2031.73
1847.81	1999.3
1848.07	2033.04
1848.32	2002.31
1848.57	1996.51
1848.82	1992.6
1849.07	2003.63
1849.32	1999.86
1849.57	1954.23
1849.83	1994.1
1850.08	2015.61
1850.33	2024.64
1850.58	1991.2
1850.83	2015.61
1851.09	1988.18
1851.34	2031
1851.59	2022.94
1851.84	2026.49
1852.09	2008.05
1852.34	2021.41
1852.59	2024.28
1852.84	2024.3
1853.1	2035.83
1853.35	2034.82
1853.6	2019.34
1853.85	2012.4
1854.1	2025.46
1854.35	2005.71
1854.6	2034.8
1854.86	1981.49
1855.11	2064.61
1855.36	1991.44
1855.61	2024.41
1855.86	1993.09
1856.11	2017.64
1856.36	1966.7
1856.61	2020.24
1856.87	2041.33
1857.12	1974.28
1857.37	2020.18
1857.62	2000.85
1857.87	1995.84
1858.12	2008.05
1858.37	1990.52
1858.63	1970.02
1858.88	2021.26
1859.13	2022.71
1859.38	2004.05
1859.63	2021.71
1859.88	1988.86
1860.13	1990.74
1860.38	2019.44
1860.63	1991.85
1860.89	1979.81
1861.14	1997.38
1861.39	2023.52
1861.64	2016.26
1861.89	2002.24
1862.14	2006.19
1862.39	1997.49
1862.64	2043.12
1862.9	2016.86
1863.15	1986.75
1863.4	2016.88
1863.65	2040.32
1863.9	2001.66
1864.15	2043.32
1864.4	2047.74
1864.65	2014.91
1864.9	2014.56
1865.15	2039.93
1865.4	2003.14
1865.66	2019.73
1865.91	2040.05
1866.16	2017.34
1866.41	2026.03
1866.66	2019.45
1866.91	2033.85
1867.16	1988.26
1867.41	1986.5
1867.66	1981.96
1867.91	1998.5
1868.16	1979.14
1868.41	2030.27
1868.67	2012.07
1868.92	1982.65
1869.17	1995.12
1869.42	2032.2
1869.67	1985.52
1869.92	2020.58
1870.17	2007.16
1870.42	1988.06
1870.67	1984.17
1870.92	2027.82
1871.17	2041.09
1871.42	2043.92
1871.67	2023.82
1871.92	1992.25
1872.17	2028.97
1872.42	2005.93
1872.68	2007.64
1872.93	1979.74
1873.18	2010.68
1873.43	2016.11
1873.68	1978.06
1873.93	1989.3
1874.18	2008.96
1874.43	1985.82
1874.68	2004.36
1874.93	2017.14
1875.18	2013.79
1875.43	2020.83
1875.68	1980.47
1875.93	2003.45
1876.18	1986.25
1876.43	2003.51
1876.68	2025.61
1876.93	1962.69
1877.18	2020.12
1877.43	2011.55
1877.68	1986.72
1877.93	1997.66
1878.18	2037.09
1878.44	1980.09
1878.69	1977.32
1878.93	2001.04
1879.19	2010.26
1879.44	2016.92
1879.69	2008.39
1879.94	2004.95
1880.19	2017.6
1880.44	1998.58
1880.69	2005.08
1880.94	1991.34
1881.19	1997.53
1881.44	1984.19
1881.69	1996.62
1881.94	1987.12
1882.19	1996.53
1882.44	1986.96
1882.69	1999.98
1882.94	2011.8
1883.19	2001.8
1883.44	2024.86
1883.69	2042.16
1883.94	2035.18
1884.19	2021.37
1884.44	1967.82
1884.69	1988.81
1884.94	1993.41
1885.19	2013.98
1885.44	1987.68
1885.69	2003.07
1885.94	2006.17
1886.19	2041.16
1886.44	2022.77
1886.69	2035.38
1886.94	2027.63
1887.19	2030.56
1887.44	2008.41
1887.69	2013.61
1887.94	1997.09
1888.19	2022.05
1888.44	1954.54
1888.69	2009.39
1888.94	2029.42
1889.19	2002.41
1889.44	2013.1
1889.69	2021.24
1889.94	2026.83
1890.19	1995.68
1890.44	2018.47
1890.69	2032.13
1890.94	1958.21
1891.19	2022.41
1891.43	2017.63
1891.68	2033.47
1891.94	1957.16
1892.18	2006.95
1892.43	2038.87
1892.68	2009.62
1892.93	1984.86
1893.18	1989.17
1893.43	2020.45
1893.68	2016.51
1893.93	1959.13
1894.18	1978.64
1894.43	1983.68
1894.68	2011.15
1894.93	2004.23
1895.18	1961.81
1895.43	1983.48
1895.68	2008.07
1895.93	2016.75
1896.18	2008.55
1896.43	2001.3
1896.68	2001.64
1896.93	2035.9
1897.18	2003.35
1897.42	2013.97
1897.68	2012.29
1897.92	2019.92
1898.17	1987
1898.42	2020.76
1898.67	1990.43
1898.92	2035.23
1899.17	2007.52
1899.42	1982.58
1899.67	1977.51
1899.92	2006.44
1900.17	2008.07
1900.42	1994.67
1900.67	1994.62
1900.92	2000.33
1901.16	1982.7
1901.41	2011.23
1901.66	1987.23
1901.91	1988.58
1902.16	2042.59
1902.41	2004.53
1902.66	1989.93
1902.91	1981.5
1903.16	1989.81
1903.41	2003.72
1903.66	2005.37
1903.91	2038.12
1904.16	2007.91
1904.41	2002.18
1904.65	2013.42
1904.9	2035.92
1905.15	1993.52
1905.4	2007.55
1905.65	2013.18
1905.9	1953.85
1906.15	2017.22
1906.4	1986.47
1906.65	1976.81
1906.9	2001.95
1907.14	1980.16
1907.39	2011.96
1907.64	2013.87
1907.89	1966.11
1908.14	1985.16
1908.39	1997.76
1908.64	2006.4
1908.89	1995.25
1909.14	1996.42
1909.39	1983.59
1909.63	2012.21
1909.88	2009.91
1910.13	1997.37
1910.38	2001.81
1910.63	2047.7
1910.88	2025.75
1911.13	1953.72
1911.38	2022.8
1911.62	2008.88
1911.87	2015.57
1912.12	2022.16
1912.37	1996.61
1912.62	1985.18
1912.87	1976.67
1913.12	1997.4
1913.37	2011.55
1913.61	2019.17
1913.86	1970.51
1914.11	2002.19
1914.36	2039.6
1914.61	2001.43
1914.86	2015.07
1915.11	1991.94
1915.36	2004.61
1915.6	1998.31
1915.85	1992.78
1916.1	1979.54
1916.35	1981.27
1916.6	1990.62
1916.85	2017.7
1917.1	2025.77
1917.34	2026.37
1917.59	1948.77
1917.84	2010.81
1918.09	2024.84
1918.34	1993.8
1918.59	1997.86
1918.83	2015.3
1919.08	2002.65
1919.33	2024.97
1919.58	1995.43
1919.83	2041.61
1920.08	2028.18
1920.33	2001.18
1920.57	1995.62
1920.82	1991.62
1921.07	1989.88
1921.32	1997.02
1921.57	1998.51
1921.81	2006.4
1922.06	2003.85
1922.31	2010.67
1922.56	1973.8
1922.81	2034.18
1923.06	2006.46
1923.31	2000.52
1923.55	1999.39
1923.8	1985.06
1924.05	1959.37
1924.3	2046.05
1924.55	2027.74
1924.79	2004.83
1925.04	2014.22
1925.29	1996.36
1925.54	2012.7
1925.79	1997.07
1926.04	1992.97
1926.28	1972.74
1926.53	1984.61
1926.78	1997.48
1927.03	1978.25
1927.28	2009.91
1927.52	2014.02
1927.77	1967.92
1928.02	2003.23
1928.27	2004.42
1928.52	1962.97
1928.76	2006.7
1929.01	2037.3
1929.26	2002.52
1929.51	1992.43
1929.76	1978.67
1930	1956.54
1930.25	1997.84
1930.5	1990.88
1930.75	1990.43
1931	1999.52
1931.24	2007.29
1931.49	2001.66
1931.74	2001.52
1931.99	1963.3
1932.24	2028.54
1932.48	1994.11
1932.73	1992.89
1932.98	1948.01
1933.23	1973.55
1933.47	1963.81
1933.72	1967.74
1933.97	2015.77
1934.22	1977.85
1934.46	1981.05
1934.71	1988.53
1934.96	1970.27
1935.21	1958.41
1935.46	2029.2
1935.7	2010.19
1935.95	1999.44
1936.2	1982.87
1936.45	2017.95
1936.69	1952.08
1936.94	1981.38
1937.19	1965.75
1937.44	2005.28
1937.68	1976.31
1937.93	1987.33
1938.18	1967.95
1938.43	1996.11
1938.68	2009.43
1938.92	1960.64
1939.17	1994.21
1939.42	1990.72
1939.67	2025.36
1939.91	1978.01
1940.16	1994.55
1940.41	1992.74
1940.66	1965.6
1940.9	1988.02
1941.15	1972.18
1941.4	2014.94
1941.64	1988.23
1941.89	2005.17
1942.14	1973.94
1942.39	2012.81
1942.63	1989.72
1942.88	1976.5
1943.13	1999.9
1943.38	1972.3
1943.62	2018.28
1943.87	1976.36
1944.12	1994.77
1944.37	1976.97
1944.61	1998.41
1944.86	2000.75
1945.11	2004.09
1945.35	1947.29
1945.6	1981.23
1945.85	1982.68
1946.1	1986.96
1946.34	1955.8
1946.59	1994.36
1946.84	1951.56
1947.09	1994.73
1947.33	2004.27
1947.58	1945.78
1947.83	1986.71
1948.07	1986.67
1948.32	1948.42
1948.57	1976.15
1948.82	2022.86
1949.06	1950.3
1949.31	1983.18
1949.56	1961.6
1949.8	1972.55
1950.05	1969.24
1950.3	1972.64
1950.54	1992.64
1950.79	1961
1951.04	1998.13
1951.29	1986.46
1951.53	1967.15
1951.78	1986.15
1952.03	1990.61
1952.27	2009.27
1952.52	1957.73
1952.77	1948.46
1953.01	1967.6
1953.26	1998.72
1953.51	1974.26
1953.76	1983.33
1954	1996.03
1954.25	1971.73
1954.49	2003.25
1954.74	1996.45
1954.99	2001.3
1955.24	1979
1955.48	1964.57
1955.73	1942.79
1955.98	1958.66
1956.22	1983.49
1956.47	1964.76
1956.72	1948.06
1956.96	1967.91
1957.21	1966.34
1957.46	1980.27
1957.7	1978.78
1957.95	1985.9
1958.2	1977.55
1958.44	1960.47
1958.69	1983.69
1958.94	1978.04
1959.18	2006.73
1959.43	1990.98
1959.68	1978.3
1959.92	1983.05
1960.17	1978.91
1960.42	1953.64
1960.66	2001.38
1960.91	1987.61
1961.16	1961.33
1961.4	1990.75
1961.65	1997.17
1961.9	1989.31
1962.14	1990.35
1962.39	1960.73
1962.63	1950.26
1962.88	1983.95
1963.13	1982.13
1963.37	1969.75
1963.62	1969.83
1963.87	1943.04
1964.11	1977.71
1964.36	1986.61
1964.61	1968.6
1964.85	1980.1
1965.1	1983.8
1965.35	1959.85
1965.59	1982.84
1965.84	1975.21
1966.08	1981.19
1966.33	1980.62
1966.58	1991.65
1966.82	1961.36
1967.07	1965.53
1967.32	1958.1
1967.56	1970.55
1967.81	1962.89
1968.05	1994.8
1968.3	1993.94
1968.55	1949.82
1968.79	1988.25
1969.04	1973.66
1969.29	1971.4
1969.53	1986.3
1969.78	1983.77
1970.02	1982.19
1970.27	1975.93
1970.52	1995.69
1970.76	1988.7
1971.01	1941.35
1971.25	1968.89
1971.5	1956.21
1971.75	2007.83
1971.99	1998.09
1972.24	1997.3
1972.48	1963.93
1972.73	1965
1972.98	1965.95
1973.22	2000.33
1973.47	1977.95
1973.71	1943.01
1973.96	1971.42
1974.21	1966.38
1974.45	1976.77
1974.7	1971.91
1974.94	1962.35
1975.19	1959.56
1975.44	1996.17
1975.68	1951.38
1975.93	1982.38
1976.17	1978.82
1976.42	1969.45
1976.66	1944.65
1976.91	1956.25
1977.16	2009.99
1977.4	1961.02
1977.65	1942.68
1977.89	1978.92
1978.14	2003.55
1978.39	1974.48
1978.63	1993.39
1978.88	1933.76
1979.12	1982.54
1979.37	1995.01
1979.61	1957.7
1979.86	1997.98
1980.1	1965.49
1980.35	1965.53
1980.6	1965.36
1980.84	1984.19
1981.09	1956.08
1981.33	1977
1981.58	1979.61
1981.82	1940.13
1982.07	1986.94
1982.31	1956.23
1982.56	1976.28
1982.81	1985.56
1983.05	1962.26
1983.3	1945.54
1983.54	1982.3
1983.79	1983.8
1984.03	1978.83
1984.28	1949.05
1984.52	1993.83
1984.77	1956.33
1985.02	1982.96
1985.26	1938.65
1985.51	1945.81
1985.75	1956.09
1986	1988.61
1986.24	1964.85
1986.49	1987.12
1986.73	1979.82
1986.98	2003.9
1987.22	1964.64
1987.47	1995.4
1987.71	1934.83
1987.96	1978.25
1988.21	1947.98
1988.45	1989.29
1988.7	1978.88
1988.94	1943.35
1989.19	1989.93
1989.43	1959.61
1989.68	1940.35
1989.92	1962.74
1990.17	1968.67
1990.41	1965.86
1990.66	1949.58
1990.9	1969.04
1991.15	1983.44
1991.39	1946.41
1991.64	1978.62
1991.88	1982.48
1992.13	1945.38
1992.37	1977.33
1992.62	1967.24
1992.86	1975.45
1993.11	1988.49
1993.35	1961.32
1993.6	1959.38
1993.84	1994.01
1994.09	1946.26
1994.33	2010.48
1994.58	1970.89
1994.82	1960
1995.07	1972.46
1995.31	1970.13
1995.56	1991.44
1995.8	1946.49
1996.05	1986.11
1996.29	1941.03
1996.54	1952.3
1996.78	1975.61
1997.03	1940.5
1997.27	1976.19
1997.52	1950.59
1997.76	1981.04
1998.01	1971.26
1998.25	1985.45
1998.5	1982.03
1998.74	1968.14
1998.99	1966.27
1999.23	1957.24
1999.48	1967.16
1999.72	1965.51
1999.97	1953.44
2000.21	1955.73
2000.46	1954.55
2000.7	1970.36
2000.95	1977.28
2001.19	1975.27
2001.43	1988.66
2001.68	1978.73
2001.92	1978.68
2002.17	1980.03
2002.41	1971.5
2002.66	1963.81
2002.9	1968.16
2003.15	1951.49
2003.39	1975.69
2003.64	1975.23
2003.88	1979.83
2004.13	1983.48
2004.37	1975.58
2004.61	1963.57
2004.86	1964.63
2005.1	1985.97
2005.35	1971.97
2005.59	1967.79
2005.84	1987.06
2006.08	1962.1
2006.33	1960.95
2006.57	1978.83
2006.81	1958.06
2007.06	1965.52
2007.3	1975.95
2007.55	1990.54
2007.79	1981.34
2008.04	1981.23
2008.28	1973.2
2008.53	1986
2008.77	1958.72
2009.01	1964.13
2009.26	1979.27
2009.5	1972.84
2009.75	1966.57
2009.99	1958.44
2010.24	1997.79
2010.48	1981.89
2010.73	1994.87
2010.97	1975.68
2011.21	1987.89
2011.46	1978.89
2011.7	1991.27
2011.95	1980.19
2012.19	1972.97
2012.43	1972.86
2012.68	1996.24
2012.92	1976.32
2013.17	1978.73
2013.42	1957.33
2013.67	1978.92
2013.91	1993.39
2014.16	1946.59
2014.41	1961.7
2014.66	1977.55
2014.9	1947.53
2015.15	1941.64
2015.4	1968.95
2015.64	1982.36
2015.89	1965.82
2016.14	1981.08
2016.39	1905.76
2016.63	1937.25
2016.88	1976.29
2017.13	1939.93
2017.37	1968.01
2017.62	1970.53
2017.87	1984.16
2018.11	1951.61
2018.36	1987.46
2018.61	1920.94
2018.86	1967.14
2019.1	1946.72
2019.35	1928.13
2019.6	1961.15
2019.84	1965.45
2020.09	1931.45
2020.34	1946.29
2020.58	1971.54
2020.83	1969.58
2021.08	1972.31
2021.33	1958.38
2021.57	1972.56
2021.82	1975.38
2022.07	1946.25
2022.31	2000.39
2022.56	2004.79
2022.81	1943.55
2023.05	1960.86
2023.3	1953.75
2023.55	1972.04
2023.8	1922.97
2024.04	1953.4
2024.29	1948.3
2024.54	1944.18
2024.78	1946.34
2025.03	1972.75
2025.27	1931.94
2025.52	1984.53
2025.77	1969.94
2026.02	1954.47
2026.26	1945.39
2026.51	1958.64
2026.76	1964.05
2027	1973.72
2027.25	1966.84
2027.5	1985.39
2027.74	1960.27
2027.99	1956.27
2028.23	1917.61
2028.48	1958.79
2028.73	1972.95
2028.98	1929.71
2029.22	1965.95
2029.47	1934.83
2029.72	1976
2029.96	1922.02
2030.21	1951.65
2030.45	1957.79
2030.7	1988.47
2030.95	1944.89
2031.19	1932.34
2031.44	1973.63
2031.69	1935.08
2031.93	1908.03
2032.18	1903.43
2032.43	1946
2032.67	1959.72
2032.92	1964.19
2033.17	1924.68
2033.41	1959.77
2033.66	1940.55
2033.91	1955.16
2034.15	1959.19
2034.4	1927.32
2034.64	1960.56
2034.89	1955.74
2035.14	1944.96
2035.38	1951.41
2035.63	1912.88
2035.87	1953.22
2036.12	1928.49
2036.37	1960.36
2036.61	1970.57
2036.86	1959.25
2037.11	1983.62
2037.35	1937.36
2037.6	1958.85
2037.84	1969.97
2038.09	1951.08
2038.34	1943.36
2038.58	1963.65
2038.83	1890.45
2039.08	1982.65
2039.32	1956.17
2039.57	1946.49
2039.81	1959.23
2040.06	1968.13
2040.31	1917.16
2040.55	1939.96
2040.8	1947.85
2041.04	1924.99
2041.29	1945.1
2041.54	1955.02
2041.78	1928.76
2042.03	1948.22
2042.27	1935.83
2042.52	1919.76
2042.77	1947.31
2043.01	1923.86
2043.26	1966.71
2043.5	1967.83
2043.75	1950.66
2044	1904.84
2044.24	1954.15
2044.49	1948.86
2044.73	1959.97
2044.98	1924.98
2045.23	1917.58
2045.47	1937.27
2045.72	1910.78
2045.96	1904.85
2046.21	1942.17
2046.45	1947.26
2046.7	1950.26
2046.95	1929.67
2047.19	1969.3
2047.44	1956.32
2047.68	1946.4
2047.93	1947.63
2048.17	1950.94
2048.42	1963.14
2048.67	1963.25
2048.91	1935.41
2049.16	1961.73
2049.4	1924.01
2049.65	1917.9
2049.89	1959.53
2050.14	1945.32
2050.39	1893.57
2050.63	1932.42
2050.88	1932.74
2051.12	1930.97
2051.37	1922.45
2051.61	1932.33
2051.86	1952.3
2052.11	1900
2052.35	1928.99
2052.6	1935.83
2052.84	1929.39
2053.09	1947.37
2053.33	1940.22
2053.58	1951.83
2053.82	1959.83
2054.07	1930.85
2054.31	1909.72
2054.56	1982.01
2054.8	1906.31
2055.05	1946.5
2055.3	1938.92
2055.54	1878.92
2055.79	1921.49
2056.03	1949.32
2056.28	1931.47
2056.52	1885.48
2056.77	1918.93
2057.01	1912.26
2057.26	1903.84
2057.5	1936.66
2057.75	1937.75
2058	1922.11
2058.24	1898.1
2058.49	1920.84
2058.73	1953.14
2058.98	1921.78
2059.22	1910.97
2059.47	1940.29
2059.71	1928.25
2059.96	1954.58
2060.2	1941.52
2060.45	1897.28
2060.69	1943.8
2060.94	1929.55
2061.18	1929.79
2061.43	1916.98
2061.67	1917.18
2061.92	1962.21
2062.16	1908.9
2062.41	1903.35
2062.65	1927.84
2062.9	1929.93
2063.14	1919.92
2063.39	1926.83
2063.63	1941.22
2063.88	1920.88
2064.12	1945.47
2064.37	1943.77
2064.61	1943.93
2064.86	1949.8
2065.1	1932.28
2065.35	1940.25
2065.59	1940.86
2065.84	1932.96
2066.08	1951.28
2066.33	1915.07
2066.57	1920.04
2066.82	1906.98
2067.06	1945.7
2067.31	1939.36
2067.55	1914.18
2067.8	1948.26
2068.04	1908.19
2068.29	1913.17
2068.53	1908.68
2068.78	1930.43
2069.02	1936.37
2069.27	1967.42
2069.51	1885.36
2069.76	1901.74
2070	1922.51
2070.25	1948.48
2070.49	1899.83
2070.73	1898.76
2070.98	1936.41
2071.22	1902.63
2071.47	1947.65
2071.71	1914.15
2071.96	1878.73
2072.2	1931.32
2072.45	1880.33
2072.69	1917.86
2072.94	1940.4
2073.18	1919.53
2073.43	1941.18
2073.67	1957.09
2073.92	1937.41
2074.16	1931.83
2074.4	1948.91
2074.65	1902.99
2074.89	1930.67
2075.14	1922.72
2075.38	1937.54
2075.63	1947.86
2075.87	1897.96
2076.12	1922.26
2076.36	1929.24
2076.6	1938.73
2076.85	1923.72
2077.09	1901.81
2077.34	1908.96
2077.58	1908.53
2077.83	1934.05
2078.07	1918.74
2078.31	1948.22
2078.56	1928.84
2078.8	1898.84
2079.05	1966.95
2079.29	1934.21
2079.54	1911.09
2079.78	1938.45
2080.03	1896.35
2080.27	1938.26
2080.51	1899.84
2080.76	1941.68
2081	1903.92
2081.25	1891.44
2081.49	1921.55
2081.74	1918.66
2081.98	1936.6
2082.22	1918.58
2082.47	1893.22
2082.71	1932.12
2082.96	1949.25
2083.2	1928.5
2083.45	1918.08
2083.69	1933.13
2083.93	1960.46
2084.18	1917
2084.42	1904.75
2084.67	1900.95
2084.91	1905.71
2085.15	1974.77
2085.4	1909.58
2085.64	1916.2
2085.89	1902.04
2086.13	1897.46
2086.37	1904.57
2086.62	1912.77
2086.86	1928.36
2087.11	1917.21
2087.35	1890.96
2087.59	1931.98
2087.84	1887.69
2088.08	1893.39
2088.32	1917.09
2088.57	1902.01
2088.81	1867.08
2089.06	1920.19
2089.3	1929.76
2089.54	1910.19
2089.79	1902.95
2090.03	1894.95
2090.28	1891.35
2090.52	1920.82
2090.76	1918.12
2091.01	1900.31
2091.25	1913.8
2091.5	1929.18
2091.74	1882.01
2091.98	1887.25
2092.23	1938.08
2092.47	1892.23
2092.72	1911.84
2092.96	1915.37
2093.2	1942.48
2093.45	1938.24
2093.69	1879.84
2093.93	1955.39
2094.18	1935.85
2094.42	1893.44
2094.66	1920.18
2094.91	1891.66
2095.15	1917.25
2095.39	1909.51
2095.64	1877.82
2095.88	1933.55
2096.13	1906.67
2096.37	1915
2096.61	1880.66
2096.86	1910.05
2097.1	1921.37
2097.34	1904.97
2097.59	1900.79
2097.83	1923.2
2098.07	1940.13
2098.32	1922.94
2098.56	1860.2
2098.8	1919.73
2099.05	1920.69
2099.29	1895.96
2099.53	1898.7
2099.78	1921.4
2100.02	1934.66
2100.27	1928.04
2100.51	1909.12
2100.75	1943.4
2101	1931.27
2101.24	1891.88
2101.48	1933.09
2101.73	1907.7
2101.97	1900.23
2102.21	1914.48
2102.45	1920.14
2102.7	1923.96
2102.94	1943.79
2103.18	1928.28
2103.43	1909.85
2103.67	1878.31
2103.92	1900.1
2104.16	1894.3
2104.4	1903.83
2104.64	1941.02
2104.89	1897.66
2105.13	1895.1
2105.37	1885.88
2105.62	1922.32
2105.86	1929.42
2106.1	1916.49
2106.35	1930.97
2106.59	1891.25
2106.83	1896.11
2107.08	1907.61
2107.32	1895.43
2107.56	1903.11
2107.8	1909.56
2108.05	1936.76
2108.29	1904.9
2108.53	1924.32
2108.78	1882.01
2109.02	1881.61
2109.26	1907.09
2109.51	1909.08
2109.75	1930.48
2109.99	1888.13
2110.23	1898.61
2110.48	1904.32
2110.72	1911.92
2110.96	1903.37
2111.21	1880.58
2111.45	1900.52
2111.69	1898.49
2111.93	1931.47
2112.18	1917.03
2112.42	1922.62
2112.66	1901.72
2112.91	1920.91
2113.15	1900.22
2113.39	1901.41
2113.63	1889.53
2113.88	1881.38
2114.12	1919.59
2114.36	1897.62
2114.61	1887
2114.85	1966.79
2115.09	1895.61
2115.33	1907.07
2115.58	1880.36
2115.82	1843.14
2116.06	1911.41
2116.31	1913.15
2116.55	1881.42
2116.79	1894.35
2117.03	1884.68
2117.28	1943.47
2117.52	1883.56
2117.76	1919.73
2118	1908.15
2118.25	1905.95
2118.49	1900.89
2118.73	1878.55
2118.97	1918.79
2119.22	1892.74
2119.46	1878.12
2119.7	1907.11
2119.94	1888.71
2120.19	1880.78
2120.43	1896.62
2120.67	1898.42
2120.91	1897.53
2121.16	1897.85
2121.4	1890.45
2121.64	1916.48
2121.88	1896.1
2122.13	1857.65
2122.37	1866.58
2122.61	1879.27
2122.85	1890.01
2123.1	1932.04
2123.34	1905.69
2123.58	1873.58
2123.82	1923.97
2124.07	1901.99
2124.31	1893.23
2124.55	1893.86
2124.79	1870.6
2125.03	1871.75
2125.28	1897.39
2125.52	1903.18
2125.76	1869.37
2126	1901.93
2126.25	1894.75
2126.49	1911.29
2126.73	1866.41
2126.97	1907.64
2127.21	1912.9
2127.46	1865.22
2127.7	1913.28
2127.94	1871.58
2128.18	1871.47
2128.43	1903.41
2128.67	1892.9
2128.91	1894.8
2129.15	1895.76
2129.39	1879.61
2129.64	1875.68
2129.88	1861.38
2130.12	1881.15
2130.36	1906.57
2130.6	1879.06
2130.85	1888.36
2131.09	1855.11
2131.33	1875.67
2131.57	1885.78
2131.81	1910.98
2132.06	1889.94
2132.3	1865.21
2132.54	1865.94
2132.78	1874.07
2133.02	1889.76
2133.27	1871.66
2133.51	1923.53
2133.75	1861.33
2133.99	1893.5
2134.23	1872.76
2134.48	1894.55
2134.72	1875.74
2134.96	1921
2135.2	1879.42
2135.44	1904.85
2135.68	1874.56
2135.93	1885.69
2136.17	1896.69
2136.41	1865.93
2136.65	1898.36
2136.89	1895.25
2137.14	1868
2137.38	1863.37
2137.62	1892.64
2137.86	1875.88
2138.1	1907.41
2138.34	1911.98
2138.59	1848.27
2138.83	1896.89
2139.07	1859.54
2139.31	1914.85
2139.55	1886.06
2139.79	1876.63
2140.03	1909.84
2140.28	1826.58
2140.52	1886.6
2140.76	1835.49
2141	1898.4
2141.24	1868.12
2141.49	1854.78
2141.73	1878.36
2141.97	1883.63
2142.21	1855.9
2142.45	1844.44
2142.69	1904.69
2142.93	1858.94
2143.18	1879.01
2143.42	1873.03
2143.66	1909.02
2143.9	1884.45
2144.14	1869.41
2144.38	1865.07
2144.62	1876.08
2144.87	1861.69
2145.11	1853.6
2145.35	1863.81
2145.59	1866.79
2145.83	1866.88
2146.07	1839.51
2146.31	1846.88
2146.55	1904.06
2146.8	1896.39
2147.04	1876.5
2147.28	1841.54
2147.52	1880.75
2147.76	1871.1
2148	1872.75
2148.24	1881.94
2148.48	1866.7
2148.73	1886.2
2148.97	1876.56
2149.21	1855.62
2149.45	1865.56
2149.69	1872.62
2149.93	1858.7
2150.17	1825.45
2150.42	1866.2
2150.66	1847.07
2150.9	1850.63
2151.14	1857.16
2151.38	1853.57
2151.62	1855.76
2151.86	1837.21
2152.1	1885.33
2152.34	1879.83
2152.58	1867.91
2152.83	1869.51
2153.07	1873
2153.31	1870.77
2153.55	1878.9
2153.79	1873.12
2154.03	1866.38
2154.27	1879.19
2154.51	1843.12
2154.75	1865.9
2154.99	1881.01
2155.24	1856.86
2155.48	1829.83
2155.72	1853.55
2155.96	1877.3
2156.2	1845.04
2156.44	1838.15
2156.68	1827.68
2156.92	1860.29
2157.16	1835.03
2157.4	1870.54
2157.64	1853.86
2157.89	1880.29
2158.13	1849.8
2158.37	1856.65
2158.61	1853.93
2158.85	1846.44
2159.09	1830.47
2159.33	1856.48
2159.57	1840.36
2159.81	1849.4
2160.05	1881.72
2160.29	1824.29
2160.53	1852.77
2160.77	1826.22
2161.01	1911.72
2161.25	1897.51
2161.5	1894.61
2161.74	1858.05
2161.98	1841.08
2162.22	1880.19
2162.46	1862.46
2162.7	1841.95
2162.94	1879.24
2163.18	1868.81
2163.42	1859.23
2163.66	1830.12
2163.9	1849.51
2164.14	1866.09
2164.38	1844.43
2164.62	1872.92
2164.86	1829.56
2165.11	1830.2
2165.35	1860.09
2165.59	1840.71
2165.83	1870.56
2166.07	1837.97
2166.31	1847.31
2166.55	1846.17
2166.79	1837.58
2167.03	1836.37
2167.27	1842.52
2167.51	1849.7
2167.75	1866.02
2167.99	1860.81
2168.23	1832.92
2168.47	1835.81
2168.71	1855.05
2168.95	1838.27
2169.19	1861.62
2169.43	1863.74
2169.67	1799.02
2169.91	1852.57
2170.15	1820.65
2170.39	1840.91
2170.63	1844.13
2170.87	1834.98
2171.11	1835.79
2171.35	1863.36
2171.59	1835.26
2171.83	1834.52
2172.07	1849.96
2172.31	1845.55
2172.56	1809.88
2172.79	1828.15
2173.04	1884.57
2173.28	1838.07
2173.51	1864.06
2173.76	1851.03
2174	1872.53
2174.24	1835.61
2174.48	1825.56
2174.72	1834.02
2174.96	1822.89
2175.2	1865.63
2175.44	1859.09
2175.68	1847.82
2175.92	1836.55
2176.16	1835.56
2176.4	1829.89
2176.64	1839.96
2176.88	1841.53
2177.12	1841.41
2177.36	1805.19
2177.6	1810.82
2177.84	1835.01
2178.08	1837.76
2178.32	1821.11
2178.55	1818.15
2178.8	1821.37
2179.03	1834.93
2179.28	1849.74
2179.52	1842.4
2179.75	1831.29
2180	1815.53
2180.23	1847.09
2180.47	1838.73
2180.71	1848.89
2180.95	1810.71
2181.19	1861.65
2181.43	1852.32
2181.67	1839.21
2181.91	1838.99
2182.15	1824.86
2182.39	1860.03
2182.63	1844.94
2182.87	1847.55
2183.11	1811.2
2183.35	1885.05
2183.59	1823.41
2183.83	1801.56
2184.07	1801.18
2184.31	1875.95
2184.55	1835.84
2184.79	1838.53
2185.03	1836.75
2185.27	1815.62
2185.51	1873.22
2185.75	1840
2185.99	1816.14
2186.23	1822.01
2186.47	1826.99
2186.7	1841.23
2186.95	1862.17
2187.18	1845.11
2187.42	1842.88
2187.66	1829.5
2187.9	1854.98
2188.14	1835.58
2188.38	1826.1
2188.62	1831.36
2188.86	1831
2189.1	1823.18
2189.34	1845.02
2189.58	1835.23
2189.82	1821.64
2190.06	1835.04
2190.3	1839.44
2190.54	1805.07
2190.78	1832.92
2191.01	1854.41
2191.25	1815.63
2191.49	1849.01
2191.73	1825.01
2191.97	1833.52
2192.21	1823.49
2192.45	1812.53
2192.69	1838.65
2192.93	1849.03
2193.17	1840.07
2193.41	1831.12
2193.65	1816.58
2193.89	1854.13
2194.13	1823.36
2194.36	1846.56
2194.6	1822.07
2194.84	1839.14
2195.08	1807.44
2195.32	1811.88
2195.56	1847.01
2195.8	1814.2
2196.04	1839.82
2196.28	1818.87
2196.52	1837.73
2196.76	1815.79
2197	1833.9
2197.23	1826.13
2197.47	1859.22
2197.71	1832.98
2197.95	1819.08
2198.19	1830.27
2198.43	1811.92
2198.67	1817
2198.91	1808.19
2199.15	1853.31
2199.38	1822.38
2199.62	1835
2199.86	1837.48
2200.1	1842.75
2200.34	1825.05
2200.58	1832.56
2200.82	1840.88
2201.06	1841.64
2201.3	1854.31
2201.54	1870.62
2201.77	1823.27
2202.01	1840.93
2202.25	1824
2202.49	1828.79
2202.73	1845.74
2202.97	1842.47
2203.21	1825.33
2203.45	1823.89
2203.68	1803.06
2203.92	1826.05
2204.16	1821.72
2204.4	1848.38
2204.64	1833.32
2204.88	1808.46
2205.12	1851.95
2205.36	1843.77
2205.59	1878.59
2205.83	1831.98
2206.07	1834.49
2206.31	1828.96
2206.55	1822.88
2206.79	1806.21
2207.03	1825.06
2207.26	1819.6
2207.5	1846.85
2207.74	1845.34
2207.98	1795.5
2208.22	1811.72
2208.46	1829.8
2208.7	1805.98
2208.93	1798.87
2209.17	1784.24
2209.41	1809.58
2209.65	1827.39
2209.89	1869.32
2210.13	1793.84
2210.36	1826.51
2210.6	1824.89
2210.84	1820.5
2211.08	1842.24
2211.32	1819.25
2211.56	1805.56
2211.8	1821.72
2212.03	1810.94
2212.27	1830.92
2212.51	1803.22
2212.75	1823.89
2212.99	1818.18
2213.23	1816.13
2213.46	1831.82
2213.7	1811.02
2213.94	1835.88
2214.18	1805.22
2214.42	1846.62
2214.66	1804.48
2214.89	1796.79
2215.13	1805.4
2215.37	1806.5
2215.61	1848.64
2215.85	1822.59
2216.08	1785.3
2216.32	1817.99
2216.56	1805.84
2216.8	1794.59
2217.04	1803.85
2217.28	1819.66
2217.51	1785.12
2217.75	1784.27
2217.99	1842.24
2218.23	1831.98
2218.47	1823.56
2218.7	1764.82
2218.94	1782.75
2219.18	1794.22
2219.42	1839.39
2219.66	1809.84
2219.9	1821.27
2220.13	1776.65
2220.37	1788.05
2220.61	1836.62
2220.85	1811.31
2221.09	1771.07
2221.32	1797.06
2221.56	1805.98
2221.8	1794.29
2222.04	1832.19
2222.27	1807.57
2222.51	1805.48
2222.75	1815.71
2222.99	1775.7
2223.23	1803.98
2223.46	1812.66
2223.7	1806.45
2223.94	1824.64
2224.18	1828.93
2224.42	1808
2224.65	1785.16
2224.89	1785.62
2225.13	1786.96
2225.37	1795.78
2225.6	1797.17
2225.84	1804.25
2226.08	1804.67
2226.32	1795.69
2226.56	1830.76
2226.79	1823.56
2227.03	1756.48
2227.27	1780.27
2227.51	1801.19
2227.74	1801.42
2227.98	1764.04
2228.22	1800.58
2228.46	1792.01
2228.69	1781.58
2228.93	1752.4
2229.17	1811.38
2229.41	1792.54
2229.64	1818.79
2229.88	1833.18
2230.12	1772.71
2230.36	1795.67
2230.6	1802.57
2230.83	1773.83
2231.07	1808.94
2231.31	1802.77
2231.55	1819.17
2231.78	1772.65
2232.02	1794.62
2232.26	1794.99
2232.5	1785.02
2232.73	1780.68
2232.97	1765.98
2233.21	1771.03
2233.45	1792.06
2233.68	1754.76
2233.92	1811.57
2234.16	1794.9
2234.39	1806.41
2234.63	1774.31
2234.87	1786.41
2235.11	1787.15
2235.34	1804.71
2235.58	1749.52
2235.82	1798.92
2236.06	1800.85
2236.29	1807.52
2236.53	1757.78
2236.77	1797.4
2237	1813.47
2237.24	1757.14
2237.48	1782.97
2237.72	1773.95
2237.95	1782.18
2238.19	1781.06
2238.43	1777.04
2238.67	1818.07
2238.9	1778.03
2239.14	1811.59
2239.38	1799.06
2239.61	1785.98
2239.85	1777.35
2240.09	1794.09
2240.33	1791.71
2240.56	1789.4
2240.8	1775.06
2241.04	1791.86
2241.27	1770.86
2241.51	1771.93
2241.75	1780.55
2241.99	1792.97
2242.22	1754.4
2242.46	1788.54
2242.7	1762.32
2242.93	1777.66
2243.17	1808.86
2243.41	1808.8
2243.64	1761.37
2243.88	1794.15
2244.12	1797.79
2244.36	1816.62
2244.59	1811.03
2244.83	1738.64
2245.07	1763.72
2245.3	1799.4
2245.54	1755.66
2245.78	1783.49
2246.01	1784.8
2246.25	1784.25
2246.49	1759.09
2246.72	1775.49
2246.96	1750.13
2247.2	1786.36
2247.43	1804.63
2247.67	1748.99
2247.91	1800.19
2248.14	1767.05
2248.38	1784
2248.62	1759.29
2248.85	1806.51
2249.09	1756.27
2249.33	1778.89
2249.56	1771.26
2249.8	1797.13
2250.04	1772.75
2250.27	1796.41
2250.51	1747.92
2250.75	1753.27
2250.98	1774.67
2251.22	1776.15
2251.46	1754.08
2251.69	1748.17
2251.93	1766.04
2252.17	1817.18
2252.4	1751.2
2252.64	1746.75
2252.88	1745.23
2253.11	1792.17
2253.35	1765.7
2253.59	1798.59
2253.82	1760.3
2254.06	1792
2254.3	1776.23
2254.53	1778.48
2254.77	1745.55
2255.01	1803.43
2255.24	1722.68
2255.48	1737.95
2255.72	1786.32
2255.95	1770.28
2256.19	1746.66
2256.42	1765.94
2256.66	1743.52
2256.9	1752.38
2257.13	1788.74
2257.37	1749.19
2257.61	1763.73
2257.84	1752.62
2258.08	1783.21
2258.32	1738.69
2258.55	1761.57
2258.79	1766.45
2259.02	1728.64
2259.26	1776.39
2259.5	1773.82
2259.73	1766.41
2259.97	1801.73
2260.2	1785.79
2260.44	1773.64
2260.68	1745.31
2260.91	1765.45
2261.15	1741.01
2261.39	1744.43
2261.62	1778.12
2261.86	1740.16
2262.1	1786.9
2262.33	1772.79
2262.57	1752.96
2262.8	1752.27
2263.04	1759.32
2263.28	1754.02
2263.51	1783.07
2263.75	1697.88
2263.98	1733.76
2264.22	1774.51
2264.46	1759.94
2264.69	1778.69
2264.93	1774.45
2265.16	1751.03
2265.4	1726.57
2265.64	1764.15
2265.87	1781.41
2266.11	1767.17
2266.34	1776.59
2266.58	1728.46
2266.81	1751.93
2267.05	1763.91
2267.29	1748.26
2267.52	1765.16
2267.76	1742.96
2267.99	1732.2
2268.23	1745.18
2268.47	1763.01
2268.7	1750.51
2268.94	1759.16
2269.17	1762.28
2269.41	1785.56
2269.65	1743.12
2269.88	1761.76
2270.12	1758.48
2270.35	1727.6
2270.59	1761.59
2270.82	1749.53
2271.06	1715.36
2271.3	1755.89
2271.53	1746.66
2271.77	1771.76
2272	1736.64
2272.24	1741.76
2272.47	1773.52
2272.71	1753.48
2272.95	1761.23
2273.18	1774.73
2273.42	1743.27
2273.65	1756.78
2273.89	1770.28
2274.12	1730.19
2274.36	1752.31
2274.6	1751.44
2274.83	1745.81
2275.07	1742.09
2275.3	1704.89
2275.54	1752.86
2275.77	1758.73
2276.01	1741.45
2276.24	1744.6
2276.48	1741.2
2276.72	1789.55
2276.95	1731.51
2277.18	1740.5
2277.42	1733.23
2277.66	1764.51
2277.89	1762.31
2278.13	1708.31
2278.36	1735.94
2278.6	1768.87
2278.83	1709.47
2279.07	1761.36
2279.3	1738.26
2279.54	1759.29
2279.78	1713.85
2280.01	1728.44
2280.24	1751.93
2280.48	1747.62
2280.72	1755.85
2280.95	1722.92
2281.19	1721.72
2281.42	1728.27
2281.66	1726.14
2281.89	1725.99
2282.13	1785.62
2282.36	1757
2282.6	1738.09
2282.83	1749.96
2283.07	1748.47
2283.3	1743.13
2283.54	1742.68
2283.77	1796.19
2284.01	1760.55
2284.24	1737.28
2284.48	1730.43
2284.71	1751.1
2284.95	1746.51
2285.19	1753.67
2285.42	1762.74
2285.65	1741.71
2285.89	1756.21
2286.12	1732.75
2286.36	1708.06
2286.59	1735.9
2286.83	1715.85
2287.06	1745
2287.3	1744.87
2287.54	1735.95
2287.77	1749.7
2288	1693.08
2288.24	1765.82
2288.47	1736.8
2288.71	1766.4
2288.94	1705.47
2289.18	1689.77
2289.41	1775.9
2289.65	1758.88
2289.88	1730.38
2290.12	1730.63
2290.35	1733.28
2290.59	1718.69
2290.82	1717.75
2291.06	1730.29
2291.29	1753.64
2291.53	1720.45
2291.76	1736.44
2292	1727.22
2292.23	1732.35
2292.47	1696.08
2292.7	1720.49
2292.94	1720.92
2293.17	1747.32
2293.41	1760.17
2293.64	1720.94
2293.88	1726.92
2294.11	1730.89
2294.34	1721.13
2294.58	1698.77
2294.81	1732.24
2295.05	1703.02
2295.28	1743.24
2295.52	1712.19
2295.75	1714.84
2295.99	1723.28
2296.22	1729.82
2296.46	1703.43
2296.69	1706.59
2296.93	1727.67
2297.16	1708.58
2297.39	1744.44
2297.63	1708.2
2297.86	1698.01
2298.1	1689.84
2298.33	1721.26
2298.57	1722.61
2298.8	1715.16
2299.04	1700.1
2299.27	1727.55
2299.51	1728.9
2299.74	1730.18
2299.97	1740.01
2300.21	1717.81
2300.44	1723.62
2300.68	1722.62
2300.91	1728.62
2301.15	1711.56
2301.38	1723.38
2301.61	1729.37
2301.85	1750.74
2302.08	1731.48
2302.32	1732.41
2302.55	1701.37
2302.79	1724.43
2303.02	1708.07
2303.25	1710.94
2303.49	1733.05
2303.72	1710.83
2303.96	1713.77
2304.19	1739.05
2304.43	1744.19
2304.66	1690.41
2304.89	1701.23
2305.13	1731.43
2305.36	1749.16
2305.6	1708.79
2305.83	1727.25
2306.07	1722.57
2306.3	1688.98
2306.53	1675.67
2306.77	1715.38
2307	1679.66
2307.24	1737.64
2307.47	1705.7
2307.7	1721.98
2307.94	1689.88
2308.17	1723.58
2308.41	1724.4
2308.64	1716.53
2308.87	1723.3
2309.11	1712.77
2309.34	1736.23
2309.58	1725.9
2309.81	1707.98
2310.04	1733.68
2310.28	1709.88
2310.51	1713.93
2310.75	1701.41
2310.98	1731.36
2311.21	1700.23
2311.45	1707.58
2311.68	1695.97
2311.92	1685.22
2312.15	1705.87
2312.38	1694.83
2312.62	1728.37
2312.85	1703.94
2313.08	1701.8
2313.32	1713.36
2313.55	1693.31
2313.79	1702.52
2314.02	1694.51
2314.25	1726.9
2314.49	1698.44
2314.72	1708.64
2314.95	1726.7
2315.19	1715.69
2315.42	1696.65
2315.66	1706.84
2315.89	1681.28
2316.12	1710.92
2316.36	1711.43
2316.59	1716.29
2316.82	1671.38
2317.06	1704.95
2317.29	1703.95
2317.52	1720.47
2317.76	1715.75
2317.99	1683.38
2318.23	1694.32
2318.46	1714.99
2318.69	1716.64
2318.93	1709.66
2319.16	1714.22
2319.39	1688.85
2319.63	1716.59
2319.86	1705.79
2320.09	1680.59
2320.33	1718.23
2320.56	1686.45
2320.79	1694.16
2321.03	1672.14
2321.26	1680.12
2321.5	1713.24
2321.73	1713.57
2321.96	1696.57
2322.2	1672.91
2322.43	1738.2
2322.66	1738.66
2322.9	1685.68
2323.13	1665.31
2323.36	1689.56
2323.6	1723.54
2323.83	1706.24
2324.06	1676.4
2324.3	1722.87
2324.53	1684.13
2324.76	1700.49
2325	1713.61
2325.23	1709.22
2325.46	1700.88
2325.7	1708.22
2325.93	1723.33
2326.16	1721.07
2326.4	1722.65
2326.63	1735.79
2326.86	1736.38
2327.09	1805.46
2327.33	1882.22
2327.56	1908.8
2327.79	1974.08
2328.03	2020.98
2328.26	2008.23
2328.49	1915.81
2328.73	1765.46
2328.96	1764.55
2329.19	1767.09
2329.43	1755.19
2329.66	1702.71
2329.89	1712.18
2330.13	1702.48
2330.36	1734.5
2330.59	1703.56
2330.82	1705.35
2331.06	1685.94
2331.29	1680.11
2331.52	1688.9
2331.76	1692.04
2331.99	1700.04
2332.22	1691.79
2332.46	1666.28
2332.69	1703.52
2332.92	1661.86
2333.16	1672.23
2333.39	1708.6
2333.62	1664.1
2333.85	1696.65
2334.09	1692.64
2334.32	1674.13
2334.55	1706.56
2334.79	1685.92
2335.02	1670.28
2335.25	1664.34
2335.48	1691.22
2335.72	1655.55
2335.95	1678.7
2336.18	1686.52
2336.41	1711.47
2336.65	1656.49
2336.88	1681.38
2337.11	1659.2
2337.34	1668.76
2337.58	1696.56
2337.81	1668.61
2338.04	1677.13
2338.28	1672.21
2338.51	1657.72
2338.74	1708.59
2338.97	1669.13
2339.21	1684.58
2339.44	1697.13
2339.67	1694.24
2339.91	1637.48
2340.14	1697.91
2340.37	1690.01
2340.6	1658.02
2340.84	1671.19
2341.07	1682.35
2341.3	1710.68
2341.53	1648.7
2341.77	1666.31
2342	1707.07
2342.23	1677.04
2342.46	1653.74
2342.7	1722.53
2342.93	1683.03
2343.16	1649.38
2343.39	1653.19
2343.63	1626.37
2343.86	1688.61
2344.09	1684.71
2344.32	1687.62
2344.56	1639.81
2344.79	1650.42
2345.02	1685.85
2345.25	1670.4
2345.49	1668.31
2345.72	1667.09
2345.95	1650.37
2346.18	1660.6
2346.41	1684.24
2346.65	1664.01
2346.88	1664.88
2347.11	1650.44
2347.34	1653.17
2347.58	1666.45
2347.81	1682.69
2348.04	1685.61
2348.27	1669.44
2348.5	1668.69
2348.74	1663.09
2348.97	1658.3
2349.2	1673.47
2349.43	1700.96
2349.67	1642.82
2349.9	1674.64
2350.13	1674.75
2350.36	1682.35
2350.59	1691.62
2350.83	1642.68
2351.06	1663.92
2351.29	1669.44
2351.52	1656.09
2351.75	1681.76
2351.99	1682.12
2352.22	1667.83
2352.45	1659.4
2352.68	1655.79
2352.91	1640.47
2353.15	1650.4
2353.38	1643.52
2353.61	1642.04
2353.84	1656.19
2354.07	1649.21
2354.31	1672.1
2354.54	1659.66
2354.77	1655.32
2355	1653.81
2355.23	1677.59
2355.47	1661.29
2355.7	1621.13
2355.93	1661.94
2356.16	1618.89
2356.39	1625.28
2356.63	1658.08
2356.86	1641.11
2357.09	1653.81
2357.32	1651.57
2357.55	1647.49
2357.79	1640.56
2358.02	1679.3
2358.25	1636.29
2358.48	1663.69
2358.71	1655.96
2358.94	1667
2359.18	1651.64
2359.41	1621.13
2359.64	1667.58
2359.87	1647.44
2360.1	1660.45
2360.33	1643.96
2360.57	1643.58
2360.8	1656.48
2361.03	1633.33
2361.26	1669.94
2361.49	1689.45
2361.72	1672.91
2361.96	1665.86
2362.19	1631.31
2362.42	1643.17
2362.65	1664.52
2362.88	1668.88
2363.11	1666.65
2363.34	1677.71
2363.58	1650.01
2363.81	1640.35
2364.04	1665.72
2364.27	1650.39
2364.5	1656.78
2364.73	1639.5
2364.97	1634.53
