#Imported=	16.12.2021 13:58:45
60	139.563
60.5	138.209
61	136.596
61.5	135.18
62	134.559
62.5	135.342
63	137.467
63.5	140.795
64	145.137
64.5	150.014
65	155.341
65.5	161.325
66	168.187
66.5	176.374
67	185.941
67.5	196.467
68	207.502
68.5	218.469
69	228.997
69.5	238.764
70	247.869
70.5	256.404
71	264.499
71.5	272.286
72	279.777
72.5	287.007
73	293.917
73.5	300.206
74	305.669
74.5	309.854
75	312.181
75.5	312.971
76	312.308
76.5	310.721
77	308.711
77.5	306.64
78	304.59
78.5	302.352
79	299.574
79.5	296.106
80	291.808
80.5	286.99
81	282.146
81.5	277.694
82	273.815
82.5	270.493
83	267.456
83.5	264.15
84	260.171
84.5	255.21
85	249.359
85.5	242.754
86	236.065
86.5	229.819
87	224.63
87.5	220.622
88	217.91
88.5	216.299
89	215.095
89.5	213.847
90	212.109
90.5	209.643
91	206.148
91.5	201.914
92	197.171
92.5	192.117
93	187.04
93.5	182.15
94	177.571
94.5	173.263
95	169.225
95.5	165.406
96	161.78
96.5	158.437
97	155.385
97.5	152.656
98	150.272
98.5	148.089
99	145.925
99.5	143.54
100	140.827
100.5	137.7
101	134.26
101.5	130.664
102	127.15
102.5	123.855
103	120.851
103.5	118.159
104	115.695
104.5	113.441
105	111.342
105.5	109.384
106	107.592
106.5	105.927
107	104.334
107.5	102.705
108	100.969
108.5	99.0994
109	97.1331
109.5	95.1696
110	93.3745
110.5	91.8256
111	90.5226
111.5	89.4531
112	88.4743
112.5	87.4549
113	86.2487
113.5	84.8579
114	83.3292
114.5	81.8104
115	80.4719
115.5	79.5981
116	79.1393
116.5	78.9328
117	78.6493
117.5	77.9152
118	76.3096
118.5	73.6465
119	70.3912
119.5	67.0418
120	64.2207
120.5	62.3359
121	61.8763
121.5	62.2529
122	62.9591
122.5	63.4581
123	63.4471
123.5	62.7909
124	61.6776
124.5	60.4685
125	59.3329
125.5	58.2955
126	57.2896
126.5	56.2199
127	55.1307
127.5	54.1872
128	53.6036
128.5	53.4489
129	53.7474
129.5	54.2506
130	54.6094
130.5	54.4966
131	53.8663
131.5	52.7644
132	51.3769
132.5	50.0838
133	49.1763
133.5	48.7937
134	48.8588
134.5	49.2435
135	49.6086
135.5	49.6642
136	49.2017
136.5	48.3697
137	47.3595
137.5	46.5001
138	46.0602
138.5	46.0954
139	46.3572
139.5	46.532
140	46.2643
140.5	45.4577
141	44.2413
141.5	42.995
142	42.0355
142.5	41.5406
143	41.4699
143.5	41.5564
144	41.5013
144.5	41.2334
145	40.8864
145.5	40.7617
146	41.081
146.5	41.9916
147	43.2458
147.5	44.3649
148	44.8875
148.5	44.5341
149	43.3473
149.5	41.4482
150	39.4247
150.5	37.5907
151	36.1606
151.5	35.0595
152	34.1881
152.5	33.4222
153	32.739
153.5	32.2802
154	32.1756
154.5	32.4779
155	33.2185
155.5	34.1222
156	34.9227
156.5	35.4013
157	35.5241
157.5	35.2784
158	34.7534
158.5	34.0739
159	33.3139
159.5	32.5483
160	31.856
160.5	31.3833
161	31.2337
161.5	31.4729
162	32.0158
162.5	32.6721
163	33.2608
163.5	33.6424
164	33.7691
164.5	33.6575
165	33.3983
165.5	32.9878
166	32.3753
166.5	31.5856
167	30.72
167.5	30.0815
168	29.9139
168.5	30.4594
169	31.5827
169.5	32.9903
170	34.1335
170.5	34.6434
171	34.4138
171.5	33.5813
172	32.521
172.5	31.5315
173	30.7803
173.5	30.1774
174	29.585
174.5	28.9617
175	28.4077
175.5	28.191
176	28.5113
176.5	29.3995
177	30.5864
177.5	31.6984
178	32.3369
178.5	32.3211
179	31.6391
179.5	30.4748
180	29.1954
180.5	28.0117
181	27.1099
181.5	26.5382
182	26.3821
182.5	26.5408
183	26.8455
183.5	27.1049
184	27.1457
184.5	26.88
185	26.333
185.5	25.8195
186	25.6465
186.5	26.0317
187	26.9299
187.5	28.2149
188	29.5182
188.5	30.5261
189	31.0165
189.5	31.1007
190	30.8872
190.5	30.536
191	30.2116
191.5	30.0056
192	29.9282
192.5	29.9407
193	29.9726
193.5	29.8979
194	29.5604
194.5	28.7197
195	27.4797
195.5	25.9855
196	24.5602
196.5	23.5288
197	23.245
197.5	23.7454
198	24.6761
198.5	25.6315
199	26.2304
199.5	26.2593
200	25.6782
200.5	24.8482
201	24.2096
201.5	24.1082
202	24.6203
202.5	25.7461
203	27.1465
203.5	28.429
204	29.1237
204.5	29.1722
205	28.5738
205.5	27.518
206	26.3508
206.5	25.4025
207	24.8907
207.5	24.7662
208	24.9524
208.5	25.2292
209	25.4522
209.5	25.5072
210	25.3976
210.5	25.1525
211	24.8046
211.5	24.3819
212	23.8997
212.5	23.4143
213	23.0213
213.5	22.8666
214	22.9637
214.5	23.3092
215	23.8229
215.5	24.3593
216	24.7834
216.5	25.0236
217	25.1157
217.5	25.0838
218	24.9787
218.5	24.8035
219	24.5191
219.5	24.1201
220	23.6508
220.5	23.234
221	23.0033
221.5	23.1334
222	23.6626
222.5	24.5402
223	25.5774
223.5	26.479
224	27.0151
224.5	26.9836
225	26.4287
225.5	25.3977
226	24.1293
226.5	22.9035
227	21.9352
227.5	21.2904
228	20.9736
228.5	20.9704
229	21.1539
229.5	21.4653
230	21.887
230.5	22.4319
231	23.1737
231.5	24.1528
232	25.3858
232.5	26.9002
233	28.5136
233.5	30.0499
234	31.2428
234.5	31.9313
235	31.9271
235.5	31.2585
236	30.2636
236.5	29.3972
237	29.0512
237.5	29.4423
238	30.6871
238.5	32.3673
239	33.9791
239.5	35.0004
240	35.3321
240.5	35.0482
241	34.5848
241.5	34.3801
242	34.89
242.5	35.9698
243	37.1938
243.5	37.98
244	37.9894
244.5	37.0265
245	35.3289
245.5	33.4672
246	32.0615
246.5	31.3336
247	31.2018
247.5	31.4039
248	31.4806
248.5	31.1095
249	30.1394
249.5	28.8935
250	27.6941
250.5	26.8566
251	26.5247
251.5	26.8144
252	27.513
252.5	28.3811
253	29.1275
253.5	29.5725
254	29.5715
254.5	29.1111
255	28.3455
255.5	27.493
256	26.8567
256.5	26.5741
257	26.7011
257.5	26.9878
258	27.1682
258.5	26.929
259	26.1919
259.5	25.118
260	24.1186
260.5	23.5566
261	23.8288
261.5	24.8813
262	26.5263
262.5	28.3578
263	29.8742
263.5	30.7633
264	30.9046
264.5	30.467
265	29.6312
265.5	28.7533
266	28.1397
266.5	28.0805
267	28.5352
267.5	29.4473
268	30.6288
268.5	31.7668
269	32.5241
269.5	32.63
270	32.1403
270.5	31.1213
271	29.8909
271.5	28.7028
272	27.7937
272.5	27.1926
273	26.844
273.5	26.617
274	26.448
274.5	26.3986
275	26.5728
275.5	27.0402
276	27.8366
276.5	28.7047
277	29.3585
277.5	29.5415
278	29.2925
278.5	28.7643
279	28.3101
279.5	28.2557
280	28.8379
280.5	29.7878
281	30.7689
281.5	31.3624
282	31.4232
282.5	30.9496
283	30.204
283.5	29.6114
284	29.509
284.5	29.968
285	30.8855
285.5	32.1576
286	33.558
286.5	34.964
287	36.2548
287.5	37.355
288	38.1175
288.5	38.4044
289	38.1903
289.5	37.429
290	36.3273
290.5	35.1472
291	34.213
291.5	33.6562
292	33.551
292.5	33.8715
293	34.4431
293.5	35.1212
294	35.7056
294.5	36.0418
295	35.9358
295.5	35.3718
296	34.3534
296.5	32.9435
297	31.3977
297.5	29.9781
298	28.9396
298.5	28.3117
299	28.076
299.5	28.021
300	27.9485
300.5	27.666
301	27.162
301.5	26.5265
302	25.9561
302.5	25.5845
303	25.4913
303.5	25.6169
304	25.8257
304.5	25.9643
305	25.9432
305.5	25.7901
306	25.6041
306.5	25.4973
307	25.5386
307.5	25.7249
308	25.9763
308.5	26.2035
309	26.3574
309.5	26.4623
310	26.5691
310.5	26.7142
311	26.8915
311.5	27.0469
312	27.1196
312.5	27.0715
313	26.9626
313.5	26.8774
314	26.89
314.5	26.9891
315	27.1105
315.5	27.1427
316	27.0304
316.5	26.8054
317	26.5911
317.5	26.4913
318	26.5633
318.5	26.7435
319	26.9224
319.5	26.9831
320	26.9399
320.5	26.9063
321	27.0246
321.5	27.3113
322	27.6817
322.5	27.9287
323	27.881
323.5	27.4156
324	26.7712
324.5	26.2861
325	26.3828
325.5	27.1445
326	28.5734
326.5	30.4529
327	32.4108
327.5	34.0957
328	35.3392
328.5	36.1335
329	36.4241
329.5	36.3535
330	36.0277
330.5	35.6281
331	35.4248
331.5	35.742
332	36.7107
332.5	38.1701
333	39.8319
333.5	41.2261
334	41.9928
334.5	41.7453
335	40.684
335.5	39.0773
336	37.3288
336.5	35.7144
337	34.3542
337.5	33.1991
338	32.1317
338.5	31.0534
339	29.9275
339.5	28.7897
340	27.7201
340.5	26.7811
341	26.0591
341.5	25.6333
342	25.5126
342.5	25.7202
343	26.104
343.5	26.4362
344	26.4335
344.5	26.0457
345	25.3314
345.5	24.551
346	24.0451
346.5	24.1322
347	24.8538
347.5	25.8589
348	26.6521
348.5	26.8528
349	26.3093
349.5	25.0637
350	23.6021
350.5	22.3785
351	21.8218
351.5	21.903
352	22.4698
352.5	23.1766
353	23.7716
353.5	24.0733
354	24.1381
354.5	24.0599
355	23.9801
355.5	24.0015
356	24.1841
356.5	24.5453
357	25.061
357.5	25.7075
358	26.3854
358.5	26.9879
359	27.3563
359.5	27.4793
360	27.3912
360.5	27.2004
361	27.0405
361.5	27.0243
362	27.1998
362.5	27.5639
363	28.1436
363.5	28.8733
364	29.6884
364.5	30.4742
365	31.1026
365.5	31.4474
366	31.4886
366.5	31.3543
367	31.2525
367.5	31.3867
368	31.7469
368.5	32.1186
369	32.1658
369.5	31.5847
370	30.2508
370.5	28.4733
371	26.7362
371.5	25.6854
372	25.5899
372.5	26.5403
373	27.9945
373.5	29.4344
374	30.2855
374.5	30.3749
375	29.6845
375.5	28.5203
376	27.3237
376.5	26.3937
377	25.7746
377.5	25.3633
378	24.994
378.5	24.5107
379	23.8539
379.5	23.0587
380	22.2477
380.5	21.5193
381	20.9113
381.5	20.4184
382	20.0709
382.5	19.8874
383	19.925
383.5	20.276
384	20.8948
384.5	21.6954
385	22.5117
385.5	23.2102
386	23.6834
386.5	23.9254
387	23.9661
387.5	23.7932
388	23.4602
388.5	22.9907
389	22.4901
389.5	22.1086
390	22.0112
390.5	22.2577
391	22.7491
391.5	23.2866
392	23.602
392.5	23.5127
393	22.9298
393.5	22.132
394	21.346
394.5	20.7793
395	20.4736
395.5	20.4052
396	20.4433
396.5	20.4879
397	20.4917
397.5	20.4794
398	20.4875
398.5	20.5509
399	20.6813
399.5	20.9013
400	21.2109
400.5	21.5683
401	21.8748
401.5	21.9894
402	21.8223
402.5	21.3721
403	20.8593
403.5	20.5254
404	20.6021
404.5	21.0837
405	21.8479
405.5	22.5725
406	22.964
406.5	22.8194
407	22.322
407.5	21.6714
408	21.0934
408.5	20.6999
409	20.5222
409.5	20.5116
410	20.6066
410.5	20.8145
411	21.1205
411.5	21.4793
412	21.7957
412.5	21.9904
413	22.0342
413.5	21.993
414	22.0043
414.5	22.1934
415	22.5553
415.5	22.9303
416	23.0585
416.5	22.8262
417	22.2397
417.5	21.436
418	20.6766
418.5	20.1557
419	19.944
419.5	19.9352
420	19.9809
420.5	19.9665
421	19.9039
421.5	19.8998
422	20.0514
422.5	20.4086
423	20.9282
423.5	21.461
424	21.8522
424.5	22.011
425	21.9998
425.5	21.9502
426	22.0259
426.5	22.3248
427	22.8855
427.5	23.5659
428	24.2028
428.5	24.6154
429	24.7421
429.5	24.6217
430	24.4584
430.5	24.4203
431	24.6449
431.5	25.0529
432	25.5129
432.5	25.843
433	25.9768
433.5	25.9648
434	26.0327
434.5	26.3868
435	27.1782
435.5	28.2835
436	29.5165
436.5	30.6481
437	31.5594
437.5	32.2145
438	32.6568
438.5	32.9514
439	33.0423
439.5	32.8802
440	32.4767
440.5	31.9298
441	31.4884
441.5	31.3742
442	31.7511
442.5	32.4745
443	33.3307
443.5	34.0249
444	34.4299
444.5	34.5626
445	34.5728
445.5	34.518
446	34.2842
446.5	33.7218
447	32.6758
447.5	31.1803
448	29.5833
448.5	28.4101
449	28.0552
449.5	28.5009
450	29.5476
450.5	30.6135
451	31.2588
451.5	31.1434
452	30.4212
452.5	29.3303
453	28.2708
453.5	27.5604
454	27.4075
454.5	27.7109
455	28.2999
455.5	28.9566
456	29.4336
456.5	29.5424
457	29.167
457.5	28.4299
458	27.5063
458.5	26.7042
459	26.249
459.5	26.2805
460	26.6331
460.5	27.0996
461	27.4125
461.5	27.4192
462	27.0404
462.5	26.3422
463	25.5112
463.5	24.747
464	24.2303
464.5	24.0083
465	24.0915
465.5	24.293
466	24.4496
466.5	24.3985
467	24.1261
467.5	23.7005
468	23.3101
468.5	23.1215
469	23.2835
469.5	23.6781
470	24.1314
470.5	24.4139
471	24.402
471.5	24.0181
472	23.2927
472.5	22.3751
473	21.4137
473.5	20.5834
474	20.0034
474.5	19.795
475	19.8237
475.5	19.959
476	20.0473
476.5	20.037
477	20.005
477.5	20.147
478	20.6164
478.5	21.5106
479	22.6109
479.5	23.5841
480	23.976
480.5	23.7339
481	22.9179
481.5	21.805
482	20.7365
482.5	19.9656
483	19.574
483.5	19.5238
484	19.8148
484.5	20.3322
485	20.996
485.5	21.6241
486	22.0126
486.5	21.975
487	21.5021
487.5	20.8017
488	20.1589
488.5	19.8067
489	19.778
489.5	19.9282
490	19.958
490.5	19.69
491	19.2244
491.5	18.8969
492	19.0622
492.5	19.8119
493	20.9382
493.5	22.0581
494	22.7805
494.5	22.9123
495	22.4403
495.5	21.6926
496	20.9217
496.5	20.3038
497	19.8371
497.5	19.5087
498	19.3087
498.5	19.2705
499	19.4666
499.5	19.8141
500	20.1945
500.5	20.4331
501	20.4556
501.5	20.2766
502	20.0606
502.5	19.9649
503	20.0813
503.5	20.3343
504	20.6224
504.5	20.8409
505	20.959
505.5	20.9709
506	20.8817
506.5	20.6973
507	20.4087
507.5	20.094
508	19.9021
508.5	20.0759
509	20.6407
509.5	21.521
510	22.4449
510.5	23.0786
511	23.1253
511.5	22.5332
512	21.5035
512.5	20.2948
513	19.218
513.5	18.4456
514	18.0691
514.5	17.9801
515	18.1573
515.5	18.5791
516	19.1755
516.5	19.8668
517	20.4915
517.5	20.8993
518	20.9042
518.5	20.5543
519	19.9495
519.5	19.3208
520	18.9425
520.5	19.0532
521	19.7287
521.5	20.8145
522	22.0348
522.5	22.9531
523	23.2175
523.5	22.4717
524	20.9836
524.5	19.1139
525	17.4807
525.5	16.5709
526	16.6991
526.5	17.574
527	18.7139
527.5	19.6155
528	20.0495
528.5	20.0494
529	19.8739
529.5	19.8673
530	20.2295
530.5	20.9016
531	21.6032
531.5	21.9688
532	21.81
532.5	21.2119
533	20.4439
533.5	19.8832
534	19.7604
534.5	20.0955
535	20.6005
535.5	20.934
536	20.8528
536.5	20.3965
537	19.8363
537.5	19.6124
538	20.0313
538.5	21.2089
539	22.6527
539.5	23.8687
540	24.4246
540.5	24.2916
541	23.6137
541.5	22.8257
542	22.2356
542.5	22.0226
543	22.0048
543.5	21.9582
544	21.6469
544.5	21.039
545	20.2045
545.5	19.3522
546	18.653
546.5	18.2962
547	18.3362
547.5	18.8036
548	19.6995
548.5	20.7834
549	21.783
549.5	22.3599
550	22.3669
550.5	21.7486
551	20.8085
551.5	19.9269
552	19.4878
552.5	19.4805
553	19.7418
553.5	19.9573
554	19.9003
554.5	19.5171
555	19.0256
555.5	18.7449
556	19.0357
556.5	19.9198
557	21.2145
557.5	22.5197
558	23.3712
558.5	23.3841
559	22.4695
559.5	20.9511
560	19.1956
560.5	17.6806
561	16.7069
561.5	16.5536
562	17.0395
562.5	17.9844
563	19.1395
563.5	20.2415
564	21.1209
564.5	21.6872
565	21.9319
565.5	21.7548
566	21.1749
566.5	20.2139
567	18.932
567.5	17.623
568	16.6202
568.5	16.3044
569	16.7505
569.5	17.921
570	19.3677
570.5	20.5709
571	20.9598
571.5	20.5009
572	19.4062
572.5	18.1737
573	17.311
573.5	17.0235
574	17.1312
574.5	17.2358
575	16.9786
575.5	16.3351
576	15.5527
576.5	15.1094
577	15.289
577.5	16.1899
578	17.6072
578.5	19.0794
579	20.2191
579.5	20.8535
580	21.0768
580.5	21.0602
581	21.007
581.5	20.9646
582	20.8698
582.5	20.6402
583	20.2101
583.5	19.5932
584	18.8835
584.5	18.1817
585	17.5846
585.5	17.1499
586	16.9627
586.5	16.9948
587	17.2343
587.5	17.6226
588	18.0297
588.5	18.3411
589	18.4905
589.5	18.5042
590	18.4721
590.5	18.5436
591	18.8272
591.5	19.3828
592	20.0564
592.5	20.6236
593	20.7866
593.5	20.412
594	19.4407
594.5	18.1683
595	17.0088
595.5	16.5705
596	17.0227
596.5	18.3804
597	20.3906
597.5	22.4921
598	24.2064
598.5	25.2315
599	25.6161
599.5	25.532
600	25.4079
600.5	25.5641
601	26.2685
601.5	27.403
602	28.7815
602.5	30.0854
603	31.0662
603.5	31.5254
604	31.5426
604.5	31.2945
605	30.9418
605.5	30.6199
606	30.3486
606.5	30.0697
607	29.7078
607.5	29.2097
608	28.5852
608.5	27.8927
609	27.1813
609.5	26.4912
610	25.8476
610.5	25.316
611	24.9557
611.5	24.8659
612	25.1301
612.5	25.6659
613	26.3999
613.5	27.2112
614	28.0336
614.5	28.8521
615	29.6443
615.5	30.312
616	30.5921
616.5	30.2925
617	29.2032
617.5	27.391
618	25.2608
618.5	23.3637
619	22.2119
619.5	22.0356
620	22.9714
620.5	24.4569
621	25.981
621.5	26.9706
622	27.1809
622.5	26.4555
623	25.0142
623.5	23.2639
624	21.6812
624.5	20.6527
625	20.3789
625.5	20.9392
626	21.9686
626.5	23.1784
627	24.2856
627.5	25.1857
628	25.8633
628.5	26.3803
629	26.7382
629.5	26.8079
630	26.5777
630.5	26.1197
631	25.6702
631.5	25.4949
632	25.7849
632.5	26.4608
633	27.2315
633.5	27.7177
634	27.72
634.5	27.2567
635	26.5434
635.5	25.9816
636	25.8912
636.5	26.4263
637	27.3978
637.5	28.5024
638	29.3105
638.5	29.542
639	28.9655
639.5	27.8885
640	26.6899
640.5	25.8169
641	25.4453
641.5	25.5576
642	25.844
642.5	25.9603
643	25.6471
643.5	24.9825
644	24.195
644.5	23.6153
645	23.4162
645.5	23.6608
646	24.2597
646.5	24.9927
647	25.6614
647.5	26.0846
648	26.1707
648.5	25.8525
649	25.3507
649.5	24.9759
650	25.1503
650.5	25.9659
651	27.3202
651.5	28.7314
652	29.6646
652.5	29.6159
653	28.6409
653.5	27.0625
654	25.3202
654.5	23.8302
655	22.7787
655.5	22.2113
656	22.0304
656.5	22.2959
657	23.0261
657.5	24.1357
658	25.4182
658.5	26.4738
659	26.9783
659.5	26.7058
660	25.9253
660.5	24.9364
661	24.0217
661.5	23.2298
662	22.4484
662.5	21.5674
663	20.6577
663.5	20.0705
664	20.1043
664.5	20.9517
665	22.489
665.5	24.1638
666	25.4111
666.5	25.8838
667	25.674
667.5	25.0699
668	24.5503
668.5	24.3407
669	24.4187
669.5	24.4675
670	24.2071
670.5	23.5222
671	22.5796
671.5	21.603
672	20.7625
672.5	20.0611
673	19.4482
673.5	18.9013
674	18.5409
674.5	18.5905
675	19.0715
675.5	19.8547
676	20.5293
676.5	20.7079
677	20.0743
677.5	18.8732
678	17.5424
678.5	16.6778
679	16.5093
679.5	17.0123
680	17.8141
680.5	18.4575
681	18.6643
681.5	18.5326
682	18.3588
682.5	18.4739
683	18.8848
683.5	19.3425
684	19.3546
684.5	18.6879
685	17.347
685.5	15.8077
686	14.6865
686.5	14.6002
687	15.5283
687.5	17.0802
688	18.5884
688.5	19.4828
689	19.5394
689.5	18.9938
690	18.4503
690.5	18.4623
691	19.212
691.5	20.4478
692	21.6579
692.5	22.3008
693	22.067
693.5	20.8539
694	19.1084
694.5	17.2654
695	15.8325
695.5	15.092
696	15.2797
696.5	16.1858
697	17.4673
697.5	18.6496
698	19.3585
698.5	19.3851
699	18.7415
699.5	17.77
700	16.8057
700.5	16.1662
701	15.9801
701.5	16.3262
702	16.9957
702.5	17.7746
703	18.3885
703.5	18.6741
704	18.5544
704.5	18.1473
705	17.716
705.5	17.5262
706	17.6678
706.5	18.0352
707	18.3904
707.5	18.5205
708	18.3717
708.5	18.0749
709	17.857
709.5	17.8441
710	17.9528
710.5	17.9764
711	17.6954
711.5	17.1427
712	16.5052
712.5	16.0785
713	15.9814
713.5	16.201
714	16.5721
714.5	16.9158
715	17.1513
715.5	17.3115
716	17.4559
716.5	17.6151
717	17.7806
717.5	17.953
718	18.1756
718.5	18.49
719	18.8987
719.5	19.2962
720	19.5403
720.5	19.4978
721	19.2542
721.5	19.0008
722	19.0012
722.5	19.292
723	19.7242
723.5	19.9187
724	19.5651
724.5	18.4408
725	16.7503
725.5	14.9012
726	13.4178
726.5	12.6057
727	12.6108
727.5	13.458
728	14.8215
728.5	16.4642
729	18.0667
729.5	19.3715
730	20.1196
730.5	20.3015
731	20.018
731.5	19.4009
732	18.7011
732.5	18.0313
733	17.4372
733.5	16.915
734	16.5234
734.5	16.3641
735	16.5091
735.5	16.9938
736	17.5853
736.5	18.0005
737	17.9102
737.5	17.3231
738	16.3998
738.5	15.527
739	15.0248
739.5	15.0876
740	15.5228
740.5	16.0151
741	16.1781
741.5	15.8963
742	15.1946
742.5	14.2791
743	13.4498
743.5	12.9806
744	13.0373
744.5	13.6323
745	14.7854
745.5	16.2297
746	17.6755
746.5	18.7162
747	19.1477
747.5	18.8473
748	17.9559
748.5	16.8354
749	15.8098
749.5	15.0781
750	14.6475
750.5	14.4632
751	14.3861
751.5	14.4013
752	14.5589
752.5	14.8573
753	15.2381
753.5	15.55
754	15.6804
754.5	15.5939
755	15.4542
755.5	15.4463
756	15.7244
756.5	16.1724
757	16.5637
757.5	16.6099
758	16.2377
758.5	15.5293
759	14.8196
759.5	14.4066
760	14.5489
760.5	15.1053
761	15.8628
761.5	16.5237
762	16.902
762.5	16.9099
763	16.6198
763.5	16.1929
764	15.7838
764.5	15.5192
765	15.4576
765.5	15.6353
766	15.9541
766.5	16.3404
767	16.7237
767.5	17.0763
768	17.3881
768.5	17.631
769	17.7374
769.5	17.5569
770	17.0776
770.5	16.3724
771	15.6703
771.5	15.244
772	15.3089
772.5	15.8611
773	16.6599
773.5	17.4188
774	17.9083
774.5	18.0658
775	17.8869
775.5	17.528
776	17.0535
776.5	16.5211
777	16.0255
777.5	15.7456
778	15.8743
778.5	16.4816
779	17.5424
779.5	18.6793
780	19.4913
780.5	19.556
781	18.9444
781.5	17.9055
782	16.9814
782.5	16.6245
783	17.1512
783.5	18.3194
784	19.6584
784.5	20.525
785	20.6239
785.5	19.9098
786	18.6786
786.5	17.4736
787	16.717
787.5	16.5499
788	16.8023
788.5	17.2275
789	17.5649
789.5	17.7493
790	17.8791
790.5	18.1459
791	18.6906
791.5	19.4986
792	20.3459
792.5	20.8691
793	20.7461
793.5	19.8581
794	18.1975
794.5	16.3078
795	14.7327
795.5	14.0446
796	14.2526
796.5	15.1227
797	16.0285
797.5	16.4554
798	16.1184
798.5	15.356
799	14.6451
799.5	14.4766
800	14.8128
800.5	15.3564
801	15.6107
801.5	15.3431
802	14.6122
802.5	13.8774
803	13.5639
803.5	13.9967
804	14.9017
804.5	15.8729
805	16.3857
805.5	16.2512
806	15.4874
806.5	14.4689
807	13.6649
807.5	13.544
808	14.1891
808.5	15.4301
809	16.9004
809.5	18.0853
810	18.631
810.5	18.4247
811	17.7941
811.5	17.151
812	16.9073
812.5	17.1852
813	17.9034
813.5	18.6343
814	19.0172
814.5	18.7641
815	18.0208
815.5	17.0257
816	16.1466
816.5	15.6139
817	15.5346
817.5	15.7213
818	15.9334
818.5	15.9163
819	15.634
819.5	15.1647
820	14.7113
820.5	14.4484
821	14.4637
821.5	14.6658
822	14.8866
822.5	14.9707
823	14.9187
823.5	14.8511
824	15.005
824.5	15.5057
825	16.3803
825.5	17.4263
826	18.3109
826.5	18.6658
827	18.3993
827.5	17.6869
828	16.9212
828.5	16.5707
829	16.9157
829.5	17.951
830	19.2153
830.5	20.2094
831	20.5678
831.5	20.3095
832	19.6212
832.5	18.8962
833	18.3331
833.5	17.9655
834	17.6586
834.5	17.3722
835	17.2135
835.5	17.3281
836	17.8114
836.5	18.4535
837	18.9085
837.5	18.7412
838	17.9776
838.5	16.8673
839	15.9211
839.5	15.5278
840	15.8695
840.5	16.7284
841	17.6899
841.5	18.3649
842	18.6038
842.5	18.4468
843	18.0116
843.5	17.5319
844	17.1605
844.5	17.0261
845	17.1507
845.5	17.5359
846	18.0424
846.5	18.4841
847	18.6115
847.5	18.3417
848	17.672
848.5	16.7106
849	15.719
849.5	14.9375
850	14.5589
850.5	14.6048
851	15.052
851.5	15.6633
852	16.2136
852.5	16.4875
853	16.5177
853.5	16.4421
854	16.5038
854.5	16.8323
855	17.4154
855.5	18.0235
856	18.4229
856.5	18.4442
857	18.2358
857.5	18.0212
858	18.029
858.5	18.2362
859	18.4585
859.5	18.4267
860	18.0608
860.5	17.468
861	16.9738
861.5	16.8071
862	17.056
862.5	17.4151
863	17.5869
863.5	17.3785
864	16.95
864.5	16.5914
865	16.5308
865.5	16.6829
866	16.6643
866.5	16.0897
867	14.8508
867.5	13.2178
868	11.8497
868.5	11.2933
869	11.7119
869.5	12.6819
870	13.6859
870.5	14.3555
871	14.7364
871.5	15.1506
872	15.8735
872.5	16.8916
873	17.8682
873.5	18.4368
874	18.4057
874.5	17.9675
875	17.4704
875.5	17.1312
876	16.845
876.5	16.3466
877	15.3488
877.5	14.0091
878	12.6946
878.5	11.947
879	12.0235
879.5	13.0497
880	14.6996
880.5	16.5642
881	18.2231
881.5	19.4063
882	19.9341
882.5	19.6919
883	18.9131
883.5	17.8237
884	16.7638
884.5	15.963
885	15.561
885.5	15.4737
886	15.6156
886.5	15.9875
887	16.5514
887.5	17.2738
888	17.9942
888.5	18.5041
889	18.6243
889.5	18.4197
890	18.116
890.5	17.9737
891	18.0469
891.5	18.197
892	18.1402
892.5	17.7459
893	17.0518
893.5	16.313
894	15.7699
894.5	15.543
895	15.494
895.5	15.4439
896	15.269
896.5	15.0434
897	14.9182
897.5	15.0514
898	15.4307
898.5	15.9772
899	16.5304
899.5	16.9816
900	17.2633
900.5	17.4163
901	17.4962
901.5	17.5872
902	17.7671
902.5	18.0819
903	18.4874
903.5	18.8466
904	18.9653
904.5	18.7584
905	18.2893
905.5	17.7506
906	17.4059
906.5	17.4076
907	17.7419
907.5	18.1642
908	18.43
908.5	18.4143
909	18.2084
909.5	18.034
910	18.103
910.5	18.4611
911	18.9556
911.5	19.2577
912	19.0789
912.5	18.3314
913	17.29
913.5	16.391
914	16.0734
914.5	16.4966
915	17.6405
915.5	18.9694
916	20.0272
916.5	20.4449
917	20.327
917.5	19.9181
918	19.5767
918.5	19.4611
919	19.5165
919.5	19.504
920	19.2845
920.5	18.8845
921	18.5301
921.5	18.3844
922	18.4345
922.5	18.4692
923	18.2739
923.5	17.8591
924	17.4567
924.5	17.4485
925	17.9335
925.5	18.774
926	19.5735
926.5	19.9688
927	19.7774
927.5	19.1319
928	18.3278
928.5	17.5865
929	16.9994
929.5	16.5809
930	16.4152
930.5	16.5269
931	16.9231
931.5	17.4199
932	17.6959
932.5	17.4365
933	16.6535
933.5	15.6662
934	14.9746
934.5	14.8726
935	15.3747
935.5	16.2473
936	17.0934
936.5	17.7183
937	18.1637
937.5	18.6081
938	19.1973
938.5	19.9241
939	20.6855
939.5	21.3151
940	21.7147
940.5	21.7988
941	21.5156
941.5	20.9569
942	20.2253
942.5	19.5071
943	18.9411
943.5	18.6235
944	18.4994
944.5	18.5288
945	18.7455
945.5	19.1703
946	19.8254
946.5	20.5845
947	21.2086
947.5	21.4217
948	21.1682
948.5	20.5781
949	19.8429
949.5	19.1528
950	18.543
950.5	17.9925
951	17.5346
951.5	17.3665
952	17.7035
952.5	18.5682
953	19.8458
953.5	21.1343
954	22.1201
954.5	22.5666
955	22.6058
955.5	22.365
956	22.0011
956.5	21.6419
957	21.4174
957.5	21.4568
958	21.813
958.5	22.4221
959	22.934
959.5	22.9947
960	22.3719
960.5	21.3804
961	20.5614
961.5	20.498
962	21.2946
962.5	22.6919
963	23.9582
963.5	24.5827
964	24.3149
964.5	23.6709
965	23.1324
965.5	23.0464
966	23.3358
966.5	23.8042
967	24.2701
967.5	24.7468
968	25.3508
968.5	26.0271
969	26.5221
969.5	26.4145
970	25.6572
970.5	24.481
971	23.5008
971.5	23.1958
972	23.7766
972.5	24.7599
973	25.5592
973.5	25.6487
974	25.2226
974.5	24.7374
975	24.8103
975.5	25.6304
976	27.0804
976.5	28.6305
977	29.8492
977.5	30.4207
978	30.4644
978.5	30.1632
979	29.76
979.5	29.5144
980	29.6481
980.5	30.2912
981	31.3499
981.5	32.6497
982	33.8792
982.5	34.8463
983	35.4499
983.5	35.8563
984	36.1669
984.5	36.3937
985	36.4823
985.5	36.3951
986	36.2964
986.5	36.4799
987	37.3487
987.5	38.8592
988	40.7467
988.5	42.537
989	43.8719
989.5	44.6245
990	44.9787
990.5	45.2842
991	45.8066
991.5	46.6111
992	47.6184
992.5	48.7275
993	49.8225
993.5	50.8245
994	51.5998
994.5	52.0336
995	51.9366
995.5	51.252
996	50.1147
996.5	48.7171
997	47.3974
997.5	46.3921
998	45.8695
998.5	45.6641
999	45.5558
999.5	45.229
1000	44.509
1000.5	43.3352
1001	41.9338
1001.5	40.5941
1002	39.602
1002.5	38.9415
1003	38.4586
1003.5	37.8942
1004	37.1148
1004.5	36.1665
1005	35.2872
1005.5	34.6887
1006	34.4931
1006.5	34.5149
1007	34.4923
1007.5	34.1526
1008	33.5153
1008.5	32.7336
1009	32.1127
1009.5	31.884
1010	32.224
1010.5	33.0493
1011	34.1395
1011.5	35.235
1012	36.0982
1012.5	36.5913
1013	36.6154
1013.5	36.2632
1014	35.5412
1014.5	34.4807
1015	33.1628
1015.5	31.6817
1016	30.2874
1016.5	29.2567
1017	29.0033
1017.5	29.533
1018	30.8024
1018.5	32.52
1019	34.2006
1019.5	35.4056
1020	35.9232
1020.5	35.8717
1021	35.545
1021.5	35.4357
1022	35.875
1022.5	37.0341
1023	38.5721
1023.5	40.0773
1024	41.0939
1024.5	41.4686
1025	41.2324
1025.5	40.7853
1026	40.4923
1026.5	40.7025
1027	41.37
1027.5	42.3162
1028	43.1495
1028.5	43.5048
1029	43.084
1029.5	41.9406
1030	40.4237
1030.5	38.9796
1031	37.9714
1031.5	37.5166
1032	37.57
1032.5	37.8061
1033	37.9913
1033.5	37.922
1034	37.5042
1034.5	36.597
1035	35.2575
1035.5	33.7093
1036	32.3758
1036.5	31.5921
1037	31.4543
1037.5	31.6771
1038	31.6751
1038.5	30.9931
1039	29.6425
1039.5	28.087
1040	26.9043
1040.5	26.3113
1041	26.1115
1041.5	25.8182
1042	25.1217
1042.5	24.0368
1043	22.8826
1043.5	21.9914
1044	21.5682
1044.5	21.5686
1045	21.8818
1045.5	22.4872
1046	23.2573
1046.5	24.0257
1047	24.4871
1047.5	24.4745
1048	23.9534
1048.5	23.2006
1049	22.5993
1049.5	22.4548
1050	22.7392
1050.5	23.2836
1051	23.8615
1051.5	24.2376
1052	24.1675
1052.5	23.3519
1053	21.7277
1053.5	19.2485
1054	16.252
1054.5	13.168
1055	10.3884
1055.5	8.04732
1056	6.2254
1056.5	5.22389
1057	5.24976
1057.5	6.71967
1058	9.64142
1058.5	13.3826
1059	17.1201
1059.5	20.0512
1060	21.8698
1060.5	22.4504
1061	22.3344
1061.5	21.7674
1062	20.9245
1062.5	20.0247
1063	19.3951
1063.5	19.42
1064	20.1696
1064.5	21.3893
1065	22.3664
1065.5	22.5456
1066	21.639
1066.5	20.2206
1067	18.9657
1067.5	18.4776
1068	18.745
1068.5	19.4193
1069	19.8897
1069.5	19.8425
1070	19.2512
1070.5	18.5939
1071	18.2706
1071.5	18.4931
1072	19.0297
1072.5	19.5291
1073	19.642
1073.5	19.3062
1074	18.6742
1074.5	18.155
1075	18.0479
1075.5	18.5189
1076	19.2796
1076.5	20.0054
1077	20.4007
1077.5	20.4842
1078	20.4761
1078.5	20.6583
1079	21.1163
1079.5	21.7473
1080	22.2738
1080.5	22.5281
1081	22.5171
1081.5	22.4836
1082	22.6677
1082.5	23.1747
1083	23.9007
1083.5	24.6896
1084	25.4111
1084.5	26.0612
1085	26.6678
1085.5	27.2063
1086	27.5453
1086.5	27.5284
1087	27.1911
1087.5	26.6761
1088	26.2416
1088.5	26.0135
1089	25.9468
1089.5	25.8105
1090	25.4628
1090.5	24.9594
1091	24.581
1091.5	24.5417
1092	24.7841
1092.5	24.9831
1093	24.729
1093.5	23.9268
1094	22.7867
1094.5	21.7377
1095	21.1109
1095.5	21.006
1096	21.2835
1096.5	21.6761
1097	22.0898
1097.5	22.5643
1098	23.1444
1098.5	23.7765
1099	24.2779
1099.5	24.4788
1100	24.2524
1100.5	23.7264
1101	23.0245
1101.5	22.3169
1102	21.746
1102.5	21.4885
1103	21.6287
1103.5	22.1101
1104	22.7671
1104.5	23.2871
1105	23.4817
1105.5	23.378
1106	23.2797
1106.5	23.4923
1107	24.0641
1107.5	24.7095
1108	24.9343
1108.5	24.5098
1109	23.5889
1109.5	22.7114
1110	22.3702
1110.5	22.7499
1111	23.5682
1111.5	24.2833
1112	24.4378
1112.5	23.9918
1113	23.1984
1113.5	22.3983
1114	21.8288
1114.5	21.5466
1115	21.4896
1115.5	21.5128
1116	21.5018
1116.5	21.3123
1117	20.8476
1117.5	20.0659
1118	19.2059
1118.5	18.5887
1119	18.5832
1119.5	19.0741
1120	19.7236
1120.5	19.9687
1121	19.6103
1121.5	18.8056
1122	18.1114
1122.5	17.9393
1123	18.4487
1123.5	19.1634
1124	19.5889
1124.5	19.3455
1125	18.6312
1125.5	17.8331
1126	17.4051
1126.5	17.4473
1127	17.8352
1127.5	18.2477
1128	18.4929
1128.5	18.4726
1129	18.2672
1129.5	17.8982
1130	17.3529
1130.5	16.6576
1131	15.8884
1131.5	15.2599
1132	14.9927
1132.5	15.3408
1133	16.1984
1133.5	17.3491
1134	18.397
1134.5	18.9965
1135	18.9245
1135.5	18.2695
1136	17.3979
1136.5	16.711
1137	16.4523
1137.5	16.5756
1138	16.8988
1138.5	17.1777
1139	17.3512
1139.5	17.5071
1140	17.7677
1140.5	18.1681
1141	18.5882
1141.5	18.8825
1142	18.9768
1142.5	19.037
1143	19.2812
1143.5	19.8694
1144	20.6304
1144.5	21.2558
1145	21.4083
1145.5	21.062
1146	20.408
1146.5	19.87
1147	19.693
1147.5	19.8864
1148	20.051
1148.5	19.9285
1149	19.5574
1149.5	19.3366
1150	19.7043
1150.5	20.7067
1151	21.8888
1151.5	22.4907
1152	22.1074
1152.5	20.8537
1153	19.4184
1153.5	18.6047
1154	18.8275
1154.5	19.9924
1155	21.5891
1155.5	23.2654
1156	24.8307
1156.5	26.2227
1157	27.1874
1157.5	27.4355
1158	26.6685
1158.5	24.9042
1159	22.785
1159.5	20.9995
1160	20.0807
1160.5	20.0162
1161	20.5562
1161.5	21.1406
1162	21.4201
1162.5	21.1673
1163	20.543
1163.5	19.7497
1164	19.0966
1164.5	18.853
1165	19.2621
1165.5	20.2043
1166	21.2885
1166.5	21.903
1167	21.719
1167.5	20.725
1168	19.3719
1168.5	18.3002
1169	17.8761
1169.5	18.0037
1170	18.2166
1170.5	17.98
1171	17.0971
1171.5	15.7446
1172	14.4399
1172.5	13.8034
1173	14.2412
1173.5	15.7723
1174	17.796
1174.5	19.5662
1175	20.3697
1175.5	19.9933
1176	18.5163
1176.5	16.756
1177	15.4149
1177.5	15.0255
1178	15.3287
1178.5	15.951
1179	16.4429
1179.5	16.6332
1180	16.5699
1180.5	16.4866
1181	16.5403
1181.5	16.8258
1182	17.2736
1182.5	17.8262
1183	18.4001
1183.5	18.8735
1184	19.0715
1184.5	18.8923
1185	18.403
1185.5	17.7922
1186	17.3517
1186.5	17.2463
1187	17.4223
1187.5	17.5742
1188	17.4439
1188.5	16.9441
1189	16.2695
1189.5	15.7154
1190	15.4991
1190.5	15.6115
1191	15.8856
1191.5	16.0572
1192	16.0581
1192.5	16.0121
1193	16.1248
1193.5	16.5237
1194	17.1151
1194.5	17.6705
1195	17.948
1195.5	17.9253
1196	17.7314
1196.5	17.5297
1197	17.3782
1197.5	17.2147
1198	16.9406
1198.5	16.5602
1199	16.1757
1199.5	15.9312
1200	15.8801
1200.5	15.9563
1201	15.9822
1201.5	15.838
1202	15.4774
1202.5	15.0186
1203	14.6338
1203.5	14.535
1204	14.834
1204.5	15.6063
1205	16.5814
1205.5	17.46
1206	17.9088
1206.5	17.9414
1207	17.7059
1207.5	17.4627
1208	17.3224
1208.5	17.1453
1209	16.6782
1209.5	15.9125
1210	15.1648
1210.5	14.9191
1211	15.4515
1211.5	16.6397
1212	17.782
1212.5	18.1906
1213	17.5545
1213.5	16.3371
1214	15.269
1214.5	14.9323
1215	15.4242
1215.5	16.5303
1216	17.6334
1216.5	18.3356
1217	18.4142
1217.5	18.0068
1218	17.2752
1218.5	16.4349
1219	15.6448
1219.5	15.0283
1220	14.5758
1220.5	14.2247
1221	13.8994
1221.5	13.605
1222	13.4814
1222.5	13.6932
1223	14.2216
1223.5	14.8994
1224	15.4124
1224.5	15.5893
1225	15.4488
1225.5	15.3678
1226	15.6799
1226.5	16.5317
1227	17.678
1227.5	18.7928
1228	19.5433
1228.5	19.7803
1229	19.3342
1229.5	18.2994
1230	16.8384
1230.5	15.3257
1231	14.2437
1231.5	13.9958
1232	14.6315
1232.5	15.6683
1233	16.5118
1233.5	16.7787
1234	16.6138
1234.5	16.5415
1235	16.9346
1235.5	17.7436
1236	18.4697
1236.5	18.5992
1237	17.8848
1237.5	16.6475
1238	15.4824
1238.5	14.8892
1239	14.89
1239.5	15.3167
1240	15.9946
1240.5	16.7475
1241	17.5082
1241.5	18.1883
1242	18.7224
1242.5	19.1085
1243	19.4579
1243.5	19.8522
1244	20.2172
1244.5	20.3285
1245	19.9682
1245.5	19.0814
1246	18.0642
1246.5	17.354
1247	17.1837
1247.5	17.3825
1248	17.5911
1248.5	17.476
1249	16.9963
1249.5	16.3812
1250	16.017
1250.5	16.106
1251	16.618
1251.5	17.2617
1252	17.7291
1252.5	17.8072
1253	17.4991
1253.5	16.9598
1254	16.5694
1254.5	16.5987
1255	17.2027
1255.5	18.122
1256	19.0128
1256.5	19.5009
1257	19.4839
1257.5	19.0735
1258	18.6602
1258.5	18.525
1259	18.8993
1259.5	19.6544
1260	20.644
1260.5	21.6403
1261	22.4488
1261.5	22.9712
1262	23.2944
1262.5	23.6
1263	24.0788
1263.5	24.7316
1264	25.3875
1264.5	25.6893
1265	25.4605
1265.5	24.7232
1266	23.7124
1266.5	22.6748
1267	21.6412
1267.5	20.4485
1268	18.9484
1268.5	17.1641
1269	15.5791
1269.5	14.7418
1270	15.1722
1270.5	16.708
1271	19.0063
1271.5	21.2972
1272	22.8458
1272.5	22.9788
1273	21.8757
1273.5	19.9785
1274	18.0307
1274.5	16.7676
1275	16.6342
1275.5	17.5942
1276	19.0452
1276.5	20.4307
1277	21.4918
1277.5	22.335
1278	23.2776
1278.5	24.6333
1279	26.7469
1279.5	30.411
1280	36.1474
1280.5	44.9072
1281	56.6792
1281.5	70.0094
1282	82.2024
1282.5	90.1488
1283	91.3859
1283.5	84.3674
1284	72.1721
1284.5	57.3874
1285	43.309
1285.5	32.0417
1286	24.9172
1286.5	21.4894
1287	20.3768
1287.5	20.4303
1288	20.4411
1288.5	19.8989
1289	18.7636
1289.5	17.5826
1290	17.0041
1290.5	17.3171
1291	18.1504
1291.5	18.8485
1292	18.8645
1292.5	18.1952
1293	17.3884
1293.5	17.2883
1294	18.3
1294.5	20.0889
1295	21.7367
1295.5	22.3646
1296	21.711
1296.5	20.2095
1297	18.6136
1297.5	17.6195
1298	17.4116
1298.5	17.8629
1299	18.4917
1299.5	18.9622
1300	19.0578
1300.5	18.7929
1301	18.3127
1301.5	17.9298
1302	17.913
1302.5	18.5255
1303	19.5287
1303.5	20.5305
1304	20.9092
1304.5	20.5081
1305	19.4503
1305.5	18.3007
1306	17.5816
1306.5	17.6624
1307	18.3025
1307.5	19.0858
1308	19.5546
1308.5	19.5923
1309	19.2324
1309.5	18.6541
1310	18.0583
1310.5	17.6147
1311	17.4399
1311.5	17.5774
1312	18.0654
1312.5	18.7181
1313	19.3559
1313.5	19.7885
1314	19.9724
1314.5	19.9245
1315	19.7008
1315.5	19.3306
1316	18.7966
1316.5	18.1755
1317	17.5863
1317.5	17.1934
1318	16.9952
1318.5	16.9433
1319	16.9635
1319.5	17.0339
1320	17.2007
1320.5	17.4357
1321	17.584
1321.5	17.3855
1322	16.8464
1322.5	16.1954
1323	15.9432
1323.5	16.4302
1324	17.7322
1324.5	19.3195
1325	20.5807
1325.5	21.0389
1326	20.8306
1326.5	20.3452
1327	20.0459
1327.5	20.0289
1328	20.0938
1328.5	19.9317
1329	19.466
1329.5	18.8342
1330	18.3308
1330.5	18.0844
1331	17.9961
1331.5	17.8485
1332	17.6151
1332.5	17.5464
1333	17.93
1333.5	18.9165
1334	20.1074
1334.5	20.9406
1335	20.9474
1335.5	20.2873
1336	19.4237
1336.5	18.9242
1337	18.858
1337.5	18.9572
1338	18.8878
1338.5	18.6422
1339	18.5292
1339.5	18.9248
1340	19.8439
1340.5	20.9038
1341	21.5645
1341.5	21.541
1342	20.8051
1342.5	19.7868
1343	18.8333
1343.5	18.1402
1344	17.6553
1344.5	17.2744
1345	16.8902
1345.5	16.5022
1346	16.2613
1346.5	16.3017
1347	16.6809
1347.5	17.2885
1348	17.8543
1348.5	18.1801
1349	18.3199
1349.5	18.5523
1350	19.1566
1350.5	20.0284
1351	20.849
1351.5	21.1878
1352	21.0157
1352.5	20.5576
1353	20.17
1353.5	19.9558
1354	19.8055
1354.5	19.5774
1355	19.3244
1355.5	19.2967
1356	19.508
1356.5	19.7024
1357	19.3849
1357.5	18.3914
1358	16.9197
1358.5	15.7193
1359	15.388
1359.5	16.2832
1360	17.9465
1360.5	19.7789
1361	21.1092
1361.5	21.7246
1362	21.741
1362.5	21.497
1363	21.3291
1363.5	21.3846
1364	21.5626
1364.5	21.6635
1365	21.5198
1365.5	21.1911
1366	20.7874
1366.5	20.4403
1367	20.2436
1367.5	20.3606
1368	20.9616
1368.5	22.0548
1369	23.4496
1369.5	24.5727
1370	24.8825
1370.5	23.977
1371	22.5347
1371.5	21.2476
1372	20.7473
1372.5	20.9877
1373	21.5792
1373.5	21.8979
1374	21.7057
1374.5	21.0199
1375	20.1965
1375.5	19.5059
1376	19.1938
1376.5	19.273
1377	19.7517
1377.5	20.5986
1378	21.7297
1378.5	23.0617
1379	24.288
1379.5	25.0285
1380	24.8865
1380.5	24.2675
1381	23.9296
1381.5	24.8549
1382	27.0153
1382.5	29.5377
1383	31.7133
1383.5	34.5958
1384	42.4057
1384.5	58.9403
1385	85.428
1385.5	117.018
1386	143.379
1386.5	154.441
1387	144.874
1387.5	119.69
1388	87.7511
1388.5	59.7725
1389	40.1711
1389.5	30.3731
1390	25.5905
1390.5	23.0654
1391	21.2839
1391.5	20.0701
1392	19.5771
1392.5	19.4607
1393	19.2412
1393.5	18.6975
1394	18.0553
1394.5	17.4718
1395	16.9383
1395.5	16.4013
1396	16.0354
1396.5	16.2248
1397	17.0542
1397.5	18.3543
1398	19.5868
1398.5	20.3573
1399	20.4389
1399.5	20.2258
1400	20.0266
1400.5	20.0865
1401	20.4419
1401.5	21.134
1402	22.158
1402.5	23.4111
1403	24.709
1403.5	25.6884
1404	25.9761
1404.5	25.1036
1405	23.531
1405.5	21.9667
1406	21.4057
1406.5	22.2495
1407	24.3908
1407.5	26.6891
1408	28.1025
1408.5	27.9932
1409	26.9339
1409.5	25.5778
1410	24.424
1410.5	23.3853
1411	22.2363
1411.5	21.0371
1412	20.1551
1412.5	20.0326
1413	20.4352
1413.5	20.7139
1414	20.1749
1414.5	18.9579
1415	17.6272
1415.5	17.0814
1416	17.4975
1416.5	18.5773
1417	19.593
1417.5	20.0535
1418	19.7182
1418.5	18.9723
1419	18.1543
1419.5	17.4785
1420	16.9659
1420.5	16.6142
1421	16.4372
1421.5	16.4091
1422	16.4733
1422.5	16.4688
1423	16.2674
1423.5	15.8345
1424	15.4594
1424.5	15.4515
1425	16.0382
1425.5	17.0473
1426	18.1852
1426.5	19.1187
1427	19.7878
1427.5	20.2294
1428	20.4962
1428.5	20.4644
1429	19.89
1429.5	18.9893
1430	18.1687
1430.5	17.9514
1431	18.4331
1431.5	19.3155
1432	19.8907
1432.5	19.8179
1433	19.0742
1433.5	18.1781
1434	17.5036
1434.5	17.1567
1435	16.9572
1435.5	16.8451
1436	16.9192
1436.5	17.305
1437	17.9494
1437.5	18.4608
1438	18.501
1438.5	17.8871
1439	17.032
1439.5	16.4615
1440	16.5392
1440.5	17.0923
1441	17.7253
1441.5	17.9998
1442	17.8434
1442.5	17.5588
1443	17.5569
1443.5	17.9876
1444	18.6675
1444.5	19.1344
1445	19.0644
1445.5	18.4808
1446	17.6645
1446.5	16.8865
1447	16.3217
1447.5	16.0261
1448	16.1411
1448.5	16.6634
1449	17.5348
1449.5	18.416
1450	18.9142
1450.5	18.8668
1451	18.5792
1451.5	18.4873
1452	18.8812
1452.5	19.3449
1453	19.3088
1453.5	18.3303
1454	16.7788
1454.5	15.3279
1455	14.6125
1455.5	14.5736
1456	14.8482
1456.5	14.9813
1457	14.8946
1457.5	14.8574
1458	15.0726
1458.5	15.4915
1459	15.874
1459.5	16.0788
1460	16.2258
1460.5	16.5496
1461	17.0984
1461.5	17.7201
1462	18.1657
1462.5	18.3813
1463	18.4886
1463.5	18.6002
1464	18.6089
1464.5	18.2469
1465	17.49
1465.5	16.6341
1466	16.1878
1466.5	16.4206
1467	17.3004
1467.5	18.1342
1468	18.4643
1468.5	18.1844
1469	17.7119
1469.5	17.5022
1470	17.6603
1470.5	17.9206
1471	17.9541
1471.5	17.7263
1472	17.4778
1472.5	17.533
1473	17.8378
1473.5	18.1135
1474	17.9938
1474.5	17.4347
1475	16.6937
1475.5	16.1548
1476	16.0044
1476.5	16.337
1477	16.9844
1477.5	17.8114
1478	18.6104
1478.5	19.0697
1479	18.767
1479.5	17.6112
1480	16.1405
1480.5	15.1755
1481	15.2825
1481.5	16.4823
1482	18.1386
1482.5	19.3492
1483	19.7024
1483.5	19.3024
1484	18.6639
1484.5	18.1168
1485	17.6884
1485.5	17.288
1486	16.9401
1486.5	16.7873
1487	16.9043
1487.5	17.1923
1488	17.424
1488.5	17.4827
1489	17.4481
1489.5	17.4631
1490	17.5072
1490.5	17.3899
1491	16.9387
1491.5	16.1423
1492	15.3288
1492.5	14.7458
1493	14.5077
1493.5	14.4939
1494	14.6033
1494.5	14.8254
1495	15.2128
1495.5	15.8011
1496	16.4394
1496.5	16.9701
1497	17.3211
1497.5	17.6037
1498	17.9521
1498.5	18.4296
1499	18.9424
1499.5	19.3337
1500	19.4738
1500.5	19.2667
1501	18.6005
1501.5	17.6006
1502	16.3786
1502.5	15.1432
1503	14.0684
1503.5	13.179
1504	12.3618
1504.5	11.5474
1505	10.87
1505.5	10.5844
1506	10.8385
1506.5	11.6417
1507	12.6633
1507.5	13.6785
1508	14.6411
1508.5	15.6465
1509	16.7034
1509.5	17.5819
1510	17.9709
1510.5	17.623
1511	16.9808
1511.5	16.3088
1512	15.6733
1512.5	14.9237
1513	14.0059
1513.5	13.124
1514	12.5967
1514.5	12.7442
1515	13.4187
1515.5	14.2536
1516	14.8764
1516.5	15.1633
1517	15.1946
1517.5	15.1906
1518	15.2816
1518.5	15.453
1519	15.5838
1519.5	15.557
1520	15.437
1520.5	15.3808
1521	15.6285
1521.5	16.2042
1522	16.7957
1522.5	16.936
1523	16.3235
1523.5	15.0792
1524	13.6764
1524.5	12.6159
1525	12.0586
1525.5	11.8242
1526	11.6351
1526.5	11.4466
1527	11.5251
1527.5	12.2407
1528	13.6123
1528.5	15.3197
1529	16.7172
1529.5	17.2104
1530	16.7482
1530.5	15.6489
1531	14.5164
1531.5	13.9918
1532	14.2156
1532.5	14.8837
1533	15.4166
1533.5	15.1131
1534	13.8626
1534.5	12.1218
1535	10.5748
1535.5	9.96831
1536	10.481
1536.5	11.5745
1537	12.6452
1537.5	13.1922
1538	13.0403
1538.5	12.6391
1539	12.3696
1539.5	12.4685
1540	12.9232
1540.5	13.3222
1541	13.2903
1541.5	12.6527
1542	11.5361
1542.5	10.5898
1543	10.4724
1543.5	11.4646
1544	13.3849
1544.5	15.4457
1545	16.6953
1545.5	16.7391
1546	15.6764
1546.5	14.0327
1547	12.494
1547.5	11.4427
1548	10.9463
1548.5	10.9515
1549	11.2707
1549.5	11.7074
1550	11.9862
1550.5	11.8102
1551	11.0878
1551.5	10.0237
1552	9.15509
1552.5	9.0689
1553	9.87599
1553.5	11.0608
1554	11.6158
1554.5	10.4801
1555	7.54594
1555.5	3.81486
1556	0.75451
1556.5	0
1557	2.0192
1557.5	5.63572
1558	9.42571
1558.5	12.1173
1559	13.0537
1559.5	13.1788
1560	13.3709
1560.5	14.1939
1561	15.6754
1561.5	17.1626
1562	18.1376
1562.5	18.4502
1563	18.2445
1563.5	17.8454
1564	17.3996
1564.5	16.8189
1565	15.9746
1565.5	14.9243
1566	14.0882
1566.5	13.9716
1567	14.8441
1567.5	16.5832
1568	18.5398
1568.5	19.9705
1569	20.4306
1569.5	19.8563
1570	18.6326
1570.5	17.1573
1571	15.7837
1571.5	14.7511
1572	14.148
1572.5	13.9344
1573	13.9265
1573.5	13.7267
1574	12.9902
1574.5	11.7495
1575	10.3644
1575.5	9.48656
1576	9.79139
1576.5	11.1714
1577	13.1639
1577.5	15.0972
1578	16.2567
1578.5	16.4873
1579	16.0447
1579.5	15.2302
1580	14.2728
1580.5	13.2786
1581	12.3386
1581.5	11.6477
1582	11.4894
1582.5	11.9842
1583	12.9377
1583.5	13.881
1584	14.398
1584.5	14.4229
1585	14.2535
1585.5	14.267
1586	14.6259
1586.5	15.1077
1587	15.3877
1587.5	15.297
1588	14.8597
1588.5	14.242
1589	13.5227
1589.5	12.6821
1590	11.7698
1590.5	11.0837
1591	11.0445
1591.5	11.7468
1592	12.9324
1592.5	14.0211
1593	14.3608
1593.5	13.8435
1594	12.8336
1594.5	11.828
1595	11.2095
1595.5	10.9861
1596	10.9326
1596.5	10.8695
1597	10.854
1597.5	11.1147
1598	11.8811
1598.5	13.1879
1599	14.7554
1599.5	16.16
1600	17.0834
1600.5	17.3629
1601	17.0559
1601.5	16.4965
1602	15.8978
1602.5	15.331
1603	14.7045
1603.5	13.8178
1604	12.6568
1604.5	11.4029
1605	10.4065
1605.5	10.0734
1606	10.5349
1606.5	11.5208
1607	12.6136
1607.5	13.3862
1608	13.6853
1608.5	13.581
1609	13.302
1609.5	13.0463
1610	12.9524
1610.5	13.1458
1611	13.7728
1611.5	14.8455
1612	16.0151
1612.5	16.7898
1613	16.7394
1613.5	15.6676
1614	13.9897
1614.5	12.3632
1615	11.1974
1615.5	10.6471
1616	10.6434
1616.5	11.0426
1617	11.7442
1617.5	12.6052
1618	13.3204
1618.5	13.5979
1619	13.3996
1619.5	13.1061
1620	13.227
1620.5	13.8605
1621	14.632
1621.5	14.9065
1622	14.2553
1622.5	13.0876
1623	12.0999
1623.5	11.8226
1624	12.3718
1624.5	13.2305
1625	13.7965
1625.5	13.8478
1626	13.4759
1626.5	13.0033
1627	12.7465
1627.5	12.7862
1628	13.0095
1628.5	13.1604
1629	13.0027
1629.5	12.4763
1630	11.8043
1630.5	11.4249
1631	11.5863
1631.5	12.2016
1632	12.9418
1632.5	13.3746
1633	13.3806
1633.5	13.0904
1634	12.6274
1634.5	12.0368
1635	11.3801
1635.5	10.9586
1636	11.1705
1636.5	12.2534
1637	13.9859
1637.5	15.6126
1638	16.3732
1638.5	16.049
1639	15.0013
1639.5	13.988
1640	13.5486
1640.5	13.9357
1641	15.0135
1641.5	16.2819
1642	17.2701
1642.5	17.5851
1643	16.9924
1643.5	15.6718
1644	14.2147
1644.5	13.0856
1645	12.5236
1645.5	12.4333
1646	12.5046
1646.5	12.5029
1647	12.3622
1647.5	12.1419
1648	11.9645
1648.5	11.948
1649	12.1737
1649.5	12.5387
1650	12.7306
1650.5	12.5151
1651	11.9214
1651.5	11.3952
1652	11.6547
1652.5	12.8281
1653	14.4756
1653.5	15.8022
1654	16.1985
1654.5	15.7874
1655	15.1906
1655.5	14.9438
1656	15.0047
1656.5	14.8955
1657	14.2481
1657.5	13.1132
1658	12.1686
1658.5	12.0142
1659	12.7788
1659.5	14.1255
1660	15.3224
1660.5	15.5615
1661	14.5986
1661.5	12.6212
1662	10.2029
1662.5	8.21641
1663	7.38761
1663.5	8.15099
1664	10.3051
1664.5	13.1434
1665	15.7892
1665.5	17.5372
1666	17.9538
1666.5	17.1545
1667	15.8797
1667.5	14.7283
1668	14.0653
1668.5	13.8902
1669	13.7864
1669.5	13.3912
1670	12.6485
1670.5	11.8003
1671	11.217
1671.5	11.0994
1672	11.4411
1672.5	12.0327
1673	12.6418
1673.5	13.1747
1674	13.6084
1674.5	13.9246
1675	14.0665
1675.5	14.0144
1676	13.8217
1676.5	13.5947
1677	13.4428
1677.5	13.3868
1678	13.4009
1678.5	13.4999
1679	13.8147
1679.5	14.4183
1680	15.1979
1680.5	15.8238
1681	15.7997
1681.5	15.0509
1682	14.0167
1682.5	13.2689
1683	13.2144
1683.5	13.6823
1684	14.0761
1684.5	13.9299
1685	13.2902
1685.5	12.6568
1686	12.474
1686.5	12.8178
1687	13.3959
1687.5	13.7135
1688	13.6174
1688.5	13.2246
1689	12.7628
1689.5	12.4569
1690	12.4142
1690.5	12.675
1691	13.2212
1691.5	14.0025
1692	14.8713
1692.5	15.6625
1693	16.238
1693.5	16.5054
1694	16.531
1694.5	16.4413
1695	16.3624
1695.5	16.381
1696	16.4827
1696.5	16.5374
1697	16.4293
1697.5	16.1304
1698	15.6943
1698.5	15.1947
1699	14.6293
1699.5	13.9591
1700	13.232
1700.5	12.6512
1701	12.403
1701.5	12.5392
1702	12.9204
1702.5	13.2613
1703	13.4112
1703.5	13.4255
1704	13.4216
1704.5	13.4255
1705	13.3425
1705.5	13.0989
1706	12.7832
1706.5	12.6903
1707	12.9632
1707.5	13.4749
1708	13.8817
1708.5	13.7828
1709	13.1768
1709.5	12.43
1710	11.9565
1710.5	11.8957
1711	11.9268
1711.5	11.6461
1712	10.8703
1712.5	9.83782
1713	9.12085
1713.5	8.98397
1714	9.35998
1714.5	9.99407
1715	10.7
1715.5	11.5447
1716	12.6178
1716.5	13.7362
1717	14.4145
1717.5	14.3561
1718	13.7197
1718.5	13.1142
1719	13.4346
1719.5	14.716
1720	16.3086
1720.5	17.3043
1721	16.9668
1721.5	15.4741
1722	13.6186
1722.5	12.3028
1723	11.9347
1723.5	12.1746
1724	12.4336
1724.5	12.3621
1725	12.0271
1725.5	11.9128
1726	12.3499
1726.5	13.2222
1727	14.1482
1727.5	14.7275
1728	14.9184
1728.5	14.9115
1729	14.9155
1729.5	14.9113
1730	14.6743
1730.5	14.0395
1731	13.0028
1731.5	11.7315
1732	10.5289
1732.5	9.69599
1733	9.45738
1733.5	9.95825
1734	11.1038
1734.5	12.566
1735	13.952
1735.5	14.8908
1736	15.1415
1736.5	14.7877
1737	13.9694
1737.5	12.9143
1738	11.9594
1738.5	11.3949
1739	11.3258
1739.5	11.6343
1740	12.0539
1740.5	12.4573
1741	12.867
1741.5	13.2813
1742	13.5335
1742.5	13.3801
1743	12.8558
1743.5	12.3541
1744	12.3327
1744.5	12.871
1745	13.5593
1745.5	13.937
1746	13.8217
1746.5	13.5122
1747	13.3304
1747.5	13.1827
1748	12.7451
1748.5	11.801
1749	10.6746
1749.5	9.87233
1750	9.73009
1750.5	10.0878
1751	10.5297
1751.5	10.8886
1752	11.2257
1752.5	11.6532
1753	12.0811
1753.5	12.2376
1754	11.9441
1754.5	11.2305
1755	10.3623
1755.5	9.71559
1756	9.66088
1756.5	10.4639
1757	12.0042
1757.5	13.4525
1758	13.98
1758.5	13.2649
1759	11.8221
1759.5	10.7815
1760	10.7361
1760.5	11.4212
1761	11.7785
1761.5	11.2182
1762	10.1815
1762.5	9.51418
1763	9.80827
1763.5	10.7488
1764	11.5648
1764.5	11.7677
1765	11.4992
1765.5	11.2107
1766	11.037
1766.5	10.8237
1767	10.4229
1767.5	9.98386
1768	9.89845
1768.5	10.4215
1769	11.4628
1769.5	12.732
1770	13.8923
1770.5	14.7108
1771	15.0035
1771.5	14.6167
1772	13.6223
1772.5	12.3162
1773	11.0489
1773.5	10.1574
1774	9.91397
1774.5	10.453
1775	11.7417
1775.5	13.4317
1776	14.6908
1776.5	14.8773
1777	13.9613
1777.5	12.542
1778	11.6449
1778.5	11.8624
1779	13.0886
1779.5	14.6762
1780	15.6938
1780.5	15.7444
1781	14.9628
1781.5	13.7891
1782	12.7844
1782.5	12.3049
1783	12.2944
1783.5	12.4305
1784	12.3471
1784.5	12.0543
1785	11.8753
1785.5	12.0519
1786	12.506
1786.5	12.7913
1787	12.5682
1787.5	11.9078
1788	11.2297
1788.5	10.889
1789	10.7382
1789.5	10.4778
1790	9.99035
1790.5	9.53819
1791	9.53929
1791.5	10.0914
1792	10.8926
1792.5	11.4985
1793	11.8192
1793.5	12.1155
1794	12.6615
1794.5	13.5077
1795	14.363
1795.5	14.8618
1796	14.7917
1796.5	14.1785
1797	13.2127
1797.5	12.2284
1798	11.5564
1798.5	11.4189
1799	11.7299
1799.5	11.9094
1800	11.3762
1800.5	10.0862
1801	8.78347
1801.5	8.55445
1802	9.84293
1802.5	12.1994
1803	14.4159
1803.5	15.3322
1804	14.8533
1804.5	13.7743
1805	13.0537
1805.5	12.971
1806	13.0146
1806.5	12.6169
1807	11.6156
1807.5	10.481
1808	9.86405
1808.5	9.95928
1809	10.3762
1809.5	10.5102
1810	10.2022
1810.5	9.79444
1811	9.79291
1811.5	10.4552
1812	11.3152
1812.5	11.5883
1813	10.78
1813.5	9.20003
1814	7.8518
1814.5	7.48638
1815	8.14742
1815.5	9.21161
1816	9.84303
1816.5	9.88763
1817	9.84233
1817.5	10.3421
1818	11.4561
1818.5	12.5243
1819	12.9241
1819.5	12.4457
1820	11.4069
1820.5	10.4489
1821	9.96888
1821.5	10.134
1822	10.9452
1822.5	12.1923
1823	13.4815
1823.5	14.301
1824	14.208
1824.5	13.2625
1825	12.0479
1825.5	11.1753
1826	10.9388
1826.5	10.9852
1827	10.7281
1827.5	9.89312
1828	8.61087
1828.5	7.39595
1829	6.80349
1829.5	7.13825
1830	8.38509
1830.5	10.1623
1831	11.7203
1831.5	12.5366
1832	12.4884
1832.5	11.9137
1833	11.4865
1833.5	11.6147
1834	12.2491
1834.5	12.912
1835	12.9825
1835.5	12.3295
1836	11.3823
1836.5	10.8098
1837	11.095
1837.5	11.9724
1838	12.7681
1838.5	12.7984
1839	11.8206
1839.5	10.5333
1840	9.86238
1840.5	10.3823
1841	11.9436
1841.5	13.6858
1842	14.8509
1842.5	15.0488
1843	14.2797
1843.5	12.9223
1844	11.3941
1844.5	10.01
1845	8.9734
1845.5	8.27267
1846	7.78019
1846.5	7.47742
1847	7.53692
1847.5	8.28539
1848	9.74001
1848.5	11.5295
1849	12.9765
1849.5	13.3618
1850	12.7521
1850.5	11.8298
1851	11.3308
1851.5	11.5809
1852	12.0526
1852.5	11.9475
1853	10.8126
1853.5	8.94188
1854	7.45411
1854.5	7.27842
1855	8.51434
1855.5	10.255
1856	11.2611
1856.5	11.1122
1857	10.202
1857.5	9.28814
1858	8.91113
1858.5	8.91512
1859	8.96078
1859.5	8.91878
1860	9.02135
1860.5	9.43167
1861	9.91866
1861.5	10.0751
1862	9.66735
1862.5	9.03067
1863	8.73069
1863.5	9.13468
1864	10.1726
1864.5	11.2591
1865	11.7813
1865.5	11.4416
1866	10.4098
1866.5	9.23236
1867	8.48204
1867.5	8.45068
1868	9.09785
1868.5	10.0858
1869	10.9703
1869.5	11.4866
1870	11.5171
1870.5	11.0275
1871	10.1994
1871.5	9.3309
1872	8.75
1872.5	8.67368
1873	8.96041
1873.5	9.28638
1874	9.42774
1874.5	9.39308
1875	9.37901
1875.5	9.4644
1876	9.53575
1876.5	9.44859
1877	9.28211
1877.5	9.31099
1878	9.72989
1878.5	10.5349
1879	11.5389
1879.5	12.4968
1880	13.2512
1880.5	13.6778
1881	13.6582
1881.5	13.2649
1882	12.7607
1882.5	12.4557
1883	12.5136
1883.5	12.7934
1884	13.0414
1884.5	13.0861
1885	12.861
1885.5	12.3581
1886	11.6143
1886.5	10.761
1887	10.0913
1887.5	9.98204
1888	10.3874
1888.5	10.9128
1889	11.0845
1889.5	10.6675
1890	9.99209
1890.5	9.50903
1891	9.518
1891.5	10.0443
1892	10.817
1892.5	11.5417
1893	11.9409
1893.5	11.7329
1894	10.9061
1894.5	9.85434
1895	9.15367
1895.5	9.2796
1896	10.1882
1896.5	11.3032
1897	12.1102
1897.5	12.4245
1898	12.4315
1898.5	12.3526
1899	12.1166
1899.5	11.528
1900	10.6157
1900.5	9.83798
1901	9.57339
1901.5	9.85533
1902	10.3628
1902.5	10.7612
1903	11.1022
1903.5	11.644
1904	12.504
1904.5	13.3071
1905	13.5009
1905.5	12.8531
1906	11.674
1906.5	10.6849
1907	10.1866
1907.5	9.92606
1908	9.41645
1908.5	8.41752
1909	7.35822
1909.5	6.81881
1910	7.07686
1910.5	7.82748
1911	8.35743
1911.5	8.34794
1912	8.03088
1912.5	7.99041
1913	8.43284
1913.5	8.93741
1914	9.00506
1914.5	8.57631
1915	8.33795
1915.5	9.0057
1916	10.6429
1916.5	12.4966
1917	13.3154
1917.5	12.5879
1918	10.7385
1918.5	8.80234
1919	7.88346
1919.5	8.12858
1920	9.00733
1920.5	9.84597
1921	10.1807
1921.5	10.0641
1922	9.77445
1922.5	9.54208
1923	9.41441
1923.5	9.25808
1924	8.99685
1924.5	8.73745
1925	8.74248
1925.5	9.19739
1926	9.90653
1926.5	10.4292
1927	10.3647
1927.5	9.68116
1928	8.81321
1928.5	8.16548
1929	7.89891
1929.5	7.89077
1930	7.93486
1930.5	8.03318
1931	8.29009
1931.5	8.69711
1932	8.96391
1932.5	8.82443
1933	8.32815
1933.5	7.95451
1934	8.28761
1934.5	9.33666
1935	10.6413
1935.5	11.5924
1936	11.9249
1936.5	11.9262
1937	11.9264
1937.5	11.9752
1938	11.7295
1938.5	10.9402
1939	9.79974
1939.5	8.88681
1940	8.8618
1940.5	9.68312
1941	10.7672
1941.5	11.4081
1942	11.2777
1942.5	10.7772
1943	10.4598
1943.5	10.5645
1944	10.8608
1944.5	10.8476
1945	10.3724
1945.5	9.73753
1946	9.49154
1946.5	9.97488
1947	10.8944
1947.5	11.724
1948	12.0785
1948.5	12.009
1949	11.945
1949.5	12.1214
1950	12.4181
1950.5	12.4769
1951	12.1367
1951.5	11.5278
1952	10.871
1952.5	10.2951
1953	9.80543
1953.5	9.4798
1954	9.51777
1954.5	10.0775
1955	10.9192
1955.5	11.4661
1956	11.2651
1956.5	10.3004
1957	9.08493
1957.5	8.09964
1958	7.3184
1958.5	6.39076
1959	5.21301
1959.5	4.42
1960	4.79111
1960.5	6.58443
1961	9.09752
1961.5	10.9236
1962	11.2557
1962.5	10.2232
1963	8.74435
1963.5	7.86103
1964	7.88584
1964.5	8.58003
1965	9.49129
1965.5	10.2593
1966	10.7525
1966.5	10.9254
1967	10.79
1967.5	10.4929
1968	10.2901
1968.5	10.3254
1969	10.5646
1969.5	10.8187
1970	10.9173
1970.5	10.8107
1971	10.5116
1971.5	10.062
1972	9.61825
1972.5	9.43932
1973	9.75459
1973.5	10.5374
1974	11.2838
1974.5	11.4511
1975	10.9209
1975.5	10.1683
1976	9.99677
1976.5	10.6088
1977	11.5047
1977.5	11.911
1978	11.5525
1978.5	11.0721
1979	11.1267
1979.5	11.8035
1980	12.4275
1980.5	12.3137
1981	11.5838
1981.5	11.0046
1982	11.4059
1982.5	12.6543
1983	13.841
1983.5	14.1084
1984	13.2632
1984.5	12.0953
1985	11.5045
1985.5	11.7952
1986	12.5763
1986.5	13.0339
1987	12.7319
1987.5	11.7655
1988	10.5582
1988.5	9.59041
1989	9.0449
1989.5	8.8988
1990	9.0279
1990.5	9.26167
1991	9.4524
1991.5	9.60565
1992	9.87786
1992.5	10.4906
1993	11.4278
1993.5	12.3696
1994	12.9196
1994.5	12.8417
1995	12.2777
1995.5	11.5401
1996	10.8157
1996.5	10.1806
1997	9.75281
1997.5	9.69714
1998	10.0484
1998.5	10.5794
1999	10.9047
1999.5	10.9948
2000	11.2132
2000.5	11.9423
2001	13.1163
2001.5	14.0971
2002	14.391
2002.5	13.9648
2003	13.206
2003.5	12.602
2004	12.3732
2004.5	12.5729
2005	13.1417
2005.5	13.7502
2006	13.8567
2006.5	13.0724
2007	11.516
2007.5	9.9969
2008	9.33959
2008.5	9.74838
2009	10.8338
2009.5	11.941
2010	12.6717
2010.5	12.9229
2011	12.6684
2011.5	11.9488
2012	11.135
2012.5	10.7258
2013	10.9973
2013.5	11.741
2014	12.3399
2014.5	12.4575
2015	12.1701
2015.5	11.6892
2016	11.0681
2016.5	10.3084
2017	9.62837
2017.5	9.42572
2018	9.89959
2018.5	10.6244
2019	11.1179
2019.5	11.2858
2020	11.557
2020.5	12.212
2021	12.8326
2021.5	12.6364
2022	11.1869
2022.5	9.2697
2023	8.06641
2023.5	8.17437
2024	9.16036
2024.5	9.85716
2025	9.7238
2025.5	9.12253
2026	8.86741
2026.5	9.39534
2027	10.2323
2027.5	10.6825
2028	10.3649
2028.5	9.48531
2029	8.6119
2029.5	8.06592
2030	7.89981
2030.5	8.01394
2031	8.24327
2031.5	8.46169
2032	8.62163
2032.5	8.88639
2033	9.59302
2033.5	10.8169
2034	12.1368
2034.5	12.7302
2035	12.0943
2035.5	10.7205
2036	9.50934
2036.5	9.04647
2037	8.97473
2037.5	8.51375
2038	7.55105
2038.5	6.78801
2039	7.18993
2039.5	8.53736
2040	9.79305
2040.5	10.0157
2041	9.22152
2041.5	8.53977
2042	8.73626
2042.5	9.66869
2043	10.4808
2043.5	10.5305
2044	10.0136
2044.5	9.43176
2045	9.05721
2045.5	8.70819
2046	8.24344
2046.5	7.92097
2047	8.24339
2047.5	9.45921
2048	11.0386
2048.5	12.2033
2049	12.3871
2049.5	11.5835
2050	10.5253
2050.5	9.88551
2051	10.0122
2051.5	10.8108
2052	11.7666
2052.5	12.4335
2053	12.5638
2053.5	12.1034
2054	11.2177
2054.5	10.182
2055	9.31681
2055.5	8.94388
2056	9.17984
2056.5	9.74004
2057	10.1867
2057.5	10.1766
2058	9.71874
2058.5	9.20152
2059	8.93957
2059.5	9.02255
2060	9.35811
2060.5	9.85681
2061	10.5471
2061.5	11.3662
2062	11.9392
2062.5	11.7363
2063	10.619
2063.5	9.02304
2064	7.84065
2064.5	7.77726
2065	8.68177
2065.5	9.87163
2066	10.5755
2066.5	10.4611
2067	9.85564
2067.5	9.22978
2068	8.94895
2068.5	9.1516
2069	9.66054
2069.5	10.2037
2070	10.4899
2070.5	10.3294
2071	9.88411
2071.5	9.46086
2072	9.29347
2072.5	9.38649
2073	9.51075
2073.5	9.50187
2074	9.3461
2074.5	9.12028
2075	8.91272
2075.5	8.80974
2076	8.91476
2076.5	9.27538
2077	9.74855
2077.5	10.1034
2078	10.3028
2078.5	10.5382
2079	10.9942
2079.5	11.3938
2080	11.2323
2080.5	10.2514
2081	8.8149
2081.5	7.7481
2082	7.46815
2082.5	7.87021
2083	8.61279
2083.5	9.48338
2084	10.3584
2084.5	10.9056
2085	10.6647
2085.5	9.72816
2086	8.9975
2086.5	9.28419
2087	10.5038
2087.5	11.3702
2088	10.8523
2088.5	9.22662
2089	7.70925
2089.5	7.35468
2090	7.62686
2090.5	7.48928
2091	6.54736
2091.5	5.56214
2092	5.54461
2092.5	6.4146
2093	7.28605
2093.5	7.37777
2094	7.04151
2094.5	7.16259
2095	8.05217
2095.5	9.12063
2096	9.43046
2096.5	8.94158
2097	8.34251
2097.5	8.32933
2098	8.83464
2098.5	9.06216
2099	8.54451
2099.5	7.54407
2100	6.9535
2100.5	7.3062
2101	8.32892
2101.5	9.28304
2102	9.49542
2102.5	9.05116
2103	8.55283
2103.5	8.59131
2104	9.39954
2104.5	10.5727
2105	11.4246
2105.5	11.4467
2106	10.5704
2106.5	9.36517
2107	8.59685
2107.5	8.60831
2108	9.15238
2108.5	9.53192
2109	9.35945
2109.5	8.84163
2110	8.46897
2110.5	8.55526
2111	8.83201
2111.5	8.92094
2112	8.69047
2112.5	8.31725
2113	8.04384
2113.5	7.94878
2114	8.11505
2114.5	8.76597
2115	10.0061
2115.5	11.4001
2116	12.1874
2116.5	11.7902
2117	10.4967
2117.5	9.33597
2118	8.97128
2118.5	9.27595
2119	9.43987
2119.5	8.98603
2120	8.22366
2120.5	7.83202
2121	8.27833
2121.5	9.22696
2122	10.0815
2122.5	10.4238
2123	10.1695
2123.5	9.57521
2124	8.9461
2124.5	8.5214
2125	8.4456
2125.5	8.67963
2126	9.03227
2126.5	9.32136
2127	9.42714
2127.5	9.30391
2128	9.00714
2128.5	8.66176
2129	8.44777
2129.5	8.50508
2130	8.73799
2130.5	9.01755
2131	9.36334
2131.5	9.99154
2132	10.9254
2132.5	11.7692
2133	11.9829
2133.5	11.3539
2134	10.4457
2134.5	9.94727
2135	10.0141
2135.5	10.18
2136	9.85349
2136.5	9.1231
2137	8.52704
2137.5	8.53985
2138	9.12861
2138.5	9.80713
2139	10.2639
2139.5	10.4872
2140	10.6766
2140.5	10.9728
2141	11.3034
2141.5	11.4276
2142	10.9995
2142.5	9.93591
2143	8.59347
2143.5	7.61482
2144	7.5977
2144.5	8.46915
2145	9.53961
2145.5	10.1386
2146	9.97098
2146.5	9.23448
2147	8.2726
2147.5	7.2615
2148	6.33563
2148.5	5.74989
2149	5.67225
2149.5	6.03041
2150	6.53656
2150.5	6.91471
2151	7.22907
2151.5	7.7449
2152	8.64273
2152.5	9.825
2153	10.8797
2153.5	11.4283
2154	11.305
2154.5	10.6477
2155	9.96038
2155.5	9.75799
2156	10.2646
2156.5	11.2773
2157	12.1666
2157.5	12.3789
2158	11.7408
2158.5	10.4558
2159	9.00578
2159.5	7.90882
2160	7.49149
2160.5	7.84773
2161	8.76267
2161.5	9.66355
2162	10.0812
2162.5	9.8368
2163	9.07573
2163.5	8.1525
2164	7.3065
2164.5	6.6833
2165	6.44027
2165.5	6.68101
2166	7.24978
2166.5	7.85368
2167	8.2747
2167.5	8.60237
2168	9.04872
2168.5	9.52298
2169	9.60259
2169.5	8.84442
2170	7.58681
2170.5	6.59927
2171	6.53865
2171.5	7.45078
2172	8.58111
2172.5	9.28205
2173	9.37639
2173.5	9.12765
2174	8.92816
2174.5	8.89414
2175	8.92572
2175.5	8.84515
2176	8.54578
2176.5	8.13138
2177	7.88702
2177.5	8.19799
2178	9.30637
2178.5	10.8471
2179	12.1112
2179.5	12.4019
2180	11.4229
2180.5	9.75128
2181	8.12117
2181.5	7.11338
2182	7.0254
2182.5	7.74184
2183	8.96545
2183.5	10.2378
2184	10.9307
2184.5	10.6087
2185	9.48232
2185.5	8.20671
2186	7.51149
2186.5	7.64239
2187	8.17119
2187.5	8.59745
2188	8.63352
2188.5	8.28207
2189	7.78309
2189.5	7.43753
2190	7.57244
2190.5	8.32935
2191	9.19509
2191.5	9.48976
2192	8.97037
2192.5	8.18425
2193	8.00379
2193.5	8.48936
2194	8.95407
2194.5	8.68127
2195	7.94177
2195.5	7.66225
2196	8.27028
2196.5	9.24491
2197	9.52322
2197.5	8.87026
2198	7.88376
2198.5	7.30706
2199	7.32255
2199.5	7.42178
2200	7.27176
2200.5	6.93626
2201	6.67566
2201.5	6.47764
2202	6.13294
2202.5	5.62831
2203	5.35639
2203.5	5.80446
2204	6.94215
2204.5	8.22926
2205	8.94786
2205.5	8.86789
2206	8.46987
2206.5	8.27603
2207	8.39131
2207.5	8.41036
2208	8.11357
2208.5	7.81736
2209	8.00859
2209.5	8.69248
2210	9.12188
2210.5	8.8228
2211	8.11287
2211.5	7.95441
2212	8.68812
2212.5	9.69188
2213	10.1899
2213.5	10.0458
2214	9.97404
2214.5	10.433
2215	11.1639
2215.5	11.5418
2216	11.3716
2216.5	11.0808
2217	10.9303
2217.5	10.6514
2218	9.72823
2218.5	8.39868
2219	7.50562
2219.5	7.77779
2220	9.07721
2220.5	10.2153
2221	10.4326
2221.5	9.79331
2222	9.07075
2222.5	8.97562
2223	9.51606
2223.5	10.2662
2224	10.7542
2224.5	10.906
2225	11.0465
2225.5	11.4928
2226	12.2221
2226.5	12.6556
2227	12.2112
2227.5	10.8925
2228	9.44351
2228.5	8.99554
2229	9.71973
2229.5	10.8898
2230	11.4838
2230.5	10.8582
2231	9.40246
2231.5	7.80441
2232	6.6909
2232.5	6.5755
2233	7.62453
2233.5	9.54006
2234	11.5867
2234.5	12.8138
2235	12.7608
2235.5	11.8267
2236	10.6684
2236.5	9.76629
2237	9.22769
2237.5	8.97676
2238	8.95159
2238.5	9.00891
2239	8.88447
2239.5	8.48665
2240	7.9825
2240.5	7.61422
2241	7.45916
2241.5	7.38046
2242	7.37792
2242.5	7.64311
2243	8.35017
2243.5	9.24996
2244	9.85588
2244.5	9.85424
2245	9.26423
2245.5	8.44299
2246	7.76978
2246.5	7.46497
2247	7.55338
2247.5	7.83031
2248	8.06139
2248.5	8.26565
2249	8.67684
2249.5	9.42128
2250	10.0044
2250.5	9.69844
2251	8.2402
2251.5	6.29104
2252	5.07802
2252.5	5.1373
2253	6.11743
2253.5	7.16308
2254	7.76317
2254.5	8.11958
2255	8.56855
2255.5	9.17492
2256	9.80569
2256.5	10.708
2257	12.5069
2257.5	15.5463
2258	18.8761
2258.5	20.6777
2259	19.8909
2259.5	17.0188
2260	14.0599
2260.5	12.6335
2261	12.5588
2261.5	12.5282
2262	11.3483
2262.5	9.38746
2263	7.80473
2263.5	7.36029
2264	7.9311
2264.5	8.82722
2265	9.76065
2265.5	10.7466
2266	11.6686
2266.5	12.0461
2267	11.5224
2267.5	10.1671
2268	8.46739
2268.5	7.13887
2269	6.63762
2269.5	7.06463
2270	8.1699
2270.5	9.37368
2271	10.1595
2271.5	10.4152
2272	10.3106
2272.5	10.0487
2273	9.67263
2273.5	9.19394
2274	8.78546
2274.5	8.7323
2275	9.06269
2275.5	9.40976
2276	9.38759
2276.5	8.94823
2277	8.46677
2277.5	8.27569
2278	8.39052
2278.5	8.63105
2279	8.85461
2279.5	9.08041
2280	9.32015
2280.5	9.48841
2281	9.48433
2281.5	9.42998
2282	9.57175
2282.5	10.0184
2283	10.583
2283.5	10.8991
2284	10.8309
2284.5	10.5014
2285	10.099
2285.5	9.61934
2286	8.95641
2286.5	8.22047
2287	7.81317
2287.5	8.07397
2288	8.56351
2288.5	8.55507
2289	7.71092
2289.5	6.66767
2290	6.56438
2290.5	7.77962
2291	9.67354
2291.5	10.9779
2292	11.0622
2292.5	10.2751
2293	9.29939
2293.5	8.582
2294	8.12597
2294.5	7.87092
2295	7.83507
2295.5	7.97381
2296	8.05549
2296.5	7.88628
2297	7.47136
2297.5	6.9649
2298	6.56102
2298.5	6.4349
2299	6.75973
2299.5	7.56541
2300	8.44709
2300.5	8.65847
2301	7.8344
2301.5	6.34169
2302	5.21766
2302.5	5.22154
2303	6.14042
2303.5	7.22905
2304	7.93858
2304.5	8.50234
2305	9.32108
2305.5	10.3074
2306	10.8802
2306.5	10.5862
2307	9.78728
2307.5	9.12435
2308	8.92867
2308.5	8.90286
2309	8.67236
2309.5	8.39315
2310	8.46827
2310.5	9.03129
2311	9.63014
2311.5	9.91232
2312	9.92376
2312.5	9.92855
2313	9.84561
2313.5	9.2326
2314	7.88969
2314.5	6.16639
2315	4.75899
2315.5	4.0436
2316	4.10158
2316.5	4.9291
2317	6.35952
2317.5	7.77004
2318	8.41668
2318.5	8.03234
2319	7.49528
2319.5	7.88575
2320	9.16825
2320.5	10.2255
2321	9.77861
2321.5	8.24083
2322	7.07362
2322.5	7.34716
2323	8.72225
2323.5	9.60259
2324	9.24916
2324.5	8.08376
2325	7.11594
2325.5	7.05016
2326	7.89754
2326.5	9.45298
2327	11.347
2327.5	12.7673
2328	12.8554
2328.5	11.471
2329	9.36227
2329.5	7.82253
2330	7.38733
2330.5	7.68937
2331	8.06296
2331.5	8.09326
2332	7.78855
2332.5	7.16315
2333	6.24282
2333.5	5.32964
2334	5.00172
2334.5	5.45916
2335	6.34764
2335.5	7.05792
2336	7.38275
2336.5	7.68755
2337	8.21763
2337.5	8.71719
2338	8.6525
2338.5	8.0119
2339	7.25188
2339.5	6.88273
2340	7.08834
2340.5	7.57415
2341	8.07994
2341.5	8.46637
2342	8.61446
2342.5	8.4008
2343	7.81452
2343.5	7.03754
2344	6.43402
2344.5	6.37576
2345	6.97633
2345.5	8.01836
2346	8.88024
2346.5	8.81493
2347	7.71821
2347.5	6.20248
2348	5.27477
2348.5	5.61829
2349	6.72461
2349.5	7.67658
2350	7.90801
2350.5	7.62743
2351	7.46343
2351.5	7.62939
2352	7.89744
2352.5	7.81627
2353	7.16281
2353.5	6.11319
2354	5.16467
2354.5	4.9654
2355	5.78393
2355.5	7.13164
2356	8.18472
2356.5	8.3375
2357	7.81102
2357.5	7.39952
2358	7.53145
2358.5	7.98509
2359	8.19433
2359.5	7.88676
2360	7.10966
2360.5	6.05018
2361	5.02427
2361.5	4.48791
2362	4.73708
2362.5	5.59049
2363	6.45865
2363.5	6.86726
2364	6.94356
2364.5	7.12948
2365	7.80925
2365.5	8.9868
2366	10.3316
2366.5	11.4321
2367	11.9588
2367.5	12.0644
2368	12.6064
2368.5	14.3833
2369	17.3128
2369.5	19.8428
2370	20.4147
2370.5	19.2109
2371	17.7174
2371.5	17.3983
2372	17.807
2372.5	17.5026
2373	15.7066
2373.5	13.1641
2374	11.4489
2374.5	10.8382
2375	10.5134
2375.5	9.50369
2376	7.8008
2376.5	6.25152
2377	5.48409
2377.5	5.4429
2378	5.51938
2378.5	5.4476
2379	5.52612
2379.5	6.26107
2380	7.91096
2380.5	9.91855
2381	11.4704
2381.5	11.9969
2382	11.4605
2382.5	10.4426
2383	9.46908
2383.5	8.75958
2384	8.19535
2384.5	7.50356
2385	6.68063
2385.5	6.0447
2386	6.0394
2386.5	6.83598
2387	8.05051
2387.5	9.09789
2388	9.4231
2388.5	8.67787
2389	7.11544
2389.5	5.30051
2390	4.07756
2390.5	4.24747
2391	5.47266
2391.5	6.69956
2392	7.03394
2392.5	6.80684
2393	7.29296
2393.5	8.85253
2394	10.5034
2394.5	10.697
2395	9.22807
2395.5	7.63309
2396	7.27179
2396.5	8.14826
2397	9.08604
2397.5	9.40685
2398	9.36948
2398.5	9.43095
2399	9.53132
2399.5	9.45706
2400	9.53233
2400.5	10.2183
2401	11.2635
2401.5	11.5409
2402	10.525
2402.5	8.93614
2403	8.20153
2403.5	8.58102
2404	9.1376
2404.5	9.1351
2405	8.86573
2405.5	9.2587
2406	10.2419
2406.5	10.8077
2407	10.1026
2407.5	8.28592
2408	6.19235
2408.5	4.30569
2409	2.91505
2409.5	2.74425
2410	4.39535
2410.5	7.59674
2411	10.9616
2411.5	12.6333
2412	12.2181
2412.5	10.7691
2413	9.63918
2413.5	9.42573
2414	9.75262
2414.5	10.1306
2415	10.366
2415.5	10.4633
2416	10.4607
2416.5	10.4147
2417	10.404
2417.5	10.4395
2418	10.3096
2418.5	9.72323
2419	8.59758
2419.5	7.28103
2420	6.4682
2420.5	6.50693
2421	7.17449
2421.5	7.90182
2422	8.24798
2422.5	8.41823
2423	8.7088
2423.5	8.91646
2424	8.38132
2424.5	6.93159
2425	5.45985
2425.5	5.16358
2426	6.36095
2426.5	7.89696
2427	8.50296
2427.5	7.96451
2428	7.04337
2428.5	6.74994
2429	7.18528
2429.5	7.92261
2430	8.61328
2430.5	9.13814
2431	9.46824
2431.5	9.54148
2432	9.41394
2432.5	9.33566
2433	9.44669
2433.5	9.57635
2434	9.4265
2434.5	8.82719
2435	8.02885
2435.5	7.55496
2436	7.82865
2436.5	8.91548
2437	10.1563
2437.5	10.5302
2438	9.51004
2438.5	7.70343
2439	6.58393
2439.5	6.9138
2440	8.23299
2440.5	9.44003
2441	9.64779
2441.5	9.12899
2442	8.39144
2442.5	7.70298
2443	7.16613
2443.5	6.91014
2444	6.92732
2444.5	6.85948
2445	6.26874
2445.5	5.32565
2446	4.85124
2446.5	5.56799
2447	7.55322
2447.5	9.87675
2448	11.487
2448.5	11.8894
2449	11.2026
2449.5	10.0922
2450	9.3797
2450.5	9.37551
2451	9.94698
2451.5	10.7193
2452	11.2561
2452.5	11.1564
2453	10.0904
2453.5	8.25092
2454	6.64442
2454.5	6.20249
2455	7.05338
2455.5	8.3893
2456	9.10883
2456.5	9.10972
2457	8.82497
2457.5	8.58675
2458	8.3441
2458.5	8.05602
2459	7.97669
2459.5	8.35266
2460	9.05006
2460.5	9.51573
2461	9.34188
2461.5	8.4835
2462	7.40926
2462.5	6.80349
2463	6.96413
2463.5	7.68424
2464	8.3852
2464.5	8.61303
2465	8.46201
2465.5	8.10336
2466	7.55963
2466.5	6.89166
2467	6.47812
2467.5	6.66857
2468	7.25407
2468.5	7.51687
2469	7.16388
2469.5	6.59286
2470	6.37909
2470.5	6.53647
2471	6.53941
2471.5	6.24456
2472	5.95594
2472.5	5.99217
2473	6.05496
2473.5	5.69057
2474	4.91985
2474.5	4.35539
2475	4.67203
2475.5	5.7835
2476	6.94264
2476.5	7.43308
2477	7.35603
2477.5	7.57235
2478	8.61891
2478.5	10.0237
2479	10.3994
2479.5	9.29677
2480	7.53342
2480.5	6.4488
2481	6.84494
2481.5	7.83487
2482	8.37693
2482.5	8.00787
2483	6.97693
2483.5	6.06842
2484	5.99881
2484.5	7.08456
2485	9.01577
2485.5	10.621
2486	10.8315
2486.5	9.52469
2487	7.79139
2487.5	6.99066
2488	7.34506
2488.5	8.16075
2489	8.54368
2489.5	8.2046
2490	7.60954
2490.5	7.11509
2491	6.82866
2491.5	6.80394
2492	7.17347
2492.5	7.9128
2493	8.68644
2493.5	9.00834
2494	8.82254
2494.5	8.53828
2495	8.41359
2495.5	8.25764
2496	7.76192
2496.5	7.15079
2497	7.00314
2497.5	7.6106
2498	8.55434
2498.5	9.09183
2499	8.83314
2499.5	7.88405
2500	6.92249
2500.5	6.70065
2501	7.50683
2501.5	8.93181
2502	9.87508
2502.5	9.73311
2503	9.00083
2503.5	8.48899
2504	8.43253
2504.5	8.09169
2505	7.10367
2505.5	6.06211
2506	5.88431
2506.5	6.61813
2507	7.31744
2507.5	7.45329
2508	7.40569
2508.5	7.79741
2509	8.32797
2509.5	8.21745
2510	7.303
2510.5	6.43204
2511	6.32619
2511.5	6.67806
2512	6.65194
2512.5	5.96479
2513	5.4616
2513.5	5.87984
2514	7.18809
2514.5	8.61711
2515	9.34172
2515.5	9.20591
2516	8.447
2516.5	7.57596
2517	7.28822
2517.5	7.70756
2518	8.29687
2518.5	8.27798
2519	7.46925
2519.5	6.8568
2520	7.21357
2520.5	8.29442
2521	8.98997
2521.5	8.75376
2522	8.15682
2522.5	7.97291
2523	8.25074
2523.5	8.42616
2524	8.38578
2524.5	8.49667
2525	8.85191
2525.5	8.81394
2526	7.97779
2526.5	6.82699
2527	6.41093
2527.5	7.05992
2528	7.96891
2528.5	8.42512
2529	8.40986
2529.5	8.45039
2530	8.57538
2530.5	8.39109
2531	7.72017
2531.5	6.95373
2532	6.54518
2532.5	6.43936
2533	6.48691
2533.5	6.91298
2534	8.11462
2534.5	9.76532
2535	10.9891
2535.5	10.9784
2536	9.95667
2536.5	9.06336
2537	9.04216
2537.5	9.79662
2538	10.4937
2538.5	10.4744
2539	9.84349
2539.5	9.06975
2540	8.51152
2540.5	8.03896
2541	7.40339
2541.5	6.61954
2542	6.0151
2542.5	5.89705
2543	6.33298
2543.5	7.16631
2544	8.05582
2544.5	8.43317
2545	7.85346
2545.5	6.43951
2546	5.18094
2546.5	5.19381
2547	6.45133
2547.5	7.99918
2548	8.80748
2548.5	8.91713
2549	9.20835
2549.5	10.0417
2550	10.8189
2550.5	10.403
2551	8.79717
2551.5	6.99198
2552	6.20688
2552.5	6.90538
2553	8.1242
2553.5	8.85643
2554	8.71805
2554.5	8.12963
2555	8.01305
2555.5	8.79836
2556	10.2965
2556.5	11.6501
2557	11.6331
2557.5	10.0586
2558	7.88049
2558.5	6.71871
2559	7.63473
2559.5	9.25833
2560	9.96195
2560.5	9.16527
2561	7.95387
2561.5	7.70101
2562	8.26559
2562.5	8.81591
2563	8.99146
2563.5	9.4471
2564	10.4197
2564.5	11.2882
2565	11.276
2565.5	10.6822
2566	10.488
2566.5	10.8086
2567	10.7295
2567.5	9.25234
2568	7.05766
2568.5	5.59405
2569	5.77509
2569.5	7.14793
2570	8.1327
2570.5	7.97048
2571	7.05025
2571.5	6.60574
2572	7.46091
2572.5	9.03574
2573	10.1787
2573.5	10.0242
2574	9.0378
2574.5	8.40195
2575	8.70217
2575.5	9.55444
2576	9.93676
2576.5	9.46884
2577	8.66257
2577.5	8.28268
2578	8.65121
2578.5	9.21861
2579	9.39421
2579.5	9.11922
2580	8.92171
2580.5	9.17155
2581	9.49148
2581.5	9.33164
2582	8.67162
2582.5	8.31479
2583	8.67041
2583.5	9.27986
2584	9.31928
2584.5	8.75635
2585	8.45803
2585.5	8.91733
2586	9.65345
2586.5	9.54377
2587	8.3604
2587.5	6.96532
2588	6.44015
2588.5	7.19602
2589	8.26609
2589.5	8.45822
2590	7.26561
2590.5	5.35237
2591	4.2157
2591.5	4.39159
2592	5.35637
2592.5	6.15755
2593	6.60924
2593.5	7.30115
2594	8.48714
2594.5	9.63952
2595	9.7912
2595.5	8.81146
2596	7.21072
2596.5	5.81902
2597	5.48008
2597.5	6.23401
2598	7.53546
2598.5	8.61329
2599	9.07468
2599.5	9.31461
2600	9.44401
2600.5	9.03663
2601	7.69224
2601.5	6.35177
2602	6.02756
2602.5	6.64862
2603	6.86723
2603.5	6.00175
2604	5.15979
2604.5	5.64792
2605	7.5035
2605.5	9.03714
2606	9.39266
2606.5	9.05733
2607	8.93807
2607.5	8.99183
2608	8.51197
2608.5	7.42293
2609	6.50864
2609.5	6.65886
2610	7.53227
2610.5	8.29306
2611	8.37119
2611.5	8.04174
2612	7.94472
2612.5	8.25742
2613	8.786
2613.5	9.28334
2614	9.62501
2614.5	9.56175
2615	8.75849
2615.5	7.36383
2616	6.27884
2616.5	6.26512
2617	7.22509
2617.5	8.23884
2618	8.59363
2618.5	8.48241
2619	8.30035
2619.5	8.02802
2620	7.27062
2620.5	6.16558
2621	5.46603
2621.5	5.79055
2622	6.94746
2622.5	7.81872
2623	7.73017
2623.5	7.03978
2624	6.72741
2624.5	7.34709
2625	8.3173
2625.5	8.88902
2626	9.05994
2626.5	9.22114
2627	9.47102
2627.5	9.44482
2628	8.90148
2628.5	8.46349
2629	8.56367
2629.5	9.37432
2630	10.2201
2630.5	10.9275
2631	11.12
2631.5	10.9354
2632	10.5235
2632.5	10.2368
2633	10.2309
2633.5	10.6345
2634	11.3318
2634.5	11.9799
2635	12.1093
2635.5	11.6267
2636	10.7086
2636.5	9.65204
2637	9.04093
2637.5	9.19698
2638	10.3902
2638.5	11.8939
2639	13.3182
2639.5	14.0868
2640	14.3109
2640.5	13.8063
2641	13.3587
2641.5	13.1223
2642	13.3375
2642.5	13.7199
2643	14.063
2643.5	14.1268
2644	13.9208
2644.5	13.3009
2645	12.6283
2645.5	11.938
2646	11.5298
2646.5	11.2865
2647	11.4622
2647.5	11.6051
2648	11.7109
2648.5	11.2503
2649	10.6444
2649.5	9.8764
2650	9.76668
2650.5	10.0671
2651	11.616
2651.5	13.1193
2652	14.5629
2652.5	14.7121
2653	14.3436
2653.5	13.0989
2654	12.0141
2654.5	11.0337
2655	10.8315
2655.5	10.7214
2656	10.7524
2656.5	10.8174
2657	10.9236
2657.5	11.1749
2658	11.2959
2658.5	11.3196
2659	10.7719
2659.5	10.2316
2660	9.74149
2660.5	10.0179
2661	10.6137
2661.5	11.5948
2662	12.2274
2662.5	12.5571
2663	12.3976
2663.5	12.3462
2664	12.6059
2664.5	13.0583
2665	13.509
2665.5	13.2811
2666	12.7809
2666.5	12.0053
2667	11.8254
2667.5	11.971
2668	12.7568
2668.5	13.3342
2669	13.7459
2669.5	13.2496
2670	12.4995
2670.5	11.4507
2671	10.3566
2671.5	9.27435
2672	8.25353
2672.5	7.67409
2673	7.38374
2673.5	8.33296
2674	9.55028
2674.5	11.1352
2675	11.8958
2675.5	12.1813
2676	11.3651
2676.5	10.5574
2677	9.75524
2677.5	10.1486
2678	10.7288
2678.5	11.5926
2679	11.6782
2679.5	11.3989
2680	10.4268
2680.5	9.76138
2681	9.33565
2681.5	9.95468
2682	10.692
2682.5	11.5573
2683	11.9938
2683.5	12.2605
2684	12.4075
2684.5	12.781
2685	13.3605
2685.5	13.9212
2686	14.1973
2686.5	13.8396
2687	12.8318
2687.5	11.5696
2688	10.5309
2688.5	10.174
2689	10.5386
2689.5	11.7908
2690	13.0722
2690.5	14.1009
2691	14.3999
2691.5	14.2974
2692	13.6703
2692.5	13.1327
2693	12.7053
2693.5	12.4767
2694	12.3238
2694.5	12.2962
2695	12.4829
2695.5	12.8007
2696	13.2743
2696.5	13.5995
2697	13.7116
2697.5	13.5417
2698	13.3119
2698.5	13.1209
2699	12.902
2699.5	12.6637
2700	12.244
2700.5	11.9377
2701	11.8287
2701.5	12.2455
2702	12.8534
2702.5	13.6206
2703	14.0176
2703.5	14.1116
2704	13.2891
2704.5	12.2997
2705	11.0898
2705.5	10.2773
2706	9.69259
2706.5	9.68706
2707	9.70137
2707.5	9.73457
2708	9.47145
2708.5	9.10622
2709	8.57328
2709.5	7.9196
2710	7.24191
2710.5	6.90376
2711	7.17784
2711.5	8.12996
2712	9.61578
2712.5	10.7914
2713	10.8475
2713.5	9.96117
2714	8.61178
2714.5	8.13345
2715	8.22664
2715.5	9.05691
2716	9.6634
2716.5	10.1891
2717	10.5927
2717.5	11.5672
2718	12.8996
2718.5	14.1067
2719	14.7323
2719.5	14.4819
2720	13.987
2720.5	13.5895
2721	13.9099
2721.5	14.1784
2722	14.4088
2722.5	13.5667
2723	12.5374
2723.5	11.238
2724	10.4148
2724.5	9.84857
2725	9.8741
2725.5	10.033
2726	10.3062
2726.5	10.689
2727	11.0848
2727.5	11.491
2728	11.6746
2728.5	11.7347
2729	11.5063
2729.5	11.3572
2730	11.2873
2730.5	11.2775
2731	11.1589
2731.5	10.7502
2732	10.5008
2732.5	10.3942
2733	11.174
2733.5	11.769
2734	12.1497
2734.5	11.2527
2735	10.23
2735.5	9.4806
2736	10.087
2736.5	11.4734
2737	13.4133
2737.5	14.6446
2738	14.9188
2738.5	14.2591
2739	13.448
2739.5	12.8499
2740	12.5042
2740.5	12.325
2741	12.0712
2741.5	11.6992
2742	11.141
2742.5	10.6648
2743	10.3573
2743.5	10.7484
2744	11.5096
2744.5	12.5557
2745	12.8616
2745.5	12.7082
2746	11.7625
2746.5	10.8698
2747	10.1114
2747.5	10.0985
2748	10.3358
2748.5	10.7974
2749	11.5517
2749.5	12.4249
2750	13.5042
2750.5	14.1731
2751	14.5458
2751.5	13.7641
2752	12.7361
2752.5	11.4511
2753	10.4551
2753.5	9.54432
2754	8.75641
2754.5	8.0431
2755	7.41751
2755.5	7.59297
2756	8.29706
2756.5	9.64281
2757	10.9692
2757.5	11.9977
2758	12.0766
2758.5	11.6992
2759	11.0669
2759.5	11.0832
2760	11.2414
2760.5	11.6003
2761	11.3028
2761.5	10.8484
2762	10.3976
2762.5	10.6752
2763	11.4563
2763.5	12.4397
2764	12.9292
2764.5	12.5943
2765	11.9295
2765.5	11.3132
2766	11.4662
2766.5	11.7759
2767	12.2119
2767.5	11.8502
2768	11.3341
2768.5	10.6053
2769	10.5319
2769.5	10.7706
2770	11.5138
2770.5	12.0083
2771	12.2694
2771.5	12.274
2772	12.4245
2772.5	12.9745
2773	13.5738
2773.5	14.1485
2774	14.2267
2774.5	14.4046
2775	14.6911
2775.5	15.3091
2776	15.6855
2776.5	15.2469
2777	13.8106
2777.5	11.8907
2778	10.7861
2778.5	10.7179
2779	11.9671
2779.5	13.4716
2780	14.5341
2780.5	13.8991
2781	12.8525
2781.5	11.5663
2782	11.7779
2782.5	12.066
2783	12.4677
2783.5	11.5866
2784	10.3979
2784.5	9.30915
2785	9.0796
2785.5	9.47244
2786	10.075
2786.5	10.5194
2787	10.6783
2787.5	11.1255
2788	11.6651
2788.5	12.2046
2789	12.0972
2789.5	11.4434
2790	9.96882
2790.5	8.58014
2791	7.48634
2791.5	7.21934
2792	7.36252
2792.5	8.2027
2793	8.98296
2793.5	9.70436
2794	9.72475
2794.5	9.3885
2795	8.37421
2795.5	7.36724
2796	6.46707
2796.5	6.8566
2797	7.77469
2797.5	9.29683
2798	10.5555
2798.5	11.6191
2799	12.2309
2799.5	12.7294
2800	13.1545
2800.5	13.2926
2801	13.3279
2801.5	13.2261
2802	13.03
2802.5	12.7567
2803	12.2755
2803.5	11.9937
2804	11.8413
2804.5	12.3678
2805	12.7018
2805.5	12.7351
2806	12.3643
2806.5	11.9987
2807	12.1791
2807.5	12.2239
2808	12.1656
2808.5	10.7669
2809	9.49431
2809.5	8.55228
2810	9.18107
2810.5	10.3571
2811	11.6083
2811.5	11.9763
2812	11.5633
2812.5	10.4857
2813	9.53787
2813.5	8.99136
2814	8.80695
2814.5	8.77457
2815	8.76714
2815.5	8.86933
2816	9.08424
2816.5	10.0943
2817	11.2645
2817.5	12.5836
2818	12.8586
2818.5	12.5211
2819	10.7023
2819.5	9.18608
2820	8.03182
2820.5	8.06545
2821	8.36457
2821.5	8.82857
2822	9.27239
2822.5	9.71932
2823	10.7425
2823.5	11.6807
2824	12.5003
2824.5	12.466
2825	12.2344
2825.5	12.0148
2826	12.2626
2826.5	12.8286
2827	13.085
2827.5	13.0528
2828	12.5558
2828.5	12.5184
2829	12.7276
2829.5	13.4992
2830	13.8278
2830.5	13.8044
2831	12.9142
2831.5	12.2044
2832	11.9302
2832.5	12.3496
2833	12.9624
2833.5	13.1807
2834	12.8563
2834.5	12.0297
2835	11.1459
2835.5	10.4001
2836	9.98252
2836.5	9.51524
2837	9.0459
2837.5	8.77636
2838	9.00635
2838.5	9.77395
2839	10.7926
2839.5	11.6129
2840	11.7878
2840.5	11.7482
2841	11.6122
2841.5	11.7449
2842	11.718
2842.5	11.491
2843	10.9173
2843.5	10.2915
2844	9.7192
2844.5	9.10423
2845	8.4678
2845.5	8.15694
2846	8.34577
2846.5	9.26525
2847	10.4807
2847.5	11.506
2848	11.4099
2848.5	10.4419
2849	8.85142
2849.5	7.4112
2850	6.51611
2850.5	6.54929
2851	7.42045
2851.5	8.46551
2852	9.01619
2852.5	9.2089
2853	9.10365
2853.5	9.91178
2854	10.9978
2854.5	12.5247
2855	12.9278
2855.5	12.7346
2856	11.2708
2856.5	10.2736
2857	9.7285
2857.5	10.2483
2858	10.8055
2858.5	11.1684
2859	11.1123
2859.5	10.8694
2860	10.6936
2860.5	10.6801
2861	10.8495
2861.5	11.0623
2862	11.2115
2862.5	11.1544
2863	10.9518
2863.5	10.6805
2864	10.6582
2864.5	10.7766
2865	11.0797
2865.5	11.1681
2866	11.1136
2866.5	10.7081
2867	10.2734
2867.5	9.82017
2868	9.41405
2868.5	8.9264
2869	8.31375
2869.5	7.84231
2870	7.58721
2870.5	8.14574
2871	9.21583
2871.5	10.6685
2872	11.7465
2872.5	12.3972
2873	12.303
2873.5	11.6598
2874	10.8626
2874.5	10.2447
2875	10.0345
2875.5	10.1796
2876	10.9114
2876.5	11.6606
2877	12.3483
2877.5	12.4892
2878	12.3351
2878.5	11.5496
2879	10.5665
2879.5	9.38303
2880	8.31346
2880.5	7.53006
2881	7.44077
2881.5	8.10209
2882	9.12127
2882.5	10.0662
2883	10.6134
2883.5	10.6914
2884	10.747
2884.5	10.9063
2885	11.3996
2885.5	11.5241
2886	11.4059
2886.5	10.2062
2887	9.01591
2887.5	7.83854
2888	7.5206
2888.5	7.5587
2889	8.20995
2889.5	8.84007
2890	9.45602
2890.5	9.64111
2891	9.67923
2891.5	9.48728
2892	9.31066
2892.5	9.23238
2893	9.61831
2893.5	10.3415
2894	11.3289
2894.5	12.1699
2895	12.7408
2895.5	12.8139
2896	12.4758
2896.5	11.9692
2897	11.3124
2897.5	10.68
2898	10.0699
2898.5	9.7595
2899	9.60644
2899.5	9.74482
2900	9.85069
2900.5	9.9132
2901	9.68754
2901.5	9.60257
2902	9.66688
2902.5	10.2485
2903	10.8004
2903.5	11.0773
2904	10.554
2904.5	9.59363
2905	8.12559
2905.5	7.02516
2906	6.37869
2906.5	6.87691
2907	7.76085
2907.5	9.19827
2908	10.439
2908.5	11.5425
2909	11.5608
2909.5	11.1687
2910	10.1853
2910.5	9.25932
2911	8.5083
2911.5	8.4229
2912	8.6721
2912.5	9.15664
2913	9.62571
2913.5	10.0204
2914	10.29
2914.5	10.5018
2915	10.6839
2915.5	10.8026
2916	10.8275
2916.5	10.7755
2917	10.6854
2917.5	10.6923
2918	10.8975
2918.5	11.2605
2919	11.6264
2919.5	11.5732
2920	11.1328
2920.5	10.3226
2921	9.52373
2921.5	8.95142
2922	8.91395
2922.5	9.07184
2923	9.2646
2923.5	8.85515
2924	8.22818
2924.5	7.35963
2925	7.00958
2925.5	6.9449
2926	7.46854
2926.5	7.9145
2927	8.28725
2927.5	7.96725
2928	7.6458
2928.5	7.32248
2929	7.84788
2929.5	8.65233
2930	9.82122
2930.5	10.3265
2931	10.4047
2931.5	8.95616
2932	7.53449
2932.5	6.15335
2933	6.10137
2933.5	6.64197
2934	8.25651
2934.5	9.6876
2935	10.9835
2935.5	10.9367
2936	10.4816
2936.5	9.3811
2937	8.26774
2937.5	7.26744
2938	6.95601
2938.5	7.07046
2939	7.55075
2939.5	8.23557
2940	8.87606
2940.5	9.39145
2941	9.93185
2941.5	10.5104
2942	11.3221
2942.5	12.101
2943	12.847
2943.5	13.0793
2944	13.0631
2944.5	12.5786
2945	11.795
2945.5	10.8565
2946	9.75124
2946.5	8.73115
2947	7.81001
2947.5	7.47068
2948	7.437
2948.5	8.03294
2949	8.79815
2949.5	9.64469
2950	10.0712
2950.5	10.2308
2951	10.029
2951.5	9.6795
2952	9.3306
2952.5	9.10884
2953	8.9205
2953.5	8.75425
2954	8.41645
2954.5	8.0822
2955	7.7551
2955.5	7.76334
2956	7.95125
2956.5	8.54762
2957	9.10586
2957.5	9.63468
2958	9.60524
2958.5	9.40495
2959	8.93327
2959.5	8.63684
2960	8.47025
2960.5	8.74795
2961	9.08616
2961.5	9.47877
2962	9.73516
2962.5	10.0511
2963	10.5252
2963.5	11.3759
2964	12.3683
2964.5	13.2021
2965	13.4978
2965.5	13.2309
2966	12.1657
2966.5	11.0747
2967	10.2007
2967.5	9.87128
2968	9.82384
2968.5	9.92155
2969	9.8583
2969.5	9.59914
2970	9.35928
2970.5	9.2357
2971	9.47707
2971.5	9.80046
2972	10.1652
2972.5	10.1957
2973	10.1123
2973.5	9.86718
2974	9.63985
2974.5	9.43639
2975	9.31213
2975.5	9.23894
2976	9.20115
2976.5	9.25084
2977	9.25337
2977.5	9.17501
2978	8.8052
2978.5	8.32773
2979	7.74765
2979.5	7.43152
2980	7.32887
2980.5	7.71532
2981	8.13262
2981.5	8.55492
2982	8.88789
2982.5	9.21759
2983	9.75991
2983.5	10.3958
2984	11.1198
2984.5	11.3239
2985	11.1968
2985.5	10.4206
2986	9.60747
2986.5	8.85267
2987	8.90324
2987.5	9.27471
2988	9.99749
2988.5	10.4989
2989	10.8044
2989.5	10.6523
2990	10.402
2990.5	10.1141
2991	10.1138
2991.5	10.2028
2992	10.4057
2992.5	10.5697
2993	10.7205
2993.5	10.8526
2994	11.0114
2994.5	11.1862
2995	11.2941
2995.5	11.343
2996	11.3039
2996.5	11.2509
2997	11.2108
2997.5	11.2424
2998	11.2423
2998.5	11.2194
2999	10.9649
2999.5	10.6335
3000	10.1797
3000.5	9.68659
3001	9.17761
3001.5	8.64967
3002	8.1871
3002.5	7.77988
3003	7.90032
3003.5	8.3171
3004	9.26844
3004.5	10.332
3005	11.335
3005.5	11.5033
3006	11.0627
3006.5	10.022
3007	8.81781
3007.5	7.87682
3008	7.63133
3008.5	8.0048
3009	8.65632
3009.5	9.15942
3010	9.30443
3010.5	9.03908
3011	8.60117
3011.5	8.30146
3012	8.49934
3012.5	9.11581
3013	9.95746
3013.5	10.6138
3014	10.9384
3014.5	10.8202
3015	10.3881
3015.5	9.9982
3016	10.0169
3016.5	10.5776
3017	11.4913
3017.5	12.7116
3018	13.6886
3018.5	14.2852
3019	14.1708
3019.5	13.8071
3020	13.1982
3020.5	12.8232
3021	12.6262
3021.5	12.7587
3022	12.7836
3022.5	12.5862
3023	11.9073
3023.5	11.0542
3024	10.1414
3024.5	9.5854
3025	9.34556
3025.5	9.66472
3026	9.97661
3026.5	10.1706
3027	9.92467
3027.5	9.48024
3028	8.88671
3028.5	8.57476
3029	8.55312
3029.5	9.09878
3030	9.71863
3030.5	10.3394
3031	10.6148
3031.5	10.6995
3032	10.474
3032.5	10.3409
3033	10.3187
3033.5	10.5928
3034	10.9042
3034.5	11.1636
3035	11.0992
3035.5	10.8359
3036	10.1646
3036.5	9.5659
3037	9.06892
3037.5	9.09698
3038	9.36238
3038.5	10.0773
3039	10.8215
3039.5	11.5857
3040	11.9347
3040.5	12.0896
3041	11.9355
3041.5	11.6102
3042	11.2503
3042.5	10.9725
3043	10.8096
3043.5	10.7385
3044	10.7566
3044.5	10.7568
3045	10.7132
3045.5	10.5845
3046	10.4205
3046.5	10.2251
3047	10.0535
3047.5	9.90396
3048	9.78469
3048.5	9.65978
3049	9.51517
3049.5	9.36916
3050	9.23752
3050.5	9.26015
3051	9.44107
3051.5	9.79283
3052	10.331
3052.5	10.8295
3053	11.1439
3053.5	11.0425
3054	10.7031
3054.5	9.94626
3055	9.28464
3055.5	8.7426
3056	8.79802
3056.5	9.09104
3057	9.79052
3057.5	10.3576
3058	10.8336
3058.5	10.5306
3059	10.0185
3059.5	9.19964
3060	8.56712
3060.5	8.10242
3061	8.1508
3061.5	8.42702
3062	8.86633
3062.5	9.17697
3063	9.34849
3063.5	9.28639
3064	9.11492
3064.5	8.92535
3065	8.82693
3065.5	8.73788
3066	8.65667
3066.5	8.34503
3067	7.9073
3067.5	7.24468
3068	6.50958
3068.5	5.77748
3069	5.28304
3069.5	5.00232
3070	4.92915
3070.5	5.2032
3071	5.60359
3071.5	6.21629
3072	6.97566
3072.5	7.80509
3073	8.66444
3073.5	9.40654
3074	10.0162
3074.5	10.251
3075	10.3271
3075.5	10.1141
3076	9.80515
3076.5	9.44683
3077	9.16188
3077.5	8.91541
3078	8.7196
3078.5	8.55016
3079	8.40147
3079.5	8.30743
3080	8.34901
3080.5	8.47803
3081	8.87294
3081.5	9.29437
3082	9.75658
3082.5	10.055
3083	10.2457
3083.5	10.1466
3084	9.92304
3084.5	9.60608
3085	9.3662
3085.5	9.22373
3086	9.25202
3086.5	9.495
3087	9.83201
3087.5	10.3027
3088	10.7278
3088.5	11.1129
3089	11.2264
3089.5	11.1912
3090	10.8842
3090.5	10.3694
3091	9.77931
3091.5	9.26777
3092	8.94805
3092.5	8.82331
3093	9.09669
3093.5	9.4697
3094	9.96972
3094.5	10.3326
3095	10.6053
3095.5	10.5405
3096	10.3391
3096.5	9.97613
3097	9.5505
3097.5	9.14284
3098	8.8254
3098.5	8.67155
3099	8.6228
3099.5	8.96574
3100	9.46583
3100.5	10.1826
3101	11.0158
3101.5	11.8231
3102	12.426
3102.5	12.6345
3103	12.5777
3103.5	11.8967
3104	11.0837
3104.5	10.0678
3105	9.17302
3105.5	8.39038
3106	7.99
3106.5	7.86104
3107	7.94533
3107.5	8.37156
3108	8.85404
3108.5	9.41094
3109	9.91119
3109.5	10.3638
3110	10.6319
3110.5	10.7715
3111	10.7935
3111.5	10.6827
3112	10.5525
3112.5	10.4066
3113	10.3108
3113.5	10.2423
3114	10.2312
3114.5	10.2374
3115	10.2619
3115.5	10.3285
3116	10.4221
3116.5	10.573
3117	10.7664
3117.5	10.9788
3118	11.1434
3118.5	11.2334
3119	11.2309
3119.5	11.0601
3120	10.8313
3120.5	10.5171
3121	10.2263
3121.5	9.95203
3122	9.81649
3122.5	9.76788
3123	9.84486
3123.5	10.1006
3124	10.442
3124.5	10.9553
3125	11.499
3125.5	12.0642
3126	12.4492
3126.5	12.677
3127	12.6453
3127.5	12.348
3128	11.9537
3128.5	11.4789
3129	11.1184
3129.5	10.8517
3130	10.7889
3130.5	10.7486
3131	10.728
3131.5	10.5556
3132	10.3059
3132.5	9.90728
3133	9.54152
3133.5	9.20726
3134	9.15824
3134.5	9.23807
3135	9.552
3135.5	10.0121
3136	10.54
3136.5	11.0878
3137	11.6055
3137.5	12.0899
3138	12.4291
3138.5	12.6669
3139	12.6777
3139.5	12.3583
3140	11.8476
3140.5	11.0266
3141	10.2372
3141.5	9.48883
3142	9.23799
3142.5	9.23713
3143	9.75478
3143.5	10.4866
3144	11.3523
3144.5	11.9493
3145	12.324
3145.5	12.3622
3146	12.1555
3146.5	11.9093
3147	11.7771
3147.5	11.8813
3148	12.1602
3148.5	12.5413
3149	12.79
3149.5	12.7972
3150	12.3781
3150.5	11.7755
3151	10.9189
3151.5	10.2295
3152	9.6842
3152.5	9.71289
3153	9.97153
3153.5	10.6227
3154	11.2921
3154.5	11.9238
3155	12.1816
3155.5	12.2125
3156	12.0163
3156.5	11.6389
3157	11.2785
3157.5	11.0165
3158	10.8869
3158.5	10.8179
3159	10.7157
3159.5	10.476
3160	10.0761
3160.5	9.31634
3161	8.4787
3161.5	7.59106
3162	6.97636
3162.5	6.53776
3163	6.77374
3163.5	7.2736
3164	8.13196
3164.5	9.03535
3165	9.84299
3165.5	10.2496
3166	10.1853
3166.5	9.80866
3167	8.93788
3167.5	8.10272
3168	7.32904
3168.5	6.98524
3169	6.89124
3169.5	7.41535
3170	8.14727
3170.5	9.04008
3171	9.86777
3171.5	10.5728
3172	11.0542
3172.5	11.1836
3173	11.152
3173.5	10.874
3174	10.5012
3174.5	10.043
3175	9.55032
3175.5	9.08249
3176	8.67646
3176.5	8.42986
3177	8.2881
3177.5	8.50124
3178	8.88225
3178.5	9.43933
3179	10.1761
3179.5	10.9157
3180	11.5981
3180.5	12.074
3181	12.4262
3181.5	12.4572
3182	12.3489
3182.5	12.0706
3183	11.6577
3183.5	11.2015
3184	10.6863
3184.5	10.1786
3185	9.67788
3185.5	9.29259
3186	8.99013
3186.5	8.80561
3187	8.85455
3187.5	8.9965
3188	9.28664
3188.5	9.59182
3189	9.90746
3189.5	10.0674
3190	10.1098
3190.5	9.96091
3191	9.65547
3191.5	9.29421
3192	8.889
3192.5	8.56432
3193	8.30494
3193.5	8.34983
3194	8.51894
3194.5	8.89724
3195	9.44543
3195.5	10.059
3196	10.6901
3196.5	11.2036
3197	11.6063
3197.5	11.6462
3198	11.5332
3198.5	11.1493
3199	10.6073
3199.5	9.99962
3200	9.44288
3200.5	9.02667
3201	8.76472
3201.5	8.74814
3202	8.8212
3202.5	9.04297
3203	9.27841
3203.5	9.51907
3204	9.71866
3204.5	9.91696
3205	10.1136
3205.5	10.3471
3206	10.5879
3206.5	10.8278
3207	10.9899
3207.5	11.1015
3208	10.9698
3208.5	10.7782
3209	10.4975
3209.5	10.2778
3210	10.1258
3210.5	10.2
3211	10.4677
3211.5	10.8764
3212	11.3961
3212.5	11.8521
3213	12.1908
3213.5	12.2391
3214	12.1545
3214.5	11.8455
3215	11.5158
3215.5	11.1685
3216	10.9664
3216.5	10.8257
3217	10.7903
3217.5	10.7358
3218	10.6534
3218.5	10.4066
3219	10.0567
3219.5	9.60502
3220	9.14339
3220.5	8.73487
3221	8.46053
3221.5	8.32843
3222	8.2689
3222.5	8.28256
3223	8.24875
3223.5	8.1604
3224	7.95426
3224.5	7.72728
3225	7.49636
3225.5	7.39686
3226	7.3819
3226.5	7.68194
3227	8.09448
3227.5	8.65761
3228	9.24669
3228.5	9.80145
3229	10.2079
3229.5	10.4794
3230	10.6629
3230.5	10.7085
3231	10.7555
3231.5	10.8052
3232	10.9087
3232.5	11.0286
3233	11.1552
3233.5	11.2084
3234	11.2055
3234.5	10.988
3235	10.6801
3235.5	10.2221
3236	9.72648
3236.5	9.24002
3237	8.89314
3237.5	8.71983
3238	8.70079
3238.5	8.98547
3239	9.3768
3239.5	9.94462
3240	10.5322
3240.5	11.1145
3241	11.5743
3241.5	11.9181
3242	12.1419
3242.5	12.2202
3243	12.258
3243.5	12.24
3244	12.2297
3244.5	12.2252
3245	12.2499
3245.5	12.2762
3246	12.3044
3246.5	12.3092
3247	12.3033
3247.5	12.2767
3248	12.2376
3248.5	12.1903
3249	12.1045
3249.5	11.9727
3250	11.7762
3250.5	11.4102
3251	10.9702
3251.5	10.3962
3252	9.80731
3252.5	9.20825
3253	8.84592
3253.5	8.63551
3254	8.66914
3254.5	9.01748
3255	9.48224
3255.5	10.0643
3256	10.5238
3256.5	10.8854
3257	10.7434
3257.5	10.3926
3258	9.69133
3258.5	8.80258
3259	7.86082
3259.5	7.0249
3260	6.41242
3260.5	6.00781
3261	6.05142
3261.5	6.26909
3262	6.78584
3262.5	7.42335
3263	8.11043
3263.5	8.76291
3264	9.32178
3264.5	9.77934
3265	10.0158
3265.5	10.1558
3266	10.1178
3266.5	9.9331
3267	9.66635
3267.5	9.29114
3268	8.92956
3268.5	8.58514
3269	8.39726
3269.5	8.30487
3270	8.43175
3270.5	8.70304
3271	9.06428
3271.5	9.53862
3272	9.98267
3272.5	10.3822
3273	10.6262
3273.5	10.7879
3274	10.7668
3274.5	10.6449
3275	10.4506
3275.5	10.223
3276	10.009
3276.5	9.8196
3277	9.6674
3277.5	9.52231
3278	9.35118
3278.5	9.11776
3279	8.83221
3279.5	8.38531
3280	7.89465
3280.5	7.33698
3281	6.82501
3281.5	6.36151
3282	6.13727
3282.5	6.14706
3283	6.38474
3283.5	6.98955
3284	7.70933
3284.5	8.60838
3285	9.47405
3285.5	10.2988
3286	10.816
3286.5	11.1206
3287	11.1843
3287.5	10.8775
3288	10.4596
3288.5	9.89015
3289	9.35681
3289.5	8.8509
3290	8.53486
3290.5	8.32487
3291	8.25481
3291.5	8.28196
3292	8.33692
3292.5	8.4172
3293	8.5071
3293.5	8.60328
3294	8.78248
3294.5	9.0174
3295	9.33825
3295.5	9.76229
3296	10.2143
3296.5	10.6657
3297	10.9962
3297.5	11.2356
3298	11.1315
3298.5	10.8746
3299	10.3646
3299.5	9.6452
3300	8.85733
3300.5	8.08187
3301	7.43484
3301.5	6.90034
3302	6.74298
3302.5	6.7488
3303	7.03958
3303.5	7.50256
3304	8.0427
3304.5	8.64347
3305	9.18852
3305.5	9.67679
3306	9.96931
3306.5	10.1745
3307	10.2189
3307.5	10.1393
3308	9.99133
3308.5	9.72784
3309	9.44884
3309.5	9.15145
3310	8.88017
3310.5	8.63225
3311	8.4429
3311.5	8.33532
3312	8.27863
3312.5	8.35974
3313	8.49536
3313.5	8.70636
3314	8.9931
3314.5	9.30095
3315	9.62273
3315.5	9.89327
3316	10.1292
3316.5	10.2119
3317	10.2267
3317.5	10.1345
3318	9.94357
3318.5	9.72374
3319	9.50353
3319.5	9.34532
3320	9.23598
3320.5	9.27557
3321	9.3626
3321.5	9.52561
3322	9.67044
3322.5	9.78826
3323	9.76772
3323.5	9.63681
3324	9.40467
3324.5	9.02938
3325	8.64714
3325.5	8.27964
3326	8.06036
3326.5	7.93289
3327	8.08321
3327.5	8.36764
3328	8.79515
3328.5	9.33616
3329	9.86744
3329.5	10.3287
3330	10.638
3330.5	10.8561
3331	10.8382
3331.5	10.7466
3332	10.5636
3332.5	10.3714
3333	10.2014
3333.5	10.1109
3334	10.094
3334.5	10.1223
3335	10.2057
3335.5	10.2698
3336	10.3057
3336.5	10.2477
3337	10.1476
3337.5	9.9691
3338	9.77465
3338.5	9.56893
3339	9.41585
3339.5	9.30381
3340	9.25945
3340.5	9.26365
3341	9.27979
3341.5	9.27892
3342	9.22535
3342.5	9.12831
3343	8.91636
3343.5	8.67257
3344	8.37953
3344.5	8.12431
3345	7.90138
3345.5	7.81304
3346	7.82512
3346.5	7.93361
3347	8.19085
3347.5	8.48354
3348	8.82261
3348.5	9.12072
3349	9.39092
3349.5	9.55396
3350	9.66746
3350.5	9.72566
3351	9.75095
3351.5	9.78568
3352	9.86245
3352.5	10.0054
3353	10.1874
3353.5	10.4448
3354	10.706
3354.5	10.9723
3355	11.1754
3355.5	11.3321
3356	11.371
3356.5	11.31
3357	11.1852
3357.5	10.9456
3358	10.683
3358.5	10.3853
3359	10.084
3359.5	9.78769
3360	9.51812
3360.5	9.28393
3361	9.07598
3361.5	8.93511
3362	8.82609
3362.5	8.76975
3363	8.78156
3363.5	8.82806
3364	8.94697
3364.5	9.09613
3365	9.27142
3365.5	9.44533
3366	9.60024
3366.5	9.71525
3367	9.76284
3367.5	9.77261
3368	9.69172
3368.5	9.57006
3369	9.40742
3369.5	9.20112
3370	8.98581
3370.5	8.76121
3371	8.54271
3371.5	8.32887
3372	8.1384
3372.5	7.9707
3373	7.8296
3373.5	7.76414
3374	7.74782
3374.5	7.84236
3375	8.05712
3375.5	8.34524
3376	8.7984
3376.5	9.29913
3377	9.86464
3377.5	10.4422
3378	11.0025
3378.5	11.4874
3379	11.8597
3379.5	12.1571
3380	12.2097
3380.5	12.1837
3381	12.0352
3381.5	11.7787
3382	11.4792
3382.5	11.1211
3383	10.7546
3383.5	10.3817
3384	10.0297
3384.5	9.69634
3385	9.39607
3385.5	9.15535
3386	8.95034
3386.5	8.84223
3387	8.80928
3387.5	8.84429
3388	9.01974
3388.5	9.24631
3389	9.5586
3389.5	9.90786
3390	10.2674
3390.5	10.576
3391	10.808
3391.5	10.9596
3392	10.9403
3392.5	10.8513
3393	10.6385
3393.5	10.3649
3394	10.0613
3394.5	9.76809
3395	9.51785
3395.5	9.32021
3396	9.2338
3396.5	9.19033
3397	9.21894
3397.5	9.24813
3398	9.27605
3398.5	9.22266
3399	9.11608
3399.5	8.93359
3400	8.65698
3400.5	8.34745
3401	7.997
3401.5	7.67194
3402	7.36457
3402.5	7.19533
3403	7.09597
3403.5	7.10918
3404	7.24199
3404.5	7.42659
3405	7.69248
3405.5	7.97051
3406	8.25842
3406.5	8.50701
3407	8.72774
3407.5	8.8981
3408	9.01414
3408.5	9.10486
3409	9.15863
3409.5	9.22038
3410	9.28969
3410.5	9.42166
3411	9.59168
3411.5	9.83583
3412	10.1587
3412.5	10.5237
3413	10.9655
3413.5	11.4132
3414	11.8673
3414.5	12.2419
3415	12.5508
3415.5	12.7079
3416	12.6573
3416.5	12.4818
3417	12.0013
3417.5	11.4177
3418	10.7019
3418.5	9.92178
3419	9.15567
3419.5	8.48384
3420	7.99862
3420.5	7.6332
3421	7.67376
3421.5	7.87529
3422	8.31776
3422.5	8.98128
3423	9.71569
3423.5	10.508
3424	11.2025
3424.5	11.8256
3425	12.1389
3425.5	12.3112
3426	12.2528
3426.5	11.9689
3427	11.5877
3427.5	11.0672
3428	10.5407
3428.5	10.0091
3429	9.57383
3429.5	9.19305
3430	8.91089
3430.5	8.7111
3431	8.54787
3431.5	8.41793
3432	8.26589
3432.5	8.09197
3433	7.86098
3433.5	7.61971
3434	7.36955
3434.5	7.18204
3435	7.03903
3435.5	7.08862
3436	7.26884
3436.5	7.59957
3437	8.16258
3437.5	8.80542
3438	9.57186
3438.5	10.3298
3439	11.0759
3439.5	11.6222
3440	12.0192
3440.5	12.216
3441	12.0848
3441.5	11.822
3442	11.3387
3442.5	10.8136
3443	10.261
3443.5	9.86887
3444	9.6134
3444.5	9.57164
3445	9.87874
3445.5	10.3589
3446	11.1975
3446.5	12.2243
3447	13.3949
3447.5	14.7393
3448	16.0997
3448.5	17.4762
3449	18.7708
3449.5	20.0077
3450	21.0572
3450.5	21.9449
3451	22.6882
3451.5	23.0538
3452	23.2381
3452.5	23.0966
3453	22.5985
3453.5	21.9048
3454	20.7799
3454.5	19.474
3455	17.9804
3455.5	16.3265
3456	14.6654
3456.5	13.0408
3457	11.5988
3457.5	10.2737
3458	9.35536
3458.5	8.66049
3459	8.23522
3459.5	8.18773
3460	8.28461
3460.5	8.62285
3461	9.05254
3461.5	9.53525
3462	9.99457
3462.5	10.3892
3463	10.6929
3463.5	10.805
3464	10.8206
3464.5	10.633
3465	10.3247
3465.5	9.93347
3466	9.4249
3466.5	8.91177
3467	8.39399
3467.5	7.9616
3468	7.58873
3468.5	7.39112
3469	7.33785
3469.5	7.40027
3470	7.69368
3470.5	8.0543
3471	8.52055
3471.5	9.01037
3472	9.49658
3472.5	9.89724
3473	10.203
3473.5	10.4201
3474	10.4612
3474.5	10.4468
3475	10.3446
3475.5	10.2345
3476	10.1297
3476.5	10.1148
3477	10.173
3477.5	10.3104
3478	10.5537
3478.5	10.8164
3479	11.0898
3479.5	11.2763
3480	11.4055
3480.5	11.3055
3481	11.0912
3481.5	10.7326
3482	10.2287
3482.5	9.69444
3483	9.15469
3483.5	8.73309
3484	8.38832
3484.5	8.39749
3485	8.58644
3485.5	9.04051
3486	9.83616
3486.5	10.7794
3487	11.9813
3487.5	13.2698
3488	14.6206
3488.5	15.9341
3489	17.1719
3489.5	18.2806
3490	19.144
3490.5	19.8708
3491	20.2683
3491.5	20.4473
3492	20.443
3492.5	20.0879
3493	19.605
3493.5	18.91
3494	18.0464
3494.5	17.1023
3495	16.0391
3495.5	14.9631
3496	13.8745
3496.5	12.8599
3497	11.9048
3497.5	11.0744
3498	10.4095
3498.5	9.84202
3499	9.52574
3499.5	9.33193
3500	9.27723
