#Imported=	16.12.2021 13:58:45
60	56.0383
60.5	55.1159
61	54.4022
61.5	53.9309
62	53.7053
62.5	53.7855
63	54.1912
63.5	54.7914
64	55.5285
64.5	56.3538
65	57.2637
65.5	58.3396
66	59.6156
66.5	61.0958
67	62.8125
67.5	64.7247
68	66.8995
68.5	69.4523
69	72.4059
69.5	75.7978
70	79.4734
70.5	83.0986
71	86.231
71.5	88.7238
72	90.5833
72.5	91.9397
73	93.2221
73.5	94.7341
74	96.5214
74.5	98.3886
75	100.027
75.5	101.127
76	101.61
76.5	101.596
77	101.411
77.5	101.238
78	101.148
78.5	100.975
79	100.44
79.5	99.3825
80	97.8485
80.5	95.9578
81	94.0788
81.5	92.4908
82	91.3538
82.5	90.546
83	89.9525
83.5	89.4178
84	88.8763
84.5	88.4154
85	88.1629
85.5	88.2037
86	88.6354
86.5	89.3031
87	89.9921
87.5	90.4878
88	90.6911
88.5	90.5348
89	90.0944
89.5	89.5851
90	89.2002
90.5	89.0441
91	89.137
91.5	89.4283
92	89.6804
92.5	89.688
93	89.3021
93.5	88.5478
94	87.4698
94.5	86.2519
95	85.0286
95.5	83.7552
96	82.2788
96.5	80.3827
97	77.7759
97.5	74.6517
98	71.3856
98.5	68.509
99	66.4149
99.5	65.5045
100	65.4991
100.5	65.6979
101	65.3974
101.5	64.2756
102	62.2631
102.5	59.8145
103	57.7898
103.5	56.8306
104	57.0323
104.5	58.0295
105	59.1511
105.5	59.5013
106	58.7556
106.5	56.9144
107	54.6008
107.5	52.4293
108	51.0816
108.5	50.6336
109	50.9598
109.5	51.6261
110	52.2879
110.5	52.6532
111	52.7352
111.5	52.6791
112	52.626
112.5	52.6456
113	52.7146
113.5	52.6763
114	52.3606
114.5	51.5793
115	50.3743
115.5	48.8519
116	47.2854
116.5	46.1138
117	45.7
117.5	46.2064
118	47.4397
118.5	49.1246
119	50.6606
119.5	51.5958
120	51.6215
120.5	51.0063
121	50.008
121.5	49.0118
122	48.2938
122.5	47.857
123	47.5061
123.5	47.0461
124	46.3177
124.5	45.378
125	44.4184
125.5	43.6831
126	43.259
126.5	43.1981
127	43.4597
127.5	43.924
128	44.508
128.5	45.1352
129	45.7467
129.5	46.2482
130	46.56
130.5	46.599
131	46.3563
131.5	45.9283
132	45.3827
132.5	44.8006
133	44.2204
133.5	43.6241
134	42.9907
134.5	42.3283
135	41.6969
135.5	41.1911
136	40.9764
136.5	41.1533
137	41.6952
137.5	42.5939
138	43.697
138.5	44.8129
139	45.6288
139.5	46.0171
140	45.8986
140.5	45.2813
141	44.4
141.5	43.504
142	42.8746
142.5	42.5824
143	42.6411
143.5	42.8758
144	43.1133
144.5	43.1262
145	42.8602
145.5	42.3003
146	41.4889
146.5	40.5496
147	39.6248
147.5	38.9405
148	38.6469
148.5	38.9257
149	39.6584
149.5	40.6934
150	41.7309
150.5	42.4302
151	42.6043
151.5	42.2773
152	41.6388
152.5	40.8695
153	40.1647
153.5	39.5882
154	39.1332
154.5	38.7687
155	38.5422
155.5	38.5553
156	38.8751
156.5	39.48
157	40.1602
157.5	40.7037
158	40.8736
158.5	40.6598
159	40.1362
159.5	39.5368
160	39.038
160.5	38.7081
161	38.5251
161.5	38.4281
162	38.4707
162.5	38.7787
163	39.4895
163.5	40.7835
164	42.5014
164.5	44.4497
165	46.2411
165.5	47.634
166	48.5392
166.5	49.1189
167	49.6281
167.5	50.356
168	51.4236
168.5	52.7146
169	53.9705
169.5	54.9177
170	55.2868
170.5	54.9073
171	53.8574
171.5	52.2878
172	50.4827
172.5	48.649
173	46.9689
173.5	45.4917
174	44.201
174.5	42.9956
175	41.7943
175.5	40.5917
176	39.457
176.5	38.4987
177	37.8975
177.5	37.5757
178	37.4003
178.5	37.1444
179	36.6142
179.5	35.6731
180	34.3833
180.5	33.0848
181	32.1172
181.5	31.6774
182	31.7683
182.5	32.2698
183	32.7084
183.5	32.7091
184	32.0543
184.5	30.9113
185	29.548
185.5	28.428
186	27.9457
186.5	28.3238
187	29.2833
187.5	30.4998
188	31.5515
188.5	32.1438
189	32.0719
189.5	31.5171
190	30.8146
190.5	30.2715
191	30.1071
191.5	30.3777
192	31.0847
192.5	31.889
193	32.5367
193.5	32.7718
194	32.5371
194.5	31.7894
195	30.6684
195.5	29.4465
196	28.381
196.5	27.6138
197	27.1955
197.5	27.1402
198	27.2774
198.5	27.4676
199	27.6098
199.5	27.7038
200	27.8158
200.5	28.0527
201	28.5027
201.5	29.2468
202	30.1243
202.5	30.9693
203	31.5527
203.5	31.7645
204	31.5307
204.5	30.9858
205	30.4414
205.5	30.1794
206	30.3001
206.5	30.7534
207	31.3521
207.5	31.7517
208	31.7125
208.5	31.1964
209	30.3965
209.5	29.511
210	28.74
210.5	28.1541
211	27.7018
211.5	27.2546
212	26.7926
212.5	26.4036
213	26.2091
213.5	26.3391
214	26.7742
214.5	27.2661
215	27.5684
215.5	27.5692
216	27.3191
216.5	27.0337
217	27.0531
217.5	27.591
218	28.6202
218.5	29.8552
219	30.9756
219.5	31.6898
220	31.8767
220.5	31.5363
221	30.9968
221.5	30.4766
222	30.1801
222.5	30.1569
223	30.4176
223.5	30.8655
224	31.3226
224.5	31.6322
225	31.7083
225.5	31.541
226	31.1687
226.5	30.7978
227	30.6398
227.5	30.8545
228	31.4087
228.5	32.2405
229	33.174
229.5	34.0498
230	34.7238
230.5	35.2287
231	35.6046
231.5	35.8831
232	36.1092
232.5	36.3088
233	36.5556
233.5	36.971
234	37.736
234.5	38.9249
235	40.526
235.5	42.5173
236	44.671
236.5	46.8245
237	48.8741
237.5	50.8448
238	52.7982
238.5	54.8117
239	56.9249
239.5	59.176
240	61.5463
240.5	64.0141
241	66.5331
241.5	68.9678
242	71.0803
242.5	72.5301
243	73.0662
243.5	72.5266
244	71.2357
244.5	69.6026
245	68.0624
245.5	66.8618
246	65.9651
246.5	64.9021
247	63.1563
247.5	60.3176
248	56.4437
248.5	52.0166
249	47.7332
249.5	44.3764
250	42.3749
250.5	41.8304
251	42.1271
251.5	42.796
252	43.3056
252.5	43.3569
253	42.7649
253.5	41.7682
254	40.652
254.5	39.7226
255	39.1749
255.5	39.1329
256	39.627
256.5	40.391
257	41.0943
257.5	41.4388
258	41.3358
258.5	40.8131
259	40.2036
259.5	39.8787
260	40.3121
260.5	41.3795
261	42.8816
261.5	44.4082
262	45.5727
262.5	46.0457
263	45.8033
263.5	45.0846
264	44.2109
264.5	43.4757
265	43.0275
265.5	42.9197
266	43.0031
266.5	43.1022
267	43.0166
267.5	42.7041
268	42.2148
268.5	41.758
269	41.5478
269.5	41.8473
270	42.6122
270.5	43.6417
271	44.5742
271.5	45.1606
272	45.2551
272.5	44.9886
273	44.6106
273.5	44.3811
274	44.2979
274.5	44.1514
275	43.6082
275.5	42.5556
276	41.0201
276.5	39.3421
277	38.0245
277.5	37.5314
278	37.8281
278.5	38.6945
279	39.8686
279.5	41.0382
280	42.1102
280.5	43.1472
281	44.2508
281.5	45.3827
282	46.3539
282.5	46.968
283	47.0012
283.5	46.5857
284	45.9829
284.5	45.6392
285	45.7687
285.5	46.4428
286	47.5076
286.5	48.6934
287	49.8
287.5	50.7766
288	51.7376
288.5	52.8722
289	54.2129
289.5	55.6904
290	57.0838
290.5	58.1492
291	58.5835
291.5	58.2644
292	57.3236
292.5	55.7736
293	53.8141
293.5	51.5507
294	49.0697
294.5	46.555
295	44.2608
295.5	42.4924
296	41.3965
296.5	41.1389
297	41.5126
297.5	42.1794
298	42.6623
298.5	42.5582
299	41.7225
299.5	40.2755
300	38.6241
300.5	37.1362
301	36.0958
301.5	35.5525
302	35.511
302.5	35.7299
303	36.0945
303.5	36.593
304	37.1948
304.5	37.8458
305	38.3823
305.5	38.5967
306	38.2498
306.5	37.4533
307	36.4785
307.5	35.742
308	35.5379
308.5	36.011
309	37.0678
309.5	38.2181
310	38.9485
310.5	38.9517
311	38.2691
311.5	37.0586
312	35.7788
312.5	34.808
313	34.547
313.5	34.9083
314	35.6686
314.5	36.4693
315	36.9879
315.5	36.9733
316	36.4621
316.5	35.6857
317	35.0754
317.5	34.958
318	35.4689
318.5	36.5549
319	37.8526
319.5	39.04
320	39.8932
320.5	40.4744
321	41.1383
321.5	42.2922
322	44.1463
322.5	46.7844
323	49.7719
323.5	52.6816
324	55.0548
324.5	56.7872
325	58.1011
325.5	59.52
326	61.4685
326.5	64.3757
327	68.1048
327.5	72.4279
328	76.9625
328.5	81.3083
329	85.3112
329.5	89.0354
330	92.6505
330.5	96.266
331	99.8642
331.5	103.284
332	106.089
332.5	108.047
333	108.955
333.5	108.712
334	107.555
334.5	105.541
335	102.875
335.5	99.7217
336	96.0566
336.5	92.0302
337	87.7022
337.5	83.1186
338	78.41
338.5	73.6899
339	69.1352
339.5	64.9317
340	61.4692
340.5	58.8474
341	57.0421
341.5	55.9891
342	55.192
342.5	54.2489
343	52.7759
343.5	50.7451
344	48.3654
344.5	46.1522
345	44.4559
345.5	43.5318
346	43.1245
346.5	42.8856
347	42.3641
347.5	41.3402
348	39.8238
348.5	38.1526
349	36.6575
349.5	35.573
350	34.8643
350.5	34.3747
351	33.9426
351.5	33.4961
352	33.1658
352.5	33.2092
353	33.7227
353.5	34.7332
354	36.0162
354.5	37.2648
355	38.1479
355.5	38.5518
356	38.5173
356.5	38.2019
357	37.8088
357.5	37.4026
358	36.9733
358.5	36.4888
359	35.9505
359.5	35.4561
360	35.1455
360.5	35.1493
361	35.3539
361.5	35.5835
362	35.573
362.5	35.192
363	34.4074
363.5	33.4369
364	32.6319
364.5	32.3776
365	32.7347
365.5	33.6244
366	34.8818
366.5	36.1903
367	37.3443
367.5	38.2109
368	38.7916
368.5	39.0941
369	39.1717
369.5	39.044
370	38.663
370.5	38.0753
371	37.3109
371.5	36.4409
372	35.6008
372.5	34.9607
373	34.6618
373.5	34.7444
374	35.2467
374.5	35.9861
375	36.7428
375.5	37.201
376	37.1875
376.5	36.5648
377	35.4546
377.5	34.1413
378	32.8597
378.5	31.7819
379	30.9421
379.5	30.3235
380	29.7967
380.5	29.2996
381	28.847
381.5	28.5019
382	28.3525
382.5	28.4334
383	28.6916
383.5	29.0526
384	29.3892
384.5	29.6103
385	29.6175
385.5	29.4595
386	29.1636
386.5	28.7669
387	28.3104
387.5	27.8036
388	27.2664
388.5	26.735
389	26.2989
389.5	26.0494
390	26.0452
390.5	26.3119
391	26.7266
391.5	27.1606
392	27.4698
392.5	27.5999
393	27.5635
393.5	27.511
394	27.5918
394.5	27.9227
395	28.4181
395.5	28.9377
396	29.2479
396.5	29.185
397	28.5886
397.5	27.5053
398	26.1465
398.5	24.8638
399	23.9879
399.5	23.7388
400	24.256
400.5	25.2593
401	26.4564
401.5	27.4642
402	28.0706
402.5	28.1972
403	28.1297
403.5	28.1022
404	28.2548
404.5	28.483
405	28.6081
405.5	28.4547
406	28.0801
406.5	27.7115
407	27.7045
407.5	28.1597
408	28.9534
408.5	29.6543
409	29.9049
409.5	29.4616
410	28.6059
410.5	27.7386
411	27.3402
411.5	27.5436
412	28.1342
412.5	28.6205
413	28.6872
413.5	28.199
414	27.5334
414.5	27.1243
415	27.4253
415.5	28.4401
416	29.9751
416.5	31.4817
417	32.5883
417.5	33.0545
418	33.0546
418.5	32.8287
419	32.6393
419.5	32.617
420	32.7375
420.5	32.8166
421	32.6667
421.5	32.1832
422	31.4916
422.5	30.8316
423	30.578
423.5	30.8984
424	31.8413
424.5	33.2203
425	34.5601
425.5	35.3818
426	35.508
426.5	35.1549
427	34.7345
427.5	34.7454
428	35.4658
428.5	37.0061
429	38.9253
429.5	40.7924
430	42.1554
430.5	42.9548
431	43.2499
431.5	43.269
432	43.1692
432.5	43.0017
433	42.8037
433.5	42.6426
434	42.7024
434.5	43.1523
435	44.1297
435.5	45.4758
436	46.8688
436.5	47.9521
437	48.5798
437.5	48.8203
438	48.8956
438.5	49.1046
439	49.5677
439.5	50.1526
440	50.5412
440.5	50.4675
441	49.9768
441.5	49.3501
442	49.019
442.5	49.2285
443	49.999
443.5	51.0741
444	51.9724
444.5	52.2649
445	51.9086
445.5	51.2084
446	50.5269
446.5	50.1314
447	50.0223
447.5	49.9577
448	49.57
448.5	48.5807
449	46.9343
449.5	44.995
450	43.2248
450.5	41.9671
451	41.2617
451.5	40.9996
452	40.8018
452.5	40.4108
453	39.7038
453.5	38.8769
454	38.2561
454.5	38.2405
455	38.9091
455.5	40.2589
456	41.9571
456.5	43.6806
457	45.0912
457.5	46.0812
458	46.6081
458.5	46.7284
459	46.6261
459.5	46.4224
460	46.2398
460.5	46.1292
461	46.1075
461.5	46.1239
462	46.1217
462.5	46.0415
463	45.889
463.5	45.7046
464	45.5569
464.5	45.4621
465	45.3109
465.5	44.8997
466	44.0589
466.5	42.6111
467	40.799
467.5	38.9333
468	37.4748
468.5	36.6692
469	36.6303
469.5	37.0759
470	37.5504
470.5	37.6498
471	37.3382
471.5	36.7829
472	36.28
472.5	36.0294
473	36.0512
473.5	36.1455
474	36.0491
474.5	35.5432
475	34.6702
475.5	33.6395
476	32.6906
476.5	31.9286
477	31.3566
477.5	30.9232
478	30.5653
478.5	30.3012
479	30.1584
479.5	30.1074
480	30.0308
480.5	29.7508
481	29.177
481.5	28.336
482	27.4627
482.5	26.7701
483	26.3887
483.5	26.234
484	26.1458
484.5	25.947
485	25.6054
485.5	25.2475
486	25.0984
486.5	25.2796
487	25.7528
487.5	26.278
488	26.6314
488.5	26.6982
489	26.5581
489.5	26.3883
490	26.3915
490.5	26.6538
491	27.1595
491.5	27.6972
492	28.0786
492.5	28.1746
493	28.0161
493.5	27.6738
494	27.3123
494.5	27.0717
495	27.0876
495.5	27.3237
496	27.6887
496.5	28.0089
497	28.1362
497.5	28.0185
498	27.7604
498.5	27.5242
499	27.444
499.5	27.5154
500	27.658
500.5	27.7883
501	27.926
501.5	28.2189
502	28.883
502.5	29.9403
503	31.1947
503.5	32.1824
504	32.557
504.5	32.0639
505	31.0577
505.5	29.9662
506	29.2478
506.5	28.9519
507	28.8155
507.5	28.2995
508	27.0654
508.5	25.041
509	22.9057
509.5	21.3848
510	21.3138
510.5	22.5886
511	24.944
511.5	27.7397
512	30.281
512.5	32.0932
513	33.1029
513.5	33.5322
514	33.6168
514.5	33.6746
515	33.8465
515.5	34.1707
516	34.559
516.5	34.9015
517	35.0781
517.5	35.0546
518	34.8559
518.5	34.6473
519	34.6008
519.5	34.905
520	35.4778
520.5	36.1363
521	36.5733
521.5	36.6405
522	36.3084
522.5	35.7766
523	35.2817
523.5	34.9964
524	34.8676
524.5	34.7351
525	34.3813
525.5	33.7771
526	33.039
526.5	32.4686
527	32.2963
527.5	32.6417
528	33.3137
528.5	34.0359
529	34.4808
529.5	34.5273
530	34.15
530.5	33.4324
531	32.5713
531.5	31.6885
532	30.8703
532.5	30.1528
533	29.5998
533.5	29.2395
534	29.1198
534.5	29.3207
535	29.7765
535.5	30.4192
536	31.0816
536.5	31.5667
537	31.6452
537.5	31.2489
538	30.4694
538.5	29.5255
539	28.8083
539.5	28.6294
540	29.1433
540.5	30.0905
541	31.1351
541.5	31.8514
542	32.0121
542.5	31.4781
543	30.4978
543.5	29.3448
544	28.3074
544.5	27.5326
545	27.0784
545.5	26.9185
546	26.9498
546.5	27.1281
547	27.403
547.5	27.7353
548	28.0859
548.5	28.3972
549	28.6012
549.5	28.5908
550	28.319
550.5	27.719
551	26.8376
551.5	25.8473
552	25.0249
552.5	24.6557
553	24.8786
553.5	25.7769
554	27.0334
554.5	28.3569
555	29.3986
555.5	29.9811
556	29.9756
556.5	29.4821
557	28.6795
557.5	27.7233
558	26.7995
558.5	26.0196
559	25.482
559.5	25.169
560	25.0733
560.5	25.159
561	25.3791
561.5	25.7329
562	26.1883
562.5	26.706
563	27.2097
563.5	27.598
564	27.7571
564.5	27.5856
565	27.1125
565.5	26.3727
566	25.5142
566.5	24.6988
567	24.0916
567.5	23.7338
568	23.619
568.5	23.7009
569	23.8634
569.5	24.0561
570	24.2766
570.5	24.5597
571	24.9525
571.5	25.4186
572	25.8577
572.5	26.0778
573	25.9919
573.5	25.573
574	24.9474
574.5	24.3305
575	23.89
575.5	23.6734
576	23.5989
576.5	23.5281
577	23.3268
577.5	22.9435
578	22.4115
578.5	21.8961
579	21.5973
579.5	21.7161
580	22.2952
580.5	23.3305
581	24.5337
581.5	25.5747
582	26.0641
582.5	25.9773
583	25.3986
583.5	24.5947
584	23.8757
584.5	23.4011
585	23.1198
585.5	22.8715
586	22.5346
586.5	22.1626
587	21.9253
587.5	22.0537
588	22.5112
588.5	23.109
589	23.5239
589.5	23.6172
590	23.4485
590.5	23.3248
591	23.4943
591.5	24.0873
592	24.8361
592.5	25.4375
593	25.6408
593.5	25.5674
594	25.5491
594.5	26.0081
595	27.0915
595.5	28.7178
596	30.369
596.5	31.5903
597	32.0521
597.5	31.9746
598	31.6164
598.5	31.2751
599	31.0662
599.5	30.941
600	30.7724
600.5	30.5256
601	30.3184
601.5	30.3518
602	30.8011
602.5	31.752
603	33.0026
603.5	34.3273
604	35.4572
604.5	36.2479
605	36.5999
605.5	36.611
606	36.3972
606.5	36.1044
607	35.9067
607.5	35.9129
608	36.1134
608.5	36.3188
609	36.2225
609.5	35.5789
610	34.3687
610.5	32.7654
611	31.3064
611.5	30.4902
612	30.7536
612.5	31.8836
613	33.4666
613.5	34.8244
614	35.5195
614.5	35.291
615	34.4448
615.5	33.3959
616	32.612
616.5	32.2962
617	32.4855
617.5	33.0389
618	33.7137
618.5	34.3727
619	34.9633
619.5	35.4937
620	35.9398
620.5	36.2547
621	36.3644
621.5	36.2197
622	35.9694
622.5	35.8127
623	35.948
623.5	36.3875
624	36.9955
624.5	37.4549
625	37.5202
625.5	37.0071
626	36.1747
626.5	35.3338
627	34.859
627.5	34.8661
628	35.3215
628.5	35.9388
629	36.438
629.5	36.5954
630	36.4346
630.5	36.0267
631	35.4376
631.5	34.7251
632	33.8699
632.5	32.8818
633	31.8357
633.5	30.8436
634	30.0152
634.5	29.4147
635	29.1447
635.5	29.1747
636	29.5386
636.5	30.2558
637	31.2178
637.5	32.3067
638	33.3264
638.5	34.1258
639	34.5638
639.5	34.6969
640	34.6043
640.5	34.363
641	34.0408
641.5	33.608
642	33.0002
642.5	32.1923
643	31.1583
643.5	29.9822
644	28.7826
644.5	27.7369
645	26.9637
645.5	26.5697
646	26.6247
646.5	27.0239
647	27.6922
647.5	28.4755
648	29.226
648.5	29.7847
649	30.0662
649.5	30.014
650	29.5549
650.5	28.799
651	27.8292
651.5	26.7864
652	25.8355
652.5	25.1917
653	25.0238
653.5	25.4167
654	26.4631
654.5	27.8454
655	29.2041
655.5	30.0612
656	30.2501
656.5	29.8289
657	29.2952
657.5	29.2218
658	30.13
658.5	31.8425
659	33.8301
659.5	35.2288
660	35.5516
660.5	34.6398
661	32.8966
661.5	31.0951
662	29.8107
662.5	29.2279
663	29.2101
663.5	29.623
664	30.2651
664.5	31.1141
665	32.1465
665.5	33.1634
666	33.8139
666.5	33.7261
667	32.8264
667.5	31.209
668	29.4442
668.5	28.0607
669	27.5754
669.5	27.8575
670	28.631
670.5	29.3894
671	29.7398
671.5	29.4682
672	28.7247
672.5	27.8084
673	27.0022
673.5	26.4027
674	25.9482
674.5	25.4569
675	24.7743
675.5	23.8389
676	22.7649
676.5	21.7748
677	21.1487
677.5	21.0049
678	21.3186
678.5	21.9864
679	22.7015
679.5	23.2377
680	23.4271
680.5	23.3091
681	22.9691
681.5	22.5802
682	22.2596
682.5	22.0565
683	21.9076
683.5	21.7461
684	21.5355
684.5	21.319
685	21.1656
685.5	21.1002
686	21.0495
686.5	20.8573
687	20.4027
687.5	19.6737
688	18.7559
688.5	17.8941
689	17.29
689.5	17.0855
690	17.2136
690.5	17.6099
691	18.1636
691.5	18.8165
692	19.5852
692.5	20.4505
693	21.3622
693.5	22.1953
694	22.8248
694.5	23.1195
695	23.0167
695.5	22.5871
696	21.8971
696.5	21.1265
697	20.4427
697.5	20.0571
698	20.0091
698.5	20.2799
699	20.744
699.5	21.2008
700	21.5015
700.5	21.5938
701	21.5208
701.5	21.3115
702	21.0018
702.5	20.5795
703	20.0351
703.5	19.4727
704	19.0604
704.5	18.9834
705	19.2455
705.5	19.7133
706	20.05
706.5	19.9853
707	19.3206
707.5	18.3421
708	17.4204
708.5	17.002
709	17.1781
709.5	17.836
710	18.5705
710.5	19.0365
711	19.0629
711.5	18.891
712	18.86
712.5	19.3342
713	20.2583
713.5	21.3875
714	22.3165
714.5	22.8104
715	22.7924
715.5	22.4835
716	22.1166
716.5	21.8072
717	21.4807
717.5	20.9891
718	20.2168
718.5	19.2826
719	18.4075
719.5	17.8331
720	17.6063
720.5	17.6359
721	17.6568
721.5	17.5158
722	17.2367
722.5	17.0766
723	17.3051
723.5	18.0359
724	19.0142
724.5	19.8182
725	20.0509
725.5	19.6311
726	18.703
726.5	17.7784
727	17.2139
727.5	17.1702
728	17.3869
728.5	17.5785
729	17.5672
729.5	17.4501
730	17.4857
730.5	17.8117
731	18.3068
731.5	18.5916
732	18.3818
732.5	17.6159
733	16.6033
733.5	15.8417
734	15.7312
734.5	16.2441
735	17.0395
735.5	17.7012
736	18.0341
736.5	18.1125
737	18.1882
737.5	18.4441
738	18.8517
738.5	19.1714
739	19.1928
739.5	18.817
740	18.2516
740.5	17.7546
741	17.5779
741.5	17.6895
742	17.981
742.5	18.2849
743	18.4993
743.5	18.5917
744	18.5769
744.5	18.4608
745	18.2055
745.5	17.8436
746	17.4509
746.5	17.1797
747	17.1393
747.5	17.4076
748	17.947
748.5	18.6059
749	19.2011
749.5	19.5488
750	19.5377
750.5	19.0527
751	18.2833
751.5	17.4482
752	16.8507
752.5	16.6261
753	16.7703
753.5	17.0263
754	17.1094
754.5	16.8024
755	16.2342
755.5	15.6753
756	15.5043
756.5	15.8217
757	16.5495
757.5	17.334
758	17.7848
758.5	17.5564
759	16.6787
759.5	15.4127
760	14.1724
760.5	13.355
761	13.1875
761.5	13.6781
762	14.462
762.5	15.1834
763	15.5726
763.5	15.6417
764	15.5801
764.5	15.675
765	16.047
765.5	16.6265
766	17.1376
766.5	17.3692
767	17.2849
767.5	17.0757
768	16.9514
768.5	16.9993
769	17.1398
769.5	17.2178
770	17.179
770.5	17.1012
771	17.1497
771.5	17.3776
772	17.7116
772.5	17.9758
773	18.0924
773.5	18.142
774	18.3294
774.5	18.7567
775	19.3312
775.5	19.7473
776	19.7663
776.5	19.4062
777	19.012
777.5	18.9755
778	19.3901
778.5	19.9751
779	20.1769
779.5	19.708
780	18.6466
780.5	17.5012
781	16.8641
781.5	17.0475
782	17.8014
782.5	18.5502
783	18.7417
783.5	18.3094
784	17.534
784.5	16.8837
785	16.6312
785.5	16.7688
786	17.0239
786.5	17.1093
787	16.9226
787.5	16.6562
788	16.601
788.5	17.0912
789	18.1005
789.5	19.4675
790	20.8699
790.5	21.9795
791	22.5457
791.5	22.4967
792	21.9713
792.5	21.08
793	20.0369
793.5	18.9871
794	18.0806
794.5	17.4094
795	17.0868
795.5	17.1875
796	17.6001
796.5	18.1699
797	18.6507
797.5	18.8868
798	18.7964
798.5	18.5203
799	18.1823
799.5	17.8467
800	17.4807
800.5	17.0176
801	16.4664
801.5	15.9467
802	15.6331
802.5	15.5718
803	15.6682
803.5	15.7396
804	15.6789
804.5	15.5473
805	15.5662
805.5	15.8835
806	16.4972
806.5	17.1419
807	17.5386
807.5	17.5091
808	17.2674
808.5	17.1195
809	17.3591
809.5	17.8974
810	18.4624
810.5	18.7054
811	18.5574
811.5	18.2012
812	18.0395
812.5	18.3067
813	19.0151
813.5	19.7243
814	20.0089
814.5	19.5646
815	18.5988
815.5	17.479
816	16.6763
816.5	16.3987
817	16.6691
817.5	17.1448
818	17.5408
818.5	17.6588
819	17.5724
819.5	17.4012
820	17.2373
820.5	17.0308
821	16.5924
821.5	15.8054
822	14.7474
822.5	13.7344
823	13.1771
823.5	13.3595
824	14.2938
824.5	15.4889
825	16.4117
825.5	16.684
826	16.3759
826.5	15.8057
827	15.4459
827.5	15.495
828	15.8718
828.5	16.1875
829	16.1658
829.5	15.7842
830	15.3308
830.5	15.1475
831	15.3781
831.5	15.9072
832	16.5069
832.5	16.9809
833	17.3132
833.5	17.5944
834	17.8846
834.5	18.0947
835	18.0639
835.5	17.7666
836	17.359
836.5	17.1661
837	17.3626
837.5	17.8236
838	17.9874
838.5	17.2313
839	15.1724
839.5	12.2051
840	9.00034
840.5	6.39874
841	4.77692
841.5	4.21128
842	4.10701
842.5	4.10301
843	4.18392
843.5	4.68219
844	6.10042
844.5	8.61094
845	11.7917
845.5	14.9241
846	17.2493
846.5	18.4373
847	18.441
847.5	17.996
848	17.6736
848.5	17.8973
849	18.5943
849.5	19.4758
850	20.1243
850.5	20.3404
851	20.104
851.5	19.7431
852	19.5345
852.5	19.6532
853	19.949
853.5	20.1566
854	20.0011
854.5	19.4569
855	18.677
855.5	18.0142
856	17.7077
856.5	17.8782
857	18.2419
857.5	18.4949
858	18.3395
858.5	17.7645
859	16.8831
859.5	15.9893
860	15.333
860.5	15.1553
861	15.4353
861.5	16.0967
862	16.9935
862.5	17.88
863	18.5687
863.5	18.9548
864	19.097
864.5	19.0916
865	19.0774
865.5	19.1062
866	19.1527
866.5	19.1576
867	19.107
867.5	19.0504
868	19.0506
868.5	19.1207
869	19.189
869.5	19.1802
870	19.0886
870.5	19.0582
871	19.2659
871.5	19.8755
872	20.7531
872.5	21.6696
873	22.3113
873.5	22.5355
874	22.301
874.5	21.8076
875	21.2511
875.5	20.7656
876	20.3627
876.5	20.0122
877	19.688
877.5	19.3977
878	19.1927
878.5	19.1274
879	19.2309
879.5	19.5671
880	20.114
880.5	20.8211
881	21.5537
881.5	22.0972
882	22.2175
882.5	21.7672
883	20.8814
883.5	19.8118
884	18.9699
884.5	18.6416
885	19.0618
885.5	19.9688
886	21.0673
886.5	21.9783
887	22.4936
887.5	22.5056
888	22.0862
888.5	21.3932
889	20.5474
889.5	19.748
890	19.2049
890.5	19.2379
891	19.8603
891.5	20.9571
892	22.0883
892.5	22.7503
893	22.5368
893.5	21.5902
894	20.4025
894.5	19.6311
895	19.5549
895.5	20.0698
896	20.7014
896.5	20.9446
897	20.5772
897.5	19.8296
898	19.1577
898.5	18.9946
899	19.3986
899.5	20.2099
900	21.2005
900.5	22.144
901	22.9332
901.5	23.4738
902	23.7225
902.5	23.6
903	23.1856
903.5	22.6435
904	22.1183
904.5	21.6197
905	21.0164
905.5	20.1249
906	19.0186
906.5	17.9937
907	17.52
907.5	17.824
908	18.9247
908.5	20.2789
909	21.3297
909.5	21.5409
910	21.0532
910.5	20.1788
911	19.4264
911.5	19.1171
912	19.3588
912.5	19.9179
913	20.4723
913.5	20.7124
914	20.5843
914.5	20.1839
915	19.7464
915.5	19.5157
916	19.6234
916.5	19.9957
917	20.3989
917.5	20.5931
918	20.5145
918.5	20.2749
919	20.0978
919.5	20.1328
920	20.3892
920.5	20.7268
921	20.9822
921.5	21.0907
922	21.1277
922.5	21.2169
923	21.4858
923.5	21.9551
924	22.6146
924.5	23.4175
925	24.1948
925.5	24.6828
926	24.5528
926.5	23.7112
927	22.216
927.5	20.5968
928	19.408
928.5	19.2221
929	19.8446
929.5	20.8869
930	21.7446
930.5	22.0778
931	21.8452
931.5	21.3666
932	20.9768
932.5	20.8813
933	21.0213
933.5	21.2965
934	21.6439
934.5	22.015
935	22.3295
935.5	22.4127
936	22.1502
936.5	21.5351
937	20.8955
937.5	20.6258
938	21.1161
938.5	22.1368
939	23.2653
939.5	23.9179
940	23.9157
940.5	23.4243
941	23.0246
941.5	23.2076
942	24.2739
942.5	25.8725
943	27.5254
943.5	28.7223
944	29.3778
944.5	29.5886
945	29.6011
945.5	29.6006
946	29.6047
946.5	29.5743
947	29.5379
947.5	29.6535
948	30.0233
948.5	30.6159
949	31.1821
949.5	31.4436
950	31.3013
950.5	31.0647
951	31.2355
951.5	32.3268
952	34.1149
952.5	35.9693
953	36.9218
953.5	36.6627
954	35.3734
954.5	33.9316
955	33.2874
955.5	34.0959
956	36.0986
956.5	38.5434
957	40.5195
957.5	41.5337
958	41.4762
958.5	40.5191
959	39.2237
959.5	38.0198
960	37.3075
960.5	37.2533
961	37.9615
961.5	39.1076
962	40.2859
962.5	41.0064
963	41.1341
963.5	40.7028
964	39.9523
964.5	39.1749
965	38.5135
965.5	37.9906
966	37.5895
966.5	37.3365
967	37.1897
967.5	37.0748
968	36.8969
968.5	36.6942
969	36.6987
969.5	37.2501
970	38.435
970.5	40.0624
971	41.4714
971.5	42.0861
972	41.4531
972.5	40.1264
973	38.7838
973.5	38.166
974	38.3795
974.5	39.1535
975	39.8759
975.5	40.187
976	40.0609
976.5	39.9293
977	40.1761
977.5	41.0616
978	42.3939
978.5	43.9274
979	45.3104
979.5	46.2805
980	46.5737
980.5	46.2543
981	45.6122
981.5	45.2309
982	45.6505
982.5	47.2185
983	49.8642
983.5	52.8771
984	55.5376
984.5	57.3549
985	58.3744
985.5	58.8659
986	59.3391
986.5	60.052
987	61.1093
987.5	62.4262
988	64.0496
988.5	66.0917
989	68.5396
989.5	71.265
990	73.8807
990.5	76.0359
991	77.3818
991.5	78.1148
992	78.4807
992.5	78.8062
993	79.2931
993.5	79.9704
994	80.7159
994.5	81.3888
995	81.8553
995.5	82.0734
996	82.0038
996.5	81.5516
997	80.7718
997.5	79.6978
998	78.4407
998.5	77.1075
999	75.6419
999.5	73.8715
1000	71.6283
1000.5	68.766
1001	65.6216
1001.5	62.6462
1002	60.4112
1002.5	59.0267
1003	58.3712
1003.5	57.9463
1004	57.323
1004.5	56.3343
1005	55.2112
1005.5	54.1987
1006	53.3503
1006.5	52.3737
1007	50.933
1007.5	48.9879
1008	47.0827
1008.5	46.0517
1009	46.3957
1009.5	47.9468
1010	50.0948
1010.5	51.8277
1011	52.5603
1011.5	52.148
1012	51.2034
1012.5	50.2736
1013	49.7398
1013.5	49.5789
1014	49.6011
1014.5	49.5514
1015	49.3456
1015.5	49.0578
1016	48.9143
1016.5	49.1884
1017	50.1103
1017.5	51.5866
1018	53.3757
1018.5	54.9467
1019	55.8484
1019.5	55.6617
1020	54.6815
1020.5	53.3368
1021	52.1995
1021.5	51.5965
1022	51.6631
1022.5	52.3158
1023	53.4
1023.5	54.9562
1024	56.9341
1024.5	59.2253
1025	61.6116
1025.5	63.804
1026	65.6663
1026.5	67.2546
1027	68.7887
1027.5	70.4018
1028	72.0217
1028.5	73.398
1029	74.076
1029.5	73.9062
1030	72.8961
1030.5	71.2538
1031	69.5019
1031.5	68.0209
1032	66.9829
1032.5	66.2014
1033	65.3104
1033.5	63.9711
1034	62.1442
1034.5	60.0737
1035	58.2178
1035.5	56.8348
1036	55.8658
1036.5	54.8887
1037	53.4764
1037.5	51.5107
1038	49.2788
1038.5	47.3143
1039	46.0063
1039.5	45.4256
1040	45.3341
1040.5	45.1685
1041	44.4918
1041.5	43.0846
1042	41.1334
1042.5	38.9434
1043	36.9392
1043.5	35.4136
1044	34.6639
1044.5	34.5114
1045	34.7488
1045.5	35.0437
1046	35.133
1046.5	34.9195
1047	34.5301
1047.5	34.1688
1048	34.0042
1048.5	34.0188
1049	34.1106
1049.5	34.1561
1050	34.1358
1050.5	34.1178
1051	34.2077
1051.5	34.4353
1052	34.7596
1052.5	35.0384
1053	35.1307
1053.5	34.8482
1054	34.2027
1054.5	33.2416
1055	32.1371
1055.5	31.1662
1056	30.6171
1056.5	30.6415
1057	31.126
1057.5	31.7793
1058	32.1574
1058.5	31.9527
1059	30.9572
1059.5	29.5079
1060	28.0105
1060.5	26.9833
1061	26.6604
1061.5	27.1123
1062	27.9677
1062.5	28.7745
1063	29.0667
1063.5	28.7902
1064	28.0972
1064.5	27.3758
1065	26.9656
1065.5	27.0088
1066	27.3416
1066.5	27.6441
1067	27.6084
1067.5	27.2057
1068	26.6091
1068.5	26.1371
1069	26.0019
1069.5	26.2574
1070	26.7553
1070.5	27.2433
1071	27.536
1071.5	27.5977
1072	27.4835
1072.5	27.1986
1073	26.7717
1073.5	26.2233
1074	25.6647
1074.5	25.2864
1075	25.2953
1075.5	25.7524
1076	26.4865
1076.5	27.2351
1077	27.7316
1077.5	27.8794
1078	27.7035
1078.5	27.4785
1079	27.3998
1079.5	27.5844
1080	27.9519
1080.5	28.3479
1081	28.5891
1081.5	28.6268
1082	28.5806
1082.5	28.7457
1083	29.3644
1083.5	30.5068
1084	31.7733
1084.5	32.618
1085	32.6475
1085.5	32.0518
1086	31.3579
1086.5	31.2175
1087	31.8619
1087.5	33.1192
1088	34.2753
1088.5	34.8513
1089	34.7654
1089.5	34.5057
1090	34.6139
1090.5	35.3262
1091	36.3918
1091.5	37.2647
1092	37.5403
1092.5	37.1119
1093	36.0958
1093.5	34.9296
1094	33.9815
1094.5	33.5995
1095	33.9035
1095.5	34.9788
1096	36.522
1096.5	38.159
1097	39.5043
1097.5	40.4977
1098	41.2701
1098.5	41.9899
1099	42.6678
1099.5	43.1119
1100	43.1878
1100.5	43.0559
1101	43.2046
1101.5	44.0918
1102	45.8492
1102.5	48.1801
1103	50.3046
1103.5	51.5849
1104	51.865
1104.5	51.5504
1105	51.0132
1105.5	50.4781
1106	49.856
1106.5	48.8369
1107	47.3428
1107.5	45.4381
1108	43.3694
1108.5	41.4383
1109	39.9014
1109.5	38.9546
1110	38.65
1110.5	39.0917
1111	39.9601
1111.5	40.7873
1112	40.8444
1112.5	39.8282
1113	37.7011
1113.5	34.9982
1114	32.5383
1114.5	31.0206
1115	30.5243
1115.5	30.6208
1116	30.7129
1116.5	30.4594
1117	29.9331
1117.5	29.5136
1118	29.4973
1118.5	29.9211
1119	30.4345
1119.5	30.6117
1120	30.0855
1120.5	28.9604
1121	27.5163
1121.5	26.1413
1122	25.095
1122.5	24.5317
1123	24.5025
1123.5	24.8707
1124	25.5004
1124.5	26.1321
1125	26.5557
1125.5	26.5716
1126	26.2195
1126.5	25.5339
1127	24.5521
1127.5	23.4045
1128	22.2514
1128.5	21.3906
1129	21.0749
1129.5	21.5511
1130	22.6125
1130.5	23.9122
1131	25.0303
1131.5	25.7732
1132	26.1238
1132.5	26.2126
1133	26.1807
1133.5	26.0197
1134	25.709
1134.5	25.2823
1135	24.8483
1135.5	24.5702
1136	24.6057
1136.5	25.1618
1137	26.2537
1137.5	27.9117
1138	29.8777
1138.5	31.7247
1139	32.9661
1139.5	33.4367
1140	33.2584
1140.5	32.707
1141	32.2336
1141.5	32.1377
1142	32.6954
1142.5	33.9892
1143	36.1603
1143.5	38.8064
1144	41.2003
1144.5	42.2369
1145	41.5405
1145.5	39.323
1146	36.4797
1146.5	34.2138
1147	33.1737
1147.5	33.1839
1148	33.4942
1148.5	33.5985
1149	33.5907
1149.5	33.8409
1150	34.6494
1150.5	35.6764
1151	36.4756
1151.5	36.7674
1152	36.8457
1152.5	37.1966
1153	38.0525
1153.5	39.0911
1154	39.7084
1154.5	39.7599
1155	39.624
1155.5	40.1014
1156	41.5532
1156.5	43.8799
1157	46.4086
1157.5	48.4869
1158	49.7448
1158.5	50.306
1159	50.3385
1159.5	49.6097
1160	48.0794
1160.5	45.7963
1161	43.226
1161.5	41.0339
1162	39.6544
1162.5	38.927
1163	38.2981
1163.5	37.2001
1164	35.6205
1164.5	33.8568
1165	32.3198
1165.5	31.1371
1166	30.2404
1166.5	29.4577
1167	28.706
1167.5	28.0432
1168	27.4988
1168.5	26.9774
1169	26.2807
1169.5	25.3775
1170	24.4101
1170.5	23.6994
1171	23.4271
1171.5	23.6119
1172	23.9745
1172.5	24.1897
1173	24.0093
1173.5	23.5254
1174	22.9071
1174.5	22.288
1175	21.7108
1175.5	21.2055
1176	20.9115
1176.5	21.0166
1177	21.7479
1177.5	22.9485
1178	24.1391
1178.5	24.6028
1179	24.1608
1179.5	23.0436
1180	21.9561
1180.5	21.5573
1181	22.1191
1181.5	23.2414
1182	24.2491
1182.5	24.603
1183	24.4606
1183.5	24.1965
1184	24.0586
1184.5	23.8654
1185	23.2256
1185.5	21.9086
1186	20.2876
1186.5	19.0646
1187	18.8289
1187.5	19.4914
1188	20.4635
1188.5	20.9921
1189	20.778
1189.5	19.9745
1190	19.1409
1190.5	18.6375
1191	18.5098
1191.5	18.5545
1192	18.6374
1192.5	18.7667
1193	18.9912
1193.5	19.2504
1194	19.3518
1194.5	19.1355
1195	18.6121
1195.5	18.0145
1196	17.5463
1196.5	17.2138
1197	16.8536
1197.5	16.3168
1198	15.6946
1198.5	15.2024
1199	15.0846
1199.5	15.2849
1200	15.6292
1200.5	15.89
1201	16.033
1201.5	16.1963
1202	16.5109
1202.5	16.9534
1203	17.3571
1203.5	17.579
1204	17.6073
1204.5	17.5658
1205	17.5762
1205.5	17.6028
1206	17.5087
1206.5	17.2513
1207	16.9548
1207.5	16.8577
1208	17.0734
1208.5	17.4814
1209	17.7203
1209.5	17.5173
1210	17.0042
1210.5	16.6349
1211	16.9262
1211.5	17.9408
1212	19.3203
1212.5	20.3793
1213	20.6483
1213.5	19.9829
1214	18.7444
1214.5	17.5996
1215	17.0132
1215.5	17.0669
1216	17.4731
1216.5	17.8039
1217	17.7063
1217.5	17.0792
1218	16.054
1218.5	15.0894
1219	14.5252
1219.5	14.5211
1220	14.9171
1220.5	15.5117
1221	16.0888
1221.5	16.5905
1222	17.0371
1222.5	17.4202
1223	17.5926
1223.5	17.3045
1224	16.5324
1224.5	15.398
1225	14.3098
1225.5	13.6573
1226	13.774
1226.5	14.4471
1227	15.2481
1227.5	15.6398
1228	15.4018
1228.5	14.5501
1229	13.4733
1229.5	12.7025
1230	12.7237
1230.5	13.5661
1231	14.819
1231.5	15.9331
1232	16.5111
1232.5	16.4377
1233	15.8724
1233.5	15.2331
1234	14.8346
1234.5	14.8443
1235	15.1779
1235.5	15.7303
1236	16.3088
1236.5	16.7757
1237	17.0177
1237.5	17.1003
1238	17.1444
1238.5	17.3193
1239	17.6435
1239.5	17.9926
1240	18.1402
1240.5	17.9421
1241	17.2997
1241.5	16.3835
1242	15.3433
1242.5	14.3666
1243	13.6179
1243.5	13.3196
1244	13.6509
1244.5	14.5861
1245	16.0354
1245.5	17.6324
1246	19.0708
1246.5	20.0492
1247	20.5623
1247.5	20.5173
1248	19.8124
1248.5	18.5607
1249	16.9654
1249.5	15.5146
1250	14.6477
1250.5	14.655
1251	15.1073
1251.5	15.5159
1252	15.4112
1252.5	14.8351
1253	14.0967
1253.5	13.6738
1254	13.7936
1254.5	14.3904
1255	15.0858
1255.5	15.6296
1256	15.9416
1256.5	16.2221
1257	16.6658
1257.5	17.3511
1258	18.0847
1258.5	18.5527
1259	18.554
1259.5	18.1421
1260	17.5136
1260.5	16.9833
1261	16.6949
1261.5	16.6201
1262	16.5461
1262.5	16.3629
1263	16.1211
1263.5	15.9612
1264	16.0007
1264.5	16.1911
1265	16.4161
1265.5	16.5686
1266	16.6597
1266.5	16.6922
1267	16.5675
1267.5	16.15
1268	15.3118
1268.5	14.2184
1269	13.29
1269.5	13.0927
1270	13.6974
1270.5	14.8655
1271	16.0862
1271.5	16.9006
1272	17.1524
1272.5	17.0563
1273	16.9798
1273.5	17.0634
1274	17.1095
1274.5	16.8377
1275	16.0221
1275.5	14.9805
1276	14.2112
1276.5	14.3462
1277	15.3096
1277.5	16.7112
1278	17.8398
1278.5	18.2913
1279	18.0781
1279.5	17.9184
1280	18.6233
1280.5	20.8288
1281	24.0862
1281.5	27.7617
1282	30.9335
1282.5	33.0092
1283	33.4851
1283.5	32.4277
1284	30.1724
1284.5	26.9902
1285	23.506
1285.5	20.1937
1286	17.5772
1286.5	15.8274
1287	15.0842
1287.5	15.0977
1288	15.428
1288.5	15.6956
1289	15.6317
1289.5	15.1825
1290	14.4742
1290.5	13.8616
1291	13.6291
1291.5	13.8618
1292	14.3632
1292.5	14.9097
1293	15.324
1293.5	15.5932
1294	15.7837
1294.5	15.9748
1295	16.1467
1295.5	16.2196
1296	16.1578
1296.5	15.9405
1297	15.5815
1297.5	15.11
1298	14.5935
1298.5	14.2183
1299	14.2142
1299.5	14.9005
1300	16.1733
1300.5	17.7997
1301	19.2512
1301.5	20.0652
1302	19.9116
1302.5	18.906
1303	17.4157
1303.5	15.9006
1304	14.8018
1304.5	14.3864
1305	14.6463
1305.5	15.1959
1306	15.723
1306.5	16.0224
1307	16.1462
1307.5	16.2778
1308	16.5676
1308.5	16.9441
1309	17.1431
1309.5	16.9903
1310	16.4735
1310.5	15.8415
1311	15.4581
1311.5	15.5853
1312	16.0849
1312.5	16.6149
1313	16.7536
1313.5	16.3819
1314	15.6208
1314.5	14.8371
1315	14.3868
1315.5	14.3769
1316	14.6143
1316.5	14.7925
1317	14.724
1317.5	14.5354
1318	14.5197
1318.5	14.9979
1319	15.8573
1319.5	16.8623
1320	17.6727
1320.5	18.1305
1321	18.1811
1321.5	17.919
1322	17.4258
1322.5	16.6817
1323	15.8063
1323.5	14.9982
1324	14.5895
1324.5	14.7122
1325	15.3218
1325.5	16.1293
1326	16.8022
1326.5	17.067
1327	16.8973
1327.5	16.4341
1328	15.9901
1328.5	15.9099
1329	16.4252
1329.5	17.5378
1330	18.8043
1330.5	19.6184
1331	19.4434
1331.5	18.3695
1332	16.7924
1332.5	15.4249
1333	14.6761
1333.5	14.6584
1334	14.9269
1334.5	15.126
1335	15.1358
1335.5	15.1066
1336	15.21
1336.5	15.4333
1337	15.6072
1337.5	15.5195
1338	15.2705
1338.5	15.074
1339	15.1658
1339.5	15.5135
1340	15.9228
1340.5	16.1233
1341	16.0813
1341.5	15.9608
1342	16.0155
1342.5	16.3594
1343	16.9564
1343.5	17.5511
1344	17.9121
1344.5	17.8581
1345	17.3574
1345.5	16.3566
1346	15.0433
1346.5	13.7623
1347	13.0935
1347.5	13.2419
1348	14.163
1348.5	15.4419
1349	16.4665
1349.5	16.8394
1350	16.6591
1350.5	16.4362
1351	16.6441
1351.5	17.3437
1352	18.2726
1352.5	18.941
1353	19.0699
1353.5	18.6996
1354	18.1221
1354.5	17.6296
1355	17.2948
1355.5	16.9305
1356	16.3072
1356.5	15.3408
1357	14.3319
1357.5	13.6647
1358	13.7613
1358.5	14.5853
1359	15.9524
1359.5	17.3412
1360	18.3283
1360.5	18.5356
1361	17.993
1361.5	16.924
1362	15.7455
1362.5	14.9226
1363	14.6294
1363.5	14.6738
1364	14.5835
1364.5	13.9619
1365	12.8916
1365.5	11.9069
1366	11.6816
1366.5	12.3042
1367	13.5098
1367.5	14.7716
1368	15.6924
1368.5	16.229
1369	16.5175
1369.5	16.6132
1370	16.3656
1370.5	15.7644
1371	15.043
1371.5	14.6911
1372	14.8759
1372.5	15.458
1373	15.9809
1373.5	16.1033
1374	15.8365
1374.5	15.6125
1375	15.7389
1375.5	16.2901
1376	16.9359
1376.5	17.3617
1377	17.3477
1377.5	17.0467
1378	16.6132
1378.5	16.2442
1379	16.0777
1379.5	16.2288
1380	16.5736
1380.5	16.8654
1381	16.8073
1381.5	16.4424
1382	16.0313
1382.5	16.0628
1383	16.7321
1383.5	18.0688
1384	19.9814
1384.5	22.5292
1385	26.1649
1385.5	30.8061
1386	35.6902
1386.5	39.1449
1387	39.9528
1387.5	37.3053
1388	31.8378
1388.5	25.6182
1389	20.7072
1389.5	18.0601
1390	17.4733
1390.5	18.3159
1391	19.2701
1391.5	19.6434
1392	19.2008
1392.5	18.2542
1393	17.1273
1393.5	16.193
1394	15.6811
1394.5	15.7095
1395	16.0733
1395.5	16.5278
1396	16.7875
1396.5	16.766
1397	16.5615
1397.5	16.4358
1398	16.5311
1398.5	16.8175
1399	17.0674
1399.5	17.0962
1400	16.8935
1400.5	16.6847
1401	16.6083
1401.5	16.6426
1402	16.6136
1402.5	16.4181
1403	16.1966
1403.5	16.1471
1404	16.3484
1404.5	16.5657
1405	16.5075
1405.5	16.0613
1406	15.5864
1406.5	15.4591
1407	15.8514
1407.5	16.4905
1408	16.9612
1408.5	17.0856
1409	17.0193
1409.5	17.0311
1410	17.2171
1410.5	17.465
1411	17.5883
1411.5	17.5961
1412	17.5887
1412.5	17.6104
1413	17.554
1413.5	17.2459
1414	16.8059
1414.5	16.5097
1415	16.6932
1415.5	17.2559
1416	17.8811
1416.5	18.1542
1417	18.0258
1417.5	17.636
1418	17.222
1418.5	16.8513
1419	16.4485
1419.5	16.0103
1420	15.6694
1420.5	15.6265
1421	15.851
1421.5	16.1585
1422	16.2893
1422.5	16.1865
1423	15.8997
1423.5	15.5295
1424	15.0652
1424.5	14.4592
1425	13.8608
1425.5	13.5429
1426	13.797
1426.5	14.5572
1427	15.5329
1427.5	16.2902
1428	16.6485
1428.5	16.5576
1429	16.1966
1429.5	15.6546
1430	15.0406
1430.5	14.5573
1431	14.4687
1431.5	14.8978
1432	15.592
1432.5	16.062
1433	16.0362
1433.5	15.6812
1434	15.5344
1434.5	15.9821
1435	16.8748
1435.5	17.4824
1436	17.2514
1436.5	16.0537
1437	14.5525
1437.5	13.5666
1438	13.5997
1438.5	14.2802
1439	15.121
1439.5	15.731
1440	16.1376
1440.5	16.4997
1441	16.8137
1441.5	16.8919
1442	16.4921
1442.5	15.7145
1443	14.8949
1443.5	14.3676
1444	14.1379
1444.5	14.1164
1445	14.2864
1445.5	14.7394
1446	15.5576
1446.5	16.4049
1447	16.6161
1447.5	15.0913
1448	11.8172
1448.5	7.47016
1449	3.31672
1449.5	0.53845
1450	0
1450.5	1.62229
1451	4.4095
1451.5	7.57532
1452	10.3382
1452.5	12.262
1453	13.0225
1453.5	13.018
1454	12.5845
1454.5	12.1995
1455	12.2584
1455.5	12.9713
1456	14.1555
1456.5	15.4337
1457	16.3357
1457.5	16.5588
1458	16.0844
1458.5	15.2032
1459	14.4723
1459.5	14.3278
1460	14.9574
1460.5	16.0067
1461	16.9254
1461.5	17.2905
1462	17.0562
1462.5	16.454
1463	16.026
1463.5	16.0415
1464	16.4672
1464.5	16.9287
1465	17.0879
1465.5	16.8992
1466	16.6635
1466.5	16.7298
1467	17.1432
1467.5	17.626
1468	17.6305
1468.5	17.035
1469	16.0463
1469.5	15.2488
1470	15.1498
1470.5	15.8917
1471	16.9972
1471.5	17.9417
1472	18.2918
1472.5	18.1288
1473	17.7148
1473.5	17.319
1474	17.0285
1474.5	16.8169
1475	16.6437
1475.5	16.5294
1476	16.5394
1476.5	16.6491
1477	16.7564
1477.5	16.6509
1478	16.2776
1478.5	15.6687
1479	15.0074
1479.5	14.5434
1480	14.539
1480.5	14.9717
1481	15.6182
1481.5	16.1018
1482	16.0922
1482.5	15.4927
1483	14.5667
1483.5	13.8216
1484	13.654
1484.5	14.1229
1485	14.8108
1485.5	15.2004
1486	15.0886
1486.5	14.6289
1487	14.2086
1487.5	14.0784
1488	14.1666
1488.5	14.2218
1489	14.1243
1489.5	14.0471
1490	14.289
1490.5	14.8725
1491	15.482
1491.5	15.6064
1492	14.9934
1492.5	13.887
1493	12.9269
1493.5	12.5908
1494	12.9722
1494.5	13.6367
1495	14.0643
1495.5	13.9745
1496	13.3771
1496.5	12.4157
1497	11.5177
1497.5	11.0281
1498	11.2945
1498.5	12.316
1499	13.9616
1499.5	15.684
1500	17.0208
1500.5	17.5763
1501	17.4408
1501.5	16.8848
1502	16.2637
1502.5	15.8137
1503	15.6119
1503.5	15.5945
1504	15.6109
1504.5	15.5854
1505	15.5525
1505.5	15.6135
1506	15.9124
1506.5	16.3606
1507	16.788
1507.5	16.9207
1508	16.6015
1508.5	15.7935
1509	14.7248
1509.5	13.7015
1510	13.1029
1510.5	13.1378
1511	13.5353
1511.5	14.3287
1512	15.0474
1512.5	15.2036
1513	14.6299
1513.5	13.7323
1514	13.0386
1514.5	13.1117
1515	14.1376
1515.5	16.0837
1516	18.6353
1516.5	21.2952
1517	23.4967
1517.5	24.7908
1518	25.3448
1518.5	25.8236
1519	26.9704
1519.5	28.9996
1520	30.5504
1520.5	31.5093
1521	31.5357
1521.5	30.9944
1522	30.5455
1522.5	30.6147
1523	31.0296
1523.5	31.3039
1524	31.1373
1524.5	30.644
1525	30.2812
1525.5	30.2753
1526	30.5175
1526.5	30.6854
1527	30.5615
1527.5	30.3174
1528	30.2219
1528.5	30.4053
1529	30.653
1529.5	30.5435
1530	29.9519
1530.5	29.0826
1531	28.4537
1531.5	28.5162
1532	29.1257
1532.5	29.8601
1533	30.1932
1533.5	29.749
1534	28.8462
1534.5	27.8901
1535	27.2498
1535.5	27.1756
1536	27.5383
1536.5	28.1409
1537	28.8254
1537.5	29.4689
1538	30.0041
1538.5	30.4538
1539	30.8535
1539.5	31.1955
1540	31.3354
1540.5	31.052
1541	30.2816
1541.5	29.2016
1542	28.3165
1542.5	28.2457
1543	29.1152
1543.5	30.5952
1544	31.9973
1544.5	32.6535
1545	32.3152
1545.5	31.3087
1546	30.1376
1546.5	29.2511
1547	28.8063
1547.5	28.6518
1548	28.514
1548.5	28.2258
1549	27.842
1549.5	27.624
1550	27.886
1550.5	28.7183
1551	29.8805
1551.5	30.9765
1552	31.5862
1552.5	31.6561
1553	31.4619
1553.5	31.258
1554	31.1275
1554.5	30.8332
1555	30.161
1555.5	29.1589
1556	28.1255
1556.5	27.5623
1557	27.6293
1557.5	28.1105
1558	28.7155
1558.5	29.2663
1559	29.9202
1559.5	30.9162
1560	32.2497
1560.5	33.5941
1561	34.3236
1561.5	34.0409
1562	32.915
1562.5	31.3925
1563	30.0259
1563.5	29.134
1564	28.7366
1564.5	28.7573
1565	29.2306
1565.5	30.1012
1566	31.0924
1566.5	31.6346
1567	31.2037
1567.5	29.895
1568	28.3965
1568.5	27.6933
1569	28.3237
1569.5	29.8002
1570	31.1656
1570.5	31.6624
1571	31.0849
1571.5	30.1277
1572	29.3498
1572.5	28.8161
1573	28.2198
1573.5	27.2227
1574	26.1838
1574.5	25.6782
1575	26.1156
1575.5	27.4497
1576	28.8943
1576.5	29.8568
1577	30.2158
1577.5	30.2101
1578	30.1935
1578.5	30.1968
1579	30.0376
1579.5	29.6269
1580	29.1796
1580.5	29.0934
1581	29.5793
1581.5	30.4253
1582	31.1665
1582.5	31.4693
1583	31.3381
1583.5	31.1534
1584	31.385
1584.5	32.1083
1585	33.0573
1585.5	33.7007
1586	33.4707
1586.5	32.432
1587	31.0501
1587.5	29.9655
1588	29.781
1588.5	30.3788
1589	31.0743
1589.5	31.2761
1590	30.7615
1590.5	30.0033
1591	29.7853
1591.5	30.3408
1592	31.3004
1592.5	31.8421
1593	31.417
1593.5	30.2365
1594	29.0089
1594.5	28.3429
1595	28.209
1595.5	28.1652
1596	27.7709
1596.5	27.0964
1597	26.668
1597.5	26.9335
1598	27.9945
1598.5	29.3728
1599	30.2122
1599.5	30.0379
1600	28.8974
1600.5	27.5087
1601	27.4253
1601.5	29.5646
1602	33.8539
1602.5	39.1589
1603	43.4039
1603.5	45.0786
1604	44.6172
1604.5	43.4734
1605	43.2885
1605.5	44.4051
1606	45.7639
1606.5	46.0346
1607	44.8971
1607.5	43.4022
1608	42.6835
1608.5	42.9723
1609	43.0001
1609.5	41.2513
1610	37.5499
1610.5	32.9167
1611	29.1691
1611.5	27.653
1612	27.8713
1612.5	28.8741
1613	29.8311
1613.5	30.5234
1614	31.4255
1614.5	32.8767
1615	34.8652
1615.5	37.1256
1616	39.3395
1616.5	41.3233
1617	42.8929
1617.5	43.6467
1618	43.1461
1618.5	41.2359
1619	38.2032
1619.5	34.9957
1620	32.6121
1620.5	31.3761
1621	30.9933
1621.5	30.7295
1622	29.9263
1622.5	28.8297
1623	28.0575
1623.5	28.1278
1624	29.029
1624.5	29.8932
1625	30.0428
1625.5	29.4294
1626	28.5937
1626.5	28.2193
1627	28.477
1627.5	28.9572
1628	29.1983
1628.5	29.167
1629	29.1654
1629.5	29.4469
1630	29.9166
1630.5	30.1929
1631	30.1908
1631.5	30.1595
1632	30.4912
1632.5	31.35
1633	32.2187
1633.5	32.5578
1634	32.112
1634.5	31.0796
1635	30.1226
1635.5	29.7512
1636	30.0487
1636.5	30.786
1637	31.5189
1637.5	31.896
1638	31.6952
1638.5	30.933
1639	29.8514
1639.5	28.7669
1640	27.9713
1640.5	27.7085
1641	28.0312
1641.5	28.7076
1642	29.4616
1642.5	30.0133
1643	30.1909
1643.5	30.1277
1644	30.1085
1644.5	30.2968
1645	30.5973
1645.5	30.6994
1646	30.4205
1646.5	29.931
1647	29.7405
1647.5	30.1422
1648	30.9596
1648.5	31.7219
1649	31.9202
1649.5	31.5789
1650	31.1075
1650.5	30.7708
1651	30.5461
1651.5	30.1732
1652	29.5923
1652.5	29.1149
1653	29.0954
1653.5	29.615
1654	30.2873
1654.5	30.7215
1655	30.8512
1655.5	31.0608
1656	31.6206
1656.5	32.3364
1657	32.6636
1657.5	31.9664
1658	30.4297
1658.5	28.9069
1659	28.2247
1659.5	28.8098
1660	30.2254
1660.5	31.4006
1661	31.5105
1661.5	30.4017
1662	28.6832
1662.5	27.3185
1663	26.9616
1663.5	27.7372
1664	29.0291
1664.5	30.1493
1665	30.8227
1665.5	31.117
1666	31.2666
1666.5	31.3417
1667	31.1785
1667.5	30.678
1668	30.0075
1668.5	29.6185
1669	29.8519
1669.5	30.6518
1670	31.5522
1670.5	32.0812
1671	32.1382
1671.5	31.9132
1672	31.7119
1672.5	31.6929
1673	31.7171
1673.5	31.6132
1674	31.2864
1674.5	30.7535
1675	30.1412
1675.5	29.5426
1676	28.984
1676.5	28.422
1677	27.7691
1677.5	26.9819
1678	26.1415
1678.5	25.541
1679	25.5065
1679.5	26.1226
1680	27.2279
1680.5	28.4839
1681	29.5593
1681.5	30.4111
1682	31.1037
1682.5	31.5699
1683	31.5288
1683.5	30.8348
1684	29.7019
1684.5	28.8002
1685	28.8571
1685.5	29.8316
1686	31.1198
1686.5	31.9387
1687	31.7669
1687.5	31.0139
1688	30.3908
1688.5	30.2279
1689	30.3453
1689.5	30.2265
1690	29.6634
1690.5	28.9729
1691	28.734
1691.5	29.2059
1692	30.0544
1692.5	30.7629
1693	30.9282
1693.5	30.4706
1694	29.7205
1694.5	28.8211
1695	27.7698
1695.5	26.5276
1696	25.2644
1696.5	24.3672
1697	24.2016
1697.5	24.9259
1698	26.2582
1698.5	27.6875
1699	28.6712
1699.5	28.7297
1700	27.8458
1700.5	26.5206
1701	25.3422
1701.5	24.8235
1702	25.1559
1702.5	26.0456
1703	27.101
1703.5	28.062
1704	28.8928
1704.5	29.6252
1705	30.1696
1705.5	30.3424
1706	29.9743
1706.5	29.3185
1707	28.7645
1707.5	28.6095
1708	28.918
1708.5	29.4342
1709	29.8816
1709.5	30.1876
1710	30.4967
1710.5	30.9345
1711	31.3862
1711.5	31.5705
1712	31.208
1712.5	30.2657
1713	29.1947
1713.5	28.4006
1714	28.0914
1714.5	28.2103
1715	28.463
1715.5	28.6523
1716	28.6982
1716.5	28.5563
1717	28.1489
1717.5	27.4446
1718	26.572
1718.5	25.8753
1719	25.7727
1719.5	26.2837
1720	27.1325
1720.5	27.9345
1721	28.4231
1721.5	28.6265
1722	28.7143
1722.5	28.9122
1723	29.4381
1723.5	30.3759
1724	31.6266
1724.5	32.8243
1725	33.3026
1725.5	32.619
1726	30.9439
1726.5	28.9858
1727	27.5515
1727.5	26.9877
1728	27.1028
1728.5	27.5143
1729	27.9231
1729.5	28.2852
1730	28.6597
1730.5	29.0925
1731	29.6637
1731.5	30.4884
1732	31.4772
1732.5	32.1548
1733	31.8471
1733.5	30.273
1734	28.2779
1734.5	27.1284
1735	27.8176
1735.5	30.319
1736	32.889
1736.5	33.9342
1737	33.0134
1737.5	30.9635
1738	29.3897
1738.5	29.152
1739	30.0621
1739.5	31.0544
1740	31.1077
1740.5	30.1836
1741	28.792
1741.5	27.5961
1742	27.0175
1742.5	26.974
1743	27.2144
1743.5	27.5011
1744	27.6709
1744.5	27.5697
1745	27.0457
1745.5	26.0734
1746	24.9332
1746.5	24.2881
1747	24.5826
1747.5	25.8073
1748	27.4777
1748.5	28.8662
1749	29.5898
1749.5	29.6478
1750	29.2266
1750.5	28.4544
1751	27.3337
1751.5	26.0082
1752	24.9221
1752.5	24.7359
1753	25.6591
1753.5	27.3429
1754	28.9859
1754.5	29.9082
1755	30.181
1755.5	30.2479
1756	30.5439
1756.5	31.1525
1757	31.6294
1757.5	31.5078
1758	30.7206
1758.5	29.6101
1759	28.7414
1759.5	28.4074
1760	28.5532
1760.5	28.8808
1761	29.0942
1761.5	29.2142
1762	29.3768
1762.5	29.6157
1763	29.7132
1763.5	29.3735
1764	28.4783
1764.5	27.1984
1765	25.9953
1765.5	25.2301
1766	25.0281
1766.5	25.3788
1767	26.2374
1767.5	27.4584
1768	28.7926
1768.5	29.8414
1769	30.1878
1769.5	29.7315
1770	28.8012
1770.5	27.9173
1771	27.5873
1771.5	27.9795
1772	28.7018
1772.5	29.1597
1773	28.9541
1773.5	28.1351
1774	27.2299
1774.5	26.7014
1775	26.7434
1775.5	27.2403
1776	27.9373
1776.5	28.7942
1777	29.8349
1777.5	30.8718
1778	31.4527
1778.5	31.3074
1779	30.6066
1779.5	29.9242
1780	29.6618
1780.5	29.3594
1781	28.3489
1781.5	26.4886
1782	24.7598
1782.5	24.4747
1783	26.065
1783.5	28.6333
1784	30.1491
1784.5	29.7985
1785	28.2851
1785.5	26.957
1786	26.7941
1786.5	27.4299
1787	28.0582
1787.5	28.3139
1788	28.6197
1788.5	29.4242
1789	30.3666
1789.5	30.707
1790	30.0075
1790.5	28.8202
1791	28.1693
1791.5	28.5627
1792	29.5739
1792.5	30.1109
1793	29.7203
1793.5	28.6605
1794	27.5053
1794.5	26.7289
1795	26.3948
1795.5	26.5049
1796	27.1637
1796.5	28.4039
1797	29.8579
1797.5	31.0328
1798	31.6195
1798.5	31.6536
1799	31.4397
1799.5	31.0673
1800	30.3142
1800.5	28.9792
1801	27.363
1801.5	26.1272
1802	25.7546
1802.5	26.2645
1803	27.1374
1803.5	27.7472
1804	27.8294
1804.5	27.4349
1805	26.6728
1805.5	25.5646
1806	24.1467
1806.5	22.6713
1807	21.6719
1807.5	21.6044
1808	22.4967
1808.5	23.9698
1809	25.4166
1809.5	26.4871
1810	27.2598
1810.5	27.9723
1811	28.7933
1811.5	29.6292
1812	30.206
1812.5	30.3168
1813	29.9809
1813.5	29.509
1814	29.2118
1814.5	29.1647
1815	29.207
1815.5	29.0107
1816	28.3992
1816.5	27.4851
1817	26.6175
1817.5	26.2353
1818	26.4688
1818.5	27.1548
1819	28.0353
1819.5	28.8972
1820	29.654
1820.5	30.2734
1821	30.6505
1821.5	30.5911
1822	29.9993
1822.5	29.103
1823	28.2497
1823.5	27.7664
1824	27.8189
1824.5	28.2531
1825	28.867
1825.5	29.5027
1826	30.1038
1826.5	30.7063
1827	31.3333
1827.5	31.9319
1828	32.3031
1828.5	32.1328
1829	31.1983
1829.5	29.5331
1830	27.5668
1830.5	26.1277
1831	25.8043
1831.5	26.5659
1832	27.8634
1832.5	28.8455
1833	29.0144
1833.5	28.3697
1834	27.2778
1834.5	26.2897
1835	25.8005
1835.5	25.9425
1836	26.5914
1836.5	27.4668
1837	28.2316
1837.5	28.7445
1838	29.0916
1838.5	29.5244
1839	30.1799
1839.5	30.8127
1840	30.8882
1840.5	29.9055
1841	27.9661
1841.5	25.7977
1842	24.1951
1842.5	23.6866
1843	24.2621
1843.5	25.3383
1844	26.3758
1844.5	27.0324
1845	27.2172
1845.5	27.1903
1846	27.2398
1846.5	27.5971
1847	28.2891
1847.5	28.9513
1848	29.1257
1848.5	28.6083
1849	27.7321
1849.5	27.3728
1850	28.1159
1850.5	29.725
1851	31.3603
1851.5	32.2104
1852	32.3177
1852.5	32.2179
1853	32.3504
1853.5	32.4503
1854	31.7134
1854.5	29.697
1855	26.833
1855.5	24.4899
1856	23.6619
1856.5	24.3167
1857	25.6804
1857.5	26.7715
1858	27.1858
1858.5	27.2136
1859	27.3258
1859.5	27.7874
1860	28.4017
1860.5	28.7796
1861	28.69
1861.5	28.0999
1862	27.165
1862.5	26.1689
1863	25.4246
1863.5	25.2596
1864	25.9407
1864.5	27.3031
1865	28.9294
1865.5	30.2408
1866	30.7231
1866.5	30.3154
1867	29.2355
1867.5	27.8562
1868	26.6309
1868.5	25.9329
1869	25.8704
1869.5	26.2962
1870	26.8524
1870.5	27.1608
1871	27.182
1871.5	27.1454
1872	27.3111
1872.5	27.7303
1873	28.1716
1873.5	28.3933
1874	28.3028
1874.5	28.0459
1875	27.9634
1875.5	28.3578
1876	29.3904
1876.5	30.8967
1877	32.2395
1877.5	32.7991
1878	32.299
1878.5	31.016
1879	29.7147
1879.5	28.8586
1880	28.3613
1880.5	27.7816
1881	26.8873
1881.5	26.0523
1882	25.781
1882.5	26.1305
1883	26.5831
1883.5	26.7218
1884	26.7357
1884.5	27.1689
1885	28.3393
1885.5	29.6311
1886	30.1929
1886.5	29.6251
1887	28.3959
1887.5	27.5513
1888	27.4585
1888.5	27.6691
1889	27.3987
1889.5	26.3334
1890	24.8924
1890.5	23.7
1891	23.2229
1891.5	23.5477
1892	24.4621
1892.5	25.7355
1893	27.063
1893.5	27.9638
1894	28.1356
1894.5	27.6782
1895	27.0847
1895.5	27.0654
1896	27.8792
1896.5	29.2134
1897	30.4112
1897.5	30.7969
1898	30.2781
1898.5	29.3042
1899	28.4541
1899.5	28.0798
1900	27.9498
1900.5	27.604
1901	26.857
1901.5	25.9264
1902	25.2854
1902.5	25.1241
1903	25.29
1903.5	25.5131
1904	25.7076
1904.5	26.0259
1905	26.5069
1905.5	26.8968
1906	26.7215
1906.5	25.9492
1907	24.9823
1907.5	24.2785
1908	24.0368
1908.5	24.1044
1909	24.4175
1909.5	25.1374
1910	26.4002
1910.5	27.8093
1911	28.5961
1911.5	28.3088
1912	27.2636
1912.5	26.563
1913	26.8369
1913.5	27.6883
1914	28.1702
1914.5	27.5688
1915	26.3557
1915.5	25.41
1916	25.3196
1916.5	25.9606
1917	26.6223
1917.5	26.9415
1918	27.0799
1918.5	27.5074
1919	28.3932
1919.5	29.3053
1920	29.6088
1920.5	28.903
1921	27.4784
1921.5	26.1741
1922	25.7426
1922.5	26.4564
1923	27.7751
1923.5	28.6571
1924	28.4322
1924.5	27.1213
1925	25.4963
1925.5	24.5324
1926	24.6465
1926.5	25.6923
1927	27.1147
1927.5	28.328
1928	29.0048
1928.5	29.0301
1929	28.5071
1929.5	27.8047
1930	27.261
1930.5	26.9756
1931	26.7992
1931.5	26.5363
1932	26.2697
1932.5	26.2375
1933	26.512
1933.5	26.6943
1934	26.2704
1934.5	25.2792
1935	24.3563
1935.5	24.3796
1936	25.3769
1936.5	26.6084
1937	27.1751
1937.5	26.677
1938	25.717
1938.5	25.0608
1939	24.9939
1939.5	25.192
1940	25.1278
1940.5	24.8061
1941	24.6947
1941.5	25.3356
1942	26.7563
1942.5	28.3896
1943	29.6336
1943.5	30.0705
1944	29.5408
1944.5	28.3059
1945	26.7581
1945.5	25.417
1946	24.8499
1946.5	25.194
1947	26.1721
1947.5	27.2889
1948	28.0987
1948.5	28.5245
1949	28.7307
1949.5	28.8188
1950	28.7209
1950.5	28.362
1951	27.8973
1951.5	27.5942
1952	27.5975
1952.5	27.6856
1953	27.4661
1953.5	26.8312
1954	26.1148
1954.5	25.9916
1955	26.7039
1955.5	27.8713
1956	28.7324
1956.5	28.576
1957	27.4787
1957.5	25.997
1958	24.7068
1958.5	23.9197
1959	23.614
1959.5	23.7798
1960	24.5088
1960.5	25.839
1961	27.4963
1961.5	29.0013
1962	29.9898
1962.5	30.3354
1963	30.145
1963.5	29.628
1964	28.9059
1964.5	28.1063
1965	27.455
1965.5	27.1626
1966	27.2922
1966.5	27.7317
1967	28.2521
1967.5	28.6249
1968	28.7242
1968.5	28.4914
1969	27.9726
1969.5	27.4402
1970	27.248
1970.5	27.6077
1971	28.4273
1971.5	29.2591
1972	29.6813
1972.5	29.5485
1973	28.967
1973.5	28.1713
1974	27.3925
1974.5	26.8251
1975	26.6533
1975.5	26.9331
1976	27.3001
1976.5	27.2827
1977	26.6716
1977.5	25.8592
1978	25.6421
1978.5	26.3147
1979	27.5018
1979.5	28.4466
1980	28.7488
1980.5	28.7056
1981	28.7049
1981.5	28.7273
1982	28.2561
1982.5	27.1027
1983	25.7954
1983.5	25.3103
1984	26.3429
1984.5	28.2505
1985	29.8587
1985.5	30.2117
1986	29.1577
1986.5	27.623
1987	26.4943
1987.5	26.2208
1988	26.7349
1988.5	27.5006
1989	28.0117
1989.5	27.9758
1990	27.4247
1990.5	26.8431
1991	26.7809
1991.5	27.4306
1992	28.4512
1992.5	29.0901
1993	28.9909
1993.5	28.4643
1994	28.2279
1994.5	28.8429
1995	29.9048
1995.5	30.5942
1996	30.3257
1996.5	29.2834
1997	28.4495
1997.5	28.4911
1998	29.3457
1998.5	30.3008
1999	30.6744
1999.5	30.5046
2000	30.24
2000.5	30.2427
2001	30.3335
2001.5	30.0879
2002	29.3462
2002.5	28.3451
2003	27.5639
2003.5	27.2338
2004	27.2841
2004.5	27.5101
2005	27.7471
2005.5	27.9617
2006	28.1791
2006.5	28.4132
2007	28.6276
2007.5	28.7125
2008	28.5303
2008.5	28.0125
2009	27.2885
2009.5	26.757
2010	26.7646
2010.5	27.3772
2011	28.3352
2011.5	29.2225
2012	29.8759
2012.5	30.3561
2013	30.697
2013.5	30.6619
2014	30.0006
2014.5	28.8111
2015	27.6287
2015.5	27.1355
2016	27.3386
2016.5	27.6872
2017	27.5817
2017.5	26.8917
2018	26.1928
2018.5	26.0333
2019	26.5342
2019.5	27.4169
2020	28.3164
2020.5	29.0893
2021	29.6175
2021.5	29.6189
2022	28.7945
2022.5	27.3576
2023	25.9212
2023.5	25.1659
2024	25.3821
2024.5	26.1223
2025	26.8497
2025.5	27.1926
2026	26.9899
2026.5	26.3293
2027	25.4117
2027.5	24.5802
2028	24.2241
2028.5	24.3633
2029	24.6349
2029.5	24.7013
2030	24.6209
2030.5	24.9145
2031	25.8909
2031.5	27.325
2032	28.5946
2032.5	29.1457
2033	28.96
2033.5	28.2209
2034	27.1329
2034.5	25.9624
2035	25.1372
2035.5	25.0127
2036	25.6078
2036.5	26.481
2037	27.06
2037.5	27.2206
2038	27.1907
2038.5	27.2252
2039	27.2772
2039.5	27.1935
2040	27.0368
2040.5	27.1127
2041	27.6236
2041.5	28.3236
2042	28.8091
2042.5	28.865
2043	28.6921
2043.5	28.6224
2044	28.6772
2044.5	28.5891
2045	28.0673
2045.5	27.3076
2046	26.7636
2046.5	26.7826
2047	27.2731
2047.5	27.6436
2048	27.487
2048.5	26.9208
2049	26.6203
2049.5	27.2727
2050	28.7921
2050.5	30.4216
2051	31.1525
2051.5	30.5221
2052	29.1004
2052.5	27.7671
2053	27.1774
2053.5	27.3751
2054	27.8566
2054.5	28.2358
2055	28.3591
2055.5	28.2236
2056	27.8812
2056.5	27.4015
2057	26.9779
2057.5	26.9327
2058	27.4242
2058.5	28.2972
2059	29.2019
2059.5	29.7529
2060	29.7595
2060.5	29.2967
2061	28.5872
2061.5	27.981
2062	27.8682
2062.5	28.3324
2063	29.1027
2063.5	29.6532
2064	29.4841
2064.5	28.6491
2065	27.4899
2065.5	26.3623
2066	25.4668
2066.5	24.878
2067	24.7443
2067.5	25.1757
2068	25.9836
2068.5	26.5561
2069	26.4759
2069.5	25.887
2070	25.4777
2070.5	25.9114
2071	27.1105
2071.5	28.5408
2072	29.6364
2072.5	30.125
2073	29.9914
2073.5	29.1437
2074	27.5568
2074.5	25.6341
2075	24.2349
2075.5	23.9095
2076	24.5138
2076.5	25.2221
2077	25.3324
2077.5	24.9854
2078	24.8358
2078.5	25.4588
2079	26.6204
2079.5	27.6062
2080	27.8857
2080.5	27.424
2081	26.678
2081.5	26.0236
2082	25.4845
2082.5	24.8715
2083	24.0929
2083.5	23.4133
2084	23.222
2084.5	23.7344
2085	24.7531
2085.5	25.6838
2086	26.1483
2086.5	26.1598
2087	26.0816
2087.5	26.2279
2088	26.5235
2088.5	26.6887
2089	26.5387
2089.5	26.2833
2090	26.2863
2090.5	26.706
2091	27.3264
2091.5	27.6008
2092	27.1721
2092.5	26.1208
2093	24.9805
2093.5	24.5456
2094	25.0892
2094.5	26.2198
2095	27.1209
2095.5	27.0676
2096	26.3505
2096.5	25.7882
2097	26.0166
2097.5	26.8755
2098	27.3791
2098.5	26.9121
2099	25.7177
2099.5	24.7572
2100	24.8412
2100.5	25.8136
2101	27.005
2101.5	27.8049
2102	28.1279
2102.5	28.2526
2103	28.2811
2103.5	28.0785
2104	27.4825
2104.5	26.6577
2105	25.878
2105.5	25.3004
2106	24.8561
2106.5	24.409
2107	24.0311
2107.5	23.9541
2108	24.405
2108.5	25.2781
2109	26.1689
2109.5	26.5024
2110	25.5833
2110.5	22.9631
2111	18.9589
2111.5	14.6346
2112	11.6805
2112.5	11.6968
2113	14.6076
2113.5	19.0944
2114	23.2167
2114.5	25.3538
2115	25.6255
2115.5	25.0191
2116	24.6243
2116.5	25.0239
2117	25.9153
2117.5	26.7604
2118	27.1789
2118.5	27.0977
2119	26.7921
2119.5	26.5706
2120	26.5934
2120.5	26.823
2121	27.0698
2121.5	27.2144
2122	27.2552
2122.5	27.2035
2123	26.9528
2123.5	26.4051
2124	25.6832
2124.5	25.1887
2125	25.4284
2125.5	26.3304
2126	27.3659
2126.5	27.9137
2127	27.7064
2127.5	27.1706
2128	26.7733
2128.5	26.6134
2129	26.4078
2129.5	25.9735
2130	25.6318
2130.5	25.8392
2131	26.614
2131.5	27.1135
2132	26.4877
2132.5	24.7786
2133	23.0585
2133.5	22.7773
2134	24.0347
2134.5	25.7817
2135	26.7401
2135.5	26.4299
2136	25.757
2136.5	25.5745
2137	26.0311
2137.5	26.5763
2138	26.733
2138.5	26.6369
2139	26.6147
2139.5	26.7183
2140	26.6222
2140.5	26.178
2141	25.6038
2141.5	25.2481
2142	25.137
2142.5	24.9054
2143	24.2736
2143.5	23.321
2144	22.5525
2144.5	22.4814
2145	23.3123
2145.5	24.8484
2146	26.4392
2146.5	27.2853
2147	27.0506
2147.5	26.0589
2148	25.2414
2148.5	25.4535
2149	26.7044
2149.5	28.3528
2150	29.4412
2150.5	29.2454
2151	27.7522
2151.5	25.5271
2152	23.6426
2152.5	23.2479
2153	24.3675
2153.5	25.9732
2154	26.6144
2154.5	25.5478
2155	23.8765
2155.5	23.0629
2156	23.7767
2156.5	25.3322
2157	26.4189
2157.5	26.6901
2158	26.6283
2158.5	26.7549
2159	26.7785
2159.5	26.1326
2160	24.862
2160.5	23.8435
2161	24.058
2161.5	25.4148
2162	27.1092
2162.5	28.3048
2163	28.759
2163.5	28.8096
2164	28.6721
2164.5	28.3416
2165	27.7811
2165.5	27.1925
2166	26.79
2166.5	26.6344
2167	26.6491
2167.5	26.7687
2168	26.9917
2168.5	27.2226
2169	27.1919
2169.5	26.7028
2170	25.936
2170.5	25.316
2171	25.2105
2171.5	25.5203
2172	25.7613
2172.5	25.5805
2173	25.0042
2173.5	24.4458
2174	24.2207
2174.5	24.2549
2175	24.2215
2175.5	23.8519
2176	23.3591
2176.5	23.1776
2177	23.6294
2177.5	24.6876
2178	25.894
2178.5	26.8061
2179	27.1273
2179.5	26.7087
2180	25.6816
2180.5	24.4944
2181	23.7464
2181.5	23.8818
2182	24.6481
2182.5	25.2038
2183	24.9935
2183.5	24.2085
2184	23.7585
2184.5	24.1584
2185	25.0602
2185.5	25.72
2186	25.7532
2186.5	25.6557
2187	25.9077
2187.5	26.4515
2188	26.7654
2188.5	26.6188
2189	26.3281
2189.5	26.201
2190	26.128
2190.5	25.7888
2191	25.3823
2191.5	25.4616
2192	26.2516
2192.5	27.0474
2193	26.9458
2193.5	25.8517
2194	24.5497
2194.5	24.1148
2195	24.6969
2195.5	25.8137
2196	26.9386
2196.5	27.8392
2197	28.4846
2197.5	28.7505
2198	28.5425
2198.5	28.0079
2199	27.5102
2199.5	27.1631
2200	26.7995
2200.5	26.2523
2201	25.7341
2201.5	25.6423
2202	26.0568
2202.5	26.5813
2203	26.5685
2203.5	25.8846
2204	24.9866
2204.5	24.6239
2205	25.3581
2205.5	26.7778
2206	28.0258
2206.5	28.3366
2207	27.555
2207.5	26.4556
2208	25.7957
2208.5	25.8146
2209	26.1312
2209.5	26.1061
2210	25.5286
2210.5	24.6458
2211	24.0128
2211.5	24.159
2212	25.0845
2212.5	26.3152
2213	27.1053
2213.5	26.987
2214	26.4536
2214.5	26.3159
2215	26.9523
2215.5	27.7221
2216	27.5393
2216.5	26.1818
2217	24.4293
2217.5	23.4667
2218	23.5525
2218.5	24.0771
2219	24.5081
2219.5	24.9449
2220	25.8316
2220.5	27.0196
2221	27.9337
2221.5	28.1827
2222	28.0887
2222.5	28.1876
2223	28.5239
2223.5	28.7133
2224	28.4414
2224.5	27.9457
2225	27.5113
2225.5	27.1125
2226	26.4365
2226.5	25.4841
2227	24.6609
2227.5	24.3823
2228	24.6675
2228.5	24.9698
2229	24.817
2229.5	24.1002
2230	23.1141
2230.5	22.4731
2231	22.6422
2231.5	23.6763
2232	25.1343
2232.5	26.297
2233	26.9053
2233.5	27.1943
2234	27.4793
2234.5	27.6788
2235	27.4708
2235.5	26.9203
2236	26.5956
2236.5	27.105
2237	28.1113
2237.5	28.7797
2238	28.5121
2238.5	27.4046
2239	26.2121
2239.5	25.4632
2240	25.2151
2240.5	25.1579
2241	24.8644
2241.5	24.2024
2242	23.4493
2242.5	23.2611
2243	24.3088
2243.5	26.351
2244	28.357
2244.5	29.1509
2245	28.185
2245.5	26.3858
2246	24.9506
2246.5	24.6254
2247	25.2668
2247.5	25.9774
2248	26.2444
2248.5	26.1868
2249	26.3122
2249.5	26.7977
2250	27.2335
2250.5	27.18
2251	26.6957
2251.5	26.3145
2252	26.1986
2252.5	26.0043
2253	25.4378
2253.5	24.9877
2254	25.5169
2254.5	27.1135
2255	28.7794
2255.5	28.9657
2256	27.5168
2256.5	25.4974
2257	24.2018
2257.5	24.2016
2258	24.8647
2258.5	25.5562
2259	26.0054
2259.5	26.1834
2260	26.1201
2260.5	25.8779
2261	25.5716
2261.5	25.3155
2262	25.2087
2262.5	25.4527
2263	26.3173
2263.5	27.7889
2264	29.0658
2264.5	29.1261
2265	27.7298
2265.5	25.6219
2266	24.0958
2266.5	23.6626
2267	23.9377
2267.5	24.331
2268	24.5741
2268.5	24.7121
2269	24.6379
2269.5	24.1591
2270	23.4347
2270.5	23.2258
2271	23.9749
2271.5	25.3047
2272	26.2157
2272.5	26.0168
2273	25.3065
2273.5	25.1899
2274	26.3297
2274.5	28.1512
2275	29.2213
2275.5	28.7654
2276	27.1145
2276.5	25.5164
2277	24.7737
2277.5	24.6261
2278	24.3538
2278.5	23.5202
2279	22.5522
2279.5	22.0945
2280	22.3452
2280.5	22.9113
2281	23.2054
2281.5	23.1818
2282	23.2371
2282.5	23.7639
2283	24.7012
2283.5	25.596
2284	26.1168
2284.5	26.2167
2285	26.0692
2285.5	25.8245
2286	25.4606
2286.5	24.971
2287	24.582
2287.5	24.7085
2288	25.4769
2288.5	26.54
2289	27.1796
2289.5	26.9655
2290	26.2702
2290.5	25.8973
2291	26.4877
2291.5	27.7388
2292	28.5977
2292.5	28.2507
2293	26.6917
2293.5	24.9399
2294	23.9252
2294.5	23.7311
2295	23.8165
2295.5	23.6403
2296	23.4328
2296.5	23.7583
2297	24.8147
2297.5	26.0385
2298	26.5812
2298.5	26.3468
2299	25.9439
2299.5	26.0149
2300	26.5168
2300.5	27.0033
2301	27.2771
2301.5	27.4927
2302	27.7472
2302.5	27.7236
2303	27.0973
2303.5	26.0152
2304	25.2716
2304.5	25.4384
2305	26.4383
2305.5	27.7101
2306	28.5317
2306.5	28.6009
2307	28.0678
2307.5	27.3862
2308	27.1008
2308.5	27.3351
2309	27.6711
2309.5	27.6115
2310	26.9913
2310.5	26.1745
2311	25.5526
2311.5	25.2269
2312	25.1083
2312.5	25.166
2313	25.4665
2313.5	25.9818
2314	26.4916
2314.5	26.7095
2315	26.5574
2315.5	26.1019
2316	25.4975
2316.5	24.9693
2317	24.6854
2317.5	24.6347
2318	24.7065
2318.5	24.9436
2319	25.6364
2319.5	26.8309
2320	27.9744
2320.5	28.0339
2321	26.5183
2321.5	24.3139
2322	22.8495
2322.5	23.0631
2323	24.3983
2323.5	25.3452
2324	25.2488
2324.5	24.5999
2325	24.5231
2325.5	25.2749
2326	26.1357
2326.5	26.2152
2327	25.3199
2327.5	24.3672
2328	24.1238
2328.5	24.5184
2329	24.8238
2329.5	24.512
2330	23.8277
2330.5	23.3034
2331	23.2493
2331.5	23.4876
2332	23.7707
2332.5	24.1429
2333	24.7964
2333.5	25.7327
2334	26.6531
2334.5	27.3106
2335	27.6609
2335.5	27.796
2336	27.7478
2336.5	27.4345
2337	26.9131
2337.5	26.573
2338	26.8248
2338.5	27.6175
2339	28.4398
2339.5	28.6197
2340	27.9965
2340.5	27.0391
2341	26.3377
2341.5	26.2253
2342	26.6012
2342.5	27.1432
2343	27.5008
2343.5	27.307
2344	26.3694
2344.5	25.1069
2345	24.2304
2345.5	24.325
2346	25.332
2346.5	26.5544
2347	27.5118
2347.5	28.0527
2348	28.1679
2348.5	27.8222
2349	27.0469
2349.5	26.1595
2350	25.7269
2350.5	25.9974
2351	26.6241
2351.5	27.1082
2352	27.2078
2352.5	27.1471
2353	27.1761
2353.5	27.1442
2354	26.6374
2354.5	25.5683
2355	24.5636
2355.5	24.2147
2356	24.5015
2356.5	24.6324
2357	24.0114
2357.5	23.0985
2358	23.0026
2358.5	24.3283
2359	26.1258
2359.5	27.0788
2360	26.7332
2360.5	25.8483
2361	25.67
2361.5	26.3904
2362	27.2472
2362.5	27.3815
2363	26.7503
2363.5	26.0084
2364	25.5694
2364.5	25.3677
2365	25.0602
2365.5	24.5778
2366	24.1184
2366.5	23.8288
2367	23.7018
2367.5	23.7769
2368	24.2242
2368.5	25.0227
2369	25.6472
2369.5	25.4063
2370	24.4641
2370.5	23.7322
2371	23.9591
2371.5	24.6285
2372	24.5617
2372.5	23.4781
2373	22.5114
2373.5	23.4129
2374	25.8775
2374.5	28.1941
2375	28.8627
2375.5	27.9334
2376	26.965
2376.5	26.7246
2377	26.7888
2377.5	26.1865
2378	25.0505
2378.5	24.3098
2379	24.6351
2379.5	25.8693
2380	27.1102
2380.5	27.6796
2381	27.3383
2381.5	26.2742
2382	25.1027
2382.5	24.5898
2383	25.1822
2383.5	26.6592
2384	28.0871
2384.5	28.7269
2385	28.6133
2385.5	28.1845
2386	27.5872
2386.5	26.5912
2387	25.1726
2387.5	23.7948
2388	23.2295
2388.5	23.7529
2389	24.9405
2389.5	26.1478
2390	26.6812
2390.5	26.132
2391	24.7913
2391.5	23.5742
2392	23.6395
2392.5	25.0399
2393	26.3793
2393.5	26.3541
2394	24.868
2394.5	23.4554
2395	23.5714
2395.5	25.0319
2396	26.315
2396.5	26.0041
2397	24.4396
2397.5	22.753
2398	21.796
2398.5	21.6913
2399	22.1121
2399.5	22.9996
2400	24.3743
2400.5	25.8333
2401	26.5186
2401.5	26.0814
2402	24.9975
2402.5	24.2599
2403	24.4031
2403.5	24.9369
2404	25.2181
2404.5	24.9986
2405	24.5717
2405.5	24.3002
2406	24.1669
2406.5	23.9681
2407	23.6667
2407.5	23.5246
2408	23.7306
2408.5	24.1351
2409	24.1919
2409.5	23.4907
2410	22.3884
2410.5	21.677
2411	22.0121
2411.5	23.1103
2412	24.026
2412.5	24.1708
2413	23.8206
2413.5	23.763
2414	24.2862
2414.5	25.175
2415	26.1418
2415.5	27.0478
2416	27.6396
2416.5	27.476
2417	26.3776
2417.5	24.9308
2418	24.2806
2418.5	24.8986
2419	26.2608
2419.5	27.1708
2420	27.0226
2420.5	26.2419
2421	25.5275
2421.5	25.2228
2422	24.979
2422.5	24.3622
2423	23.5382
2423.5	23.1665
2424	23.8335
2424.5	25.1677
2425	26.3036
2425.5	26.4757
2426	25.6589
2426.5	24.6453
2427	24.0751
2427.5	24.2442
2428	25.0856
2428.5	26.1219
2429	26.7833
2429.5	26.7163
2430	26.0183
2430.5	25.3484
2431	25.2793
2431.5	25.8895
2432	26.7214
2432.5	27.0776
2433	26.6707
2433.5	25.6065
2434	24.3316
2434.5	23.6134
2435	24.049
2435.5	25.5347
2436	27.2967
2436.5	28.1376
2437	27.5954
2437.5	26.2023
2438	24.9841
2438.5	24.604
2439	24.6677
2439.5	24.6416
2440	24.5678
2440.5	25.008
2441	26.0636
2441.5	26.7598
2442	26.2398
2442.5	24.7883
2443	24.0662
2443.5	25.1586
2444	27.4863
2444.5	29.2871
2445	29.2888
2445.5	28.108
2446	26.7634
2446.5	25.713
2447	24.6309
2447.5	23.3319
2448	22.3155
2448.5	22.1646
2449	22.9467
2449.5	23.9792
2450	24.6982
2450.5	25.1003
2451	25.504
2451.5	26.0169
2452	26.3192
2452.5	26.0364
2453	25.1067
2453.5	24.0887
2454	23.6092
2454.5	23.8461
2455	24.498
2455.5	25.0273
2456	25.2265
2456.5	25.2386
2457	25.1481
2457.5	24.7736
2458	23.959
2458.5	22.9128
2459	22.1464
2459.5	22.1175
2460	22.827
2460.5	23.9743
2461	25.2292
2461.5	26.2411
2462	26.6489
2462.5	26.3102
2463	25.3071
2463.5	23.97
2464	22.8501
2464.5	22.4741
2465	23.0039
2465.5	24.1339
2466	25.0347
2466.5	25.006
2467	24.1044
2467.5	23.1097
2468	22.9936
2468.5	23.9305
2469	25.4501
2469.5	26.9524
2470	27.9384
2470.5	28.1817
2471	27.7141
2471.5	26.7178
2472	25.4886
2472.5	24.2871
2473	23.2562
2473.5	22.6
2474	22.6324
2474.5	23.4946
2475	24.6271
2475.5	25.1619
2476	24.5223
2476.5	22.9956
2477	21.7745
2477.5	21.8535
2478	23.464
2478.5	25.6939
2479	26.9581
2479.5	26.6649
2480	25.3557
2480.5	24.2741
2481	24.2928
2481.5	25.0631
2482	25.9427
2482.5	26.5923
2483	27.0275
2483.5	27.1976
2484	26.9296
2484.5	26.3614
2485	26.1508
2485.5	26.8064
2486	28.0987
2486.5	29.0958
2487	28.7564
2487.5	27.142
2488	25.0824
2488.5	23.5543
2489	23.1868
2489.5	23.7192
2490	24.664
2490.5	25.676
2491	26.4288
2491.5	26.515
2492	25.8952
2492.5	25.0707
2493	24.6758
2493.5	24.7416
2494	24.5643
2494.5	23.8272
2495	23.1471
2495.5	23.4239
2496	24.3475
2496.5	24.9271
2497	24.6239
2497.5	24.1346
2498	24.2776
2498.5	24.8544
2499	25.1907
2499.5	24.9932
2500	24.7126
2500.5	24.5155
2501	24.2171
2501.5	23.8682
2502	24.178
2502.5	25.5017
2503	27.4132
2503.5	29.1315
2504	30.0846
2504.5	30.0856
2505	29.0249
2505.5	27.1528
2506	25.5181
2506.5	25.1675
2507	25.9104
2507.5	26.4188
2508	25.6458
2508.5	24.2408
2509	23.3306
2509.5	23.2515
2510	23.2916
2510.5	22.8749
2511	22.3473
2511.5	22.3087
2512	23.0875
2512.5	24.4751
2513	25.9885
2513.5	27.0617
2514	27.1436
2514.5	26.1885
2515	25.1287
2515.5	24.6089
2516	24.4559
2516.5	23.8819
2517	22.8187
2517.5	22.1468
2518	22.5055
2518.5	23.4724
2519	23.904
2519.5	23.5614
2520	23.2995
2520.5	24.022
2521	25.5332
2521.5	26.8769
2522	27.3797
2522.5	27.1008
2523	26.5484
2523.5	26.2128
2524	26.4369
2524.5	27.3277
2525	28.3347
2525.5	28.5887
2526	27.7132
2526.5	26.1187
2527	24.8022
2527.5	24.2414
2528	24.2922
2528.5	24.7016
2529	25.2863
2529.5	25.6458
2530	25.3217
2530.5	24.2729
2531	23.126
2531.5	22.7358
2532	22.9725
2532.5	23.1744
2533	22.8704
2533.5	22.2831
2534	21.9632
2534.5	22.1514
2535	22.9196
2535.5	24.3855
2536	26.3018
2536.5	27.9046
2537	28.3048
2537.5	27.0987
2538	25.0442
2538.5	23.1283
2539	21.8874
2539.5	21.3027
2540	21.1029
2540.5	21.1516
2541	21.373
2541.5	21.6262
2542	21.8804
2542.5	22.4149
2543	23.6256
2543.5	25.4903
2544	27.1645
2544.5	27.7526
2545	27.1847
2545.5	26.3503
2546	26.3745
2546.5	26.9707
2547	27.0619
2547.5	25.9456
2548	24.3803
2548.5	23.9605
2549	25.0519
2549.5	26.6833
2550	27.3089
2550.5	26.6845
2551	25.7724
2551.5	25.2913
2552	25.0583
2552.5	24.2953
2553	23.0961
2553.5	22.2621
2554	22.4854
2554.5	23.5711
2555	24.6109
2555.5	25.3422
2556	26.0319
2556.5	26.8401
2557	27.2283
2557.5	26.7743
2558	25.7318
2558.5	24.9015
2559	24.6951
2559.5	24.7185
2560	24.6759
2560.5	24.8203
2561	25.5955
2561.5	26.6656
2562	27.2775
2562.5	27.054
2563	26.5716
2563.5	26.7161
2564	27.5882
2564.5	28.5253
2565	28.4844
2565.5	27.0863
2566	24.9945
2566.5	23.4141
2567	23.4964
2567.5	24.982
2568	26.6034
2568.5	27.3082
2569	27.0244
2569.5	26.4957
2570	26.0919
2570.5	25.7896
2571	25.7871
2571.5	26.4719
2572	27.41
2572.5	27.4786
2573	26.1567
2573.5	24.6015
2574	24.4028
2574.5	25.456
2575	26.2485
2575.5	25.6193
2576	24.3742
2576.5	23.6975
2577	23.7862
2577.5	24.0506
2578	24.306
2578.5	24.9563
2579	25.9986
2579.5	26.7187
2580	26.4927
2580.5	25.5238
2581	24.4114
2581.5	23.5557
2582	23.1885
2582.5	23.5423
2583	24.5228
2583.5	25.4729
2584	25.5913
2584.5	25.0459
2585	24.7531
2585.5	25.36
2586	26.5289
2586.5	27.2299
2587	27.0061
2587.5	26.2275
2588	25.5721
2588.5	25.4579
2589	25.9105
2589.5	26.6852
2590	27.32
2590.5	27.2375
2591	26.3208
2591.5	25.1835
2592	24.7036
2592.5	25.1771
2593	25.857
2593.5	25.9718
2594	25.5264
2594.5	25.3573
2595	26.0907
2595.5	27.3883
2596	28.4659
2596.5	28.6078
2597	27.7798
2597.5	26.4817
2598	25.433
2598.5	25.3188
2599	26.024
2599.5	26.6391
2600	26.5077
2600.5	25.8959
2601	25.7778
2601.5	26.117
2602	25.8536
2602.5	24.1315
2603	21.8179
2603.5	20.8882
2604	22.0773
2604.5	24.5039
2605	26.2505
2605.5	26.4989
2606	25.8009
2606.5	25.1777
2607	25.5187
2607.5	26.5921
2608	27.5366
2608.5	27.5804
2609	26.668
2609.5	25.8701
2610	25.8861
2610.5	26.4728
2611	26.6902
2611.5	26.0938
2612	25.3116
2612.5	25.0713
2613	25.5005
2613.5	25.759
2614	25.1596
2614.5	23.8046
2615	22.496
2615.5	22.1338
2616	22.6965
2616.5	23.7677
2617	24.9614
2617.5	25.9466
2618	26.1786
2618.5	25.2212
2619	23.523
2619.5	22.6956
2620	23.646
2620.5	25.2954
2621	25.7826
2621.5	24.6095
2622	23.3694
2622.5	23.5023
2623	24.7031
2623.5	25.6044
2624	25.4659
2624.5	24.8343
2625	24.4391
2625.5	24.6229
2626	25.3946
2626.5	25.8434
2627	25.5701
2627.5	24.9665
2628	24.7148
2628.5	25.5341
2629	26.6683
2629.5	27.9356
2630	28.5228
2630.5	28.8216
2631	28.4487
2631.5	27.8382
2632	27.0635
2632.5	26.6081
2633	26.4221
2633.5	26.6741
2634	27.1763
2634.5	27.6916
2635	27.8827
2635.5	27.8148
2636	27.5381
2636.5	27.3832
2637	27.4117
2637.5	27.7852
2638	28.2532
2638.5	28.709
2639	28.831
2639.5	28.8606
2640	28.8033
2640.5	28.9323
2641	29.0618
2641.5	29.1486
2642	28.7758
2642.5	28.1681
2643	27.2257
2643.5	26.5782
2644	26.253
2644.5	26.8167
2645	27.5862
2645.5	28.5615
2646	29.0863
2646.5	29.3429
2647	28.9765
2647.5	28.6646
2648	28.4219
2648.5	28.7023
2649	29.1205
2649.5	29.6509
2650	29.7466
2650.5	29.5656
2651	28.6391
2651.5	27.787
2652	27.0457
2652.5	27.0359
2653	27.2984
2653.5	27.9224
2654	28.3165
2654.5	28.5437
2655	28.3087
2655.5	28.0961
2656	27.9458
2656.5	27.9584
2657	28.0016
2657.5	27.9219
2658	27.6922
2658.5	27.3359
2659	27.0244
2659.5	26.8567
2660	26.979
2660.5	27.5429
2661	28.3015
2661.5	29.2373
2662	29.8439
2662.5	30.1267
2663	29.3114
2663.5	28.2301
2664	26.8057
2664.5	25.8701
2665	25.2486
2665.5	25.6997
2666	26.3911
2666.5	27.3576
2667	28.2269
2667.5	28.9946
2668	29.5071
2668.5	29.7617
2669	29.8576
2669.5	29.525
2670	29.0651
2670.5	28.4352
2671	27.8985
2671.5	27.464
2672	27.3317
2672.5	27.3333
2673	27.4221
2673.5	27.4102
2674	27.4488
2674.5	27.5666
2675	28.1
2675.5	28.7358
2676	29.3115
2676.5	29.2572
2677	28.7237
2677.5	27.6363
2678	26.8201
2678.5	26.5434
2679	26.6861
2679.5	26.8284
2680	26.07
2680.5	24.8959
2681	23.3535
2681.5	22.8847
2682	22.9569
2682.5	24.0095
2683	25.1031
2683.5	26.1796
2684	26.9486
2684.5	27.6949
2685	28.4177
2685.5	28.4318
2686	27.9873
2686.5	26.5878
2687	25.1194
2687.5	23.6772
2688	23.1431
2688.5	22.8829
2689	22.9511
2689.5	23.3247
2690	23.9644
2690.5	25.2745
2691	26.7293
2691.5	28.2395
2692	28.5877
2692.5	28.4387
2693	27.5938
2693.5	26.7731
2694	26.0938
2694.5	25.9513
2695	26.0939
2695.5	26.4312
2696	26.8893
2696.5	27.2251
2697	27.3579
2697.5	27.1942
2698	26.9918
2698.5	27.04
2699	27.4347
2699.5	28.1057
2700	28.6232
2700.5	28.8509
2701	28.535
2701.5	27.9849
2702	27.4216
2702.5	27.3562
2703	27.6873
2703.5	28.3867
2704	29.1768
2704.5	29.741
2705	29.7658
2705.5	29.3199
2706	28.7013
2706.5	28.4249
2707	28.35
2707.5	28.4928
2708	27.9028
2708.5	26.9713
2709	25.3902
2709.5	24.4683
2710	23.9705
2710.5	25.0073
2711	25.8906
2711.5	26.5812
2712	26.0141
2712.5	25.144
2713	24.0865
2713.5	23.5639
2714	23.3764
2714.5	23.7822
2715	24.3277
2715.5	25.0782
2716	25.9208
2716.5	26.6565
2717	26.837
2717.5	26.6148
2718	26.1041
2718.5	26.1292
2719	26.4092
2719.5	27.1043
2720	27.3654
2720.5	27.393
2721	26.884
2721.5	26.5537
2722	26.3727
2722.5	26.5523
2723	26.7405
2723.5	26.897
2724	26.9591
2724.5	26.9517
2725	26.6881
2725.5	26.3349
2726	25.8944
2726.5	25.6664
2727	25.431
2727.5	25.1192
2728	24.5382
2728.5	23.8821
2729	23.8206
2729.5	24.1765
2730	25.0049
2730.5	25.286
2731	25.2425
2731.5	24.5037
2732	24.1972
2732.5	24.1579
2733	24.8804
2733.5	25.4195
2734	25.7166
2734.5	25.9971
2735	26.4618
2735.5	27.6071
2736	28.6985
2736.5	29.7541
2737	29.7159
2737.5	29.4346
2738	28.7787
2738.5	28.0641
2739	27.2961
2739.5	26.3561
2740	25.4722
2740.5	24.6306
2741	24.4924
2741.5	24.5564
2742	24.938
2742.5	25.0289
2743	25.0067
2743.5	24.8915
2744	25.3975
2744.5	26.4475
2745	28.3207
2745.5	29.9582
2746	30.9478
2746.5	30.6789
2747	29.8634
2747.5	28.7557
2748	28.0748
2748.5	27.829
2749	27.8188
2749.5	27.6604
2750	27.0441
2750.5	26.3162
2751	25.5804
2751.5	25.5148
2752	25.5071
2752.5	25.568
2753	25.0511
2753.5	24.4874
2754	24.0962
2754.5	24.3694
2755	25.0219
2755.5	25.5768
2756	25.7099
2756.5	25.2598
2757	24.9743
2757.5	24.8832
2758	25.4
2758.5	25.6777
2759	25.7941
2759.5	25.3276
2760	25.0891
2760.5	25.2299
2761	26.0461
2761.5	26.9935
2762	27.6129
2762.5	27.6743
2763	27.2958
2763.5	26.5604
2764	25.9334
2764.5	25.5481
2765	25.5072
2765.5	25.6185
2766	25.9253
2766.5	26.0444
2767	25.9912
2767.5	25.392
2768	24.843
2768.5	24.5244
2769	25.0036
2769.5	25.8214
2770	26.5845
2770.5	26.8455
2771	26.5703
2771.5	26.1994
2772	25.9713
2772.5	26.1693
2773	26.3136
2773.5	26.4238
2774	26.4163
2774.5	26.5087
2775	26.7255
2775.5	26.8943
2776	27.0821
2776.5	27.3636
2777	27.7964
2777.5	28.3094
2778	28.1037
2778.5	27.6913
2779	26.979
2779.5	27.0773
2780	27.5223
2780.5	28.5722
2781	29.1155
2781.5	29.3
2782	28.8554
2782.5	28.5002
2783	28.3217
2783.5	28.3886
2784	28.5774
2784.5	29.0147
2785	29.4821
2785.5	29.9746
2786	29.7575
2786.5	29.2787
2787	28.3651
2787.5	27.5798
2788	26.8675
2788.5	26.337
2789	25.874
2789.5	25.4758
2790	25.4176
2790.5	25.367
2791	25.2461
2791.5	24.8653
2792	24.4184
2792.5	24.5771
2793	25.2412
2793.5	26.4709
2794	27.6287
2794.5	28.516
2795	28.6529
2795.5	28.3132
2796	27.7169
2796.5	27.1425
2797	26.7286
2797.5	26.524
2798	26.1546
2798.5	25.5742
2799	24.3651
2799.5	23.3443
2800	22.4489
2800.5	22.9944
2801	23.6447
2801.5	24.455
2802	24.3631
2802.5	23.9971
2803	23.4849
2803.5	23.4289
2804	23.7119
2804.5	24.3755
2805	25.1566
2805.5	26.124
2806	27.1685
2806.5	28.0703
2807	27.9668
2807.5	27.1131
2808	25.6094
2808.5	24.5364
2809	23.9678
2809.5	24.3972
2810	25.3266
2810.5	26.3987
2811	26.977
2811.5	27.1244
2812	26.8375
2812.5	26.6834
2813	26.8574
2813.5	27.8212
2814	28.6938
2814.5	29.4225
2815	28.7782
2815.5	27.9318
2816	26.8484
2816.5	26.5895
2817	26.5573
2817.5	26.785
2818	26.9957
2818.5	27.2142
2819	27.9963
2819.5	28.7003
2820	29.2974
2820.5	28.5577
2821	27.3702
2821.5	25.6314
2822	24.8938
2822.5	24.8242
2823	26.1879
2823.5	27.2538
2824	27.8255
2824.5	27.2159
2825	26.2238
2825.5	25.0171
2826	24.1981
2826.5	23.6814
2827	23.8292
2827.5	24.1624
2828	24.7851
2828.5	25.3568
2829	25.8395
2829.5	25.8552
2830	25.7093
2830.5	25.4168
2831	25.7576
2831.5	26.4595
2832	27.8402
2832.5	28.8699
2833	29.5506
2833.5	28.3066
2834	26.7069
2834.5	24.7313
2835	24.2201
2835.5	24.278
2836	25.3223
2836.5	25.9766
2837	26.3946
2837.5	26.1628
2838	25.8949
2838.5	25.5825
2839	25.0631
2839.5	24.5298
2840	24.0794
2840.5	24.2557
2841	24.8223
2841.5	26.2332
2842	27.4047
2842.5	28.2328
2843	27.7304
2843.5	26.6922
2844	24.7919
2844.5	23.5655
2845	22.8111
2845.5	24.0708
2846	25.4968
2846.5	27.1352
2847	27.3894
2847.5	26.9661
2848	25.1919
2848.5	23.5118
2849	21.9086
2849.5	21.9823
2850	22.6523
2850.5	24.3025
2851	25.6749
2851.5	26.7458
2852	26.3699
2852.5	25.6453
2853	24.5891
2853.5	24.1745
2854	24.0758
2854.5	24.5638
2855	25.1067
2855.5	25.6433
2856	25.8337
2856.5	25.9261
2857	25.9101
2857.5	25.9409
2858	25.9395
2858.5	25.8259
2859	25.4994
2859.5	25.0667
2860	24.7912
2860.5	24.7559
2861	25.0302
2861.5	25.2635
2862	25.385
2862.5	25.1436
2863	25.0488
2863.5	25.0517
2864	25.8792
2864.5	26.7463
2865	27.6729
2865.5	27.7937
2866	27.5616
2866.5	26.7054
2867	26.0572
2867.5	25.5618
2868	25.8319
2868.5	26.1947
2869	26.6781
2869.5	26.7637
2870	26.6459
2870.5	26.0983
2871	25.5736
2871.5	25.0684
2872	25.0444
2872.5	25.2221
2873	25.7475
2873.5	26.4791
2874	27.2799
2874.5	27.9755
2875	28.3601
2875.5	28.4348
2876	28.0446
2876.5	27.6724
2877	27.4834
2877.5	27.5981
2878	27.8322
2878.5	27.7446
2879	27.3739
2879.5	26.6749
2880	26.0421
2880.5	25.527
2881	25.3348
2881.5	25.3516
2882	25.4948
2882.5	25.899
2883	26.2435
2883.5	26.5072
2884	26.2049
2884.5	25.712
2885	24.9771
2885.5	24.6274
2886	24.5316
2886.5	25.0216
2887	25.448
2887.5	25.7692
2888	25.8884
2888.5	25.9763
2889	26.1875
2889.5	26.4587
2890	26.7761
2890.5	26.8385
2891	26.8002
2891.5	26.5956
2892	26.4136
2892.5	26.2317
2893	25.9999
2893.5	25.4603
2894	24.6444
2894.5	23.3776
2895	22.2718
2895.5	21.6081
2896	22.0268
2896.5	22.9795
2897	24.6746
2897.5	25.8839
2898	26.5862
2898.5	25.7961
2899	24.6926
2899.5	23.2892
2900	22.5444
2900.5	22.174
2901	22.5215
2901.5	22.7712
2902	22.9022
2902.5	22.9061
2903	23.0085
2903.5	23.5052
2904	24.0036
2904.5	24.4803
2905	23.9143
2905.5	23.1475
2906	22.0961
2906.5	21.928
2907	22.1712
2907.5	23.2171
2908	23.9375
2908.5	24.4326
2909	24.0848
2909.5	23.9218
2910	24.0894
2910.5	25.1387
2911	26.4487
2911.5	27.7311
2912	28.3629
2912.5	28.4692
2913	27.7886
2913.5	27.0655
2914	26.3477
2914.5	25.7456
2915	25.1839
2915.5	24.6067
2916	24.0398
2916.5	23.4824
2917	23.0269
2917.5	22.6509
2918	22.4359
2918.5	22.5097
2919	22.7268
2919.5	23.1061
2920	23.3338
2920.5	23.3957
2921	23.3187
2921.5	23.3023
2922	23.5144
2922.5	23.6074
2923	23.5998
2923.5	22.8315
2924	22.1345
2924.5	21.528
2925	22.1616
2925.5	23.1533
2926	24.5185
2926.5	25.0001
2927	24.9235
2927.5	23.8167
2928	23.0949
2928.5	22.9456
2929	23.9462
2929.5	25.2025
2930	26.276
2930.5	26.6136
2931	26.4168
2931.5	25.5271
2932	24.7216
2932.5	24.0985
2933	23.8975
2933.5	23.8433
2934	23.8515
2934.5	23.6618
2935	23.3047
2935.5	22.9135
2936	22.7619
2936.5	23.1094
2937	23.9953
2937.5	25.078
2938	26.0503
2938.5	26.6843
2939	26.985
2939.5	26.8386
2940	26.5329
2940.5	25.9624
2941	25.2381
2941.5	24.4734
2942	24.107
2942.5	24.1915
2943	24.7931
2943.5	25.5235
2944	26.0585
2944.5	25.9461
2945	25.5313
2945.5	24.9745
2946	25.1158
2946.5	25.4962
2947	26.1963
2947.5	26.3395
2948	26.1608
2948.5	25.2427
2949	24.4532
2949.5	23.7475
2950	23.9161
2950.5	24.2081
2951	24.69
2951.5	24.8689
2952	24.9128
2952.5	24.7167
2953	24.5527
2953.5	24.4133
2954	24.4757
2954.5	24.6621
2955	25.061
2955.5	25.7085
2956	26.4161
2956.5	26.9658
2957	27.0682
2957.5	26.7738
2958	25.8629
2958.5	24.9585
2959	24.1812
2959.5	23.9286
2960	23.9346
2960.5	24.3139
2961	24.624
2961.5	24.8626
2962	24.8781
2962.5	24.8632
2963	24.8448
2963.5	24.9433
2964	25.1009
2964.5	25.2795
2965	25.3294
2965.5	25.2247
2966	24.796
2966.5	24.2992
2967	23.7729
2967.5	23.544
2968	23.5017
2968.5	23.9928
2969	24.5013
2969.5	25.0339
2970	25.0534
2970.5	24.783
2971	23.8436
2971.5	22.8294
2972	21.7641
2972.5	21.5127
2973	21.6786
2973.5	22.5104
2974	23.5791
2974.5	24.6218
2975	25.172
2975.5	25.4201
2976	25.4271
2976.5	25.428
2977	25.4115
2977.5	25.3617
2978	24.9303
2978.5	24.3135
2979	23.3729
2979.5	22.7211
2980	22.3379
2980.5	22.886
2981	23.6447
2981.5	24.677
2982	25.3659
2982.5	25.8374
2983	25.6143
2983.5	25.1953
2984	24.5644
2984.5	24.0208
2985	23.5953
2985.5	23.4614
2986	23.4666
2986.5	23.533
2987	23.3872
2987.5	23.126
2988	22.7198
2988.5	22.5845
2989	22.6672
2989.5	23.3085
2990	24.0507
2990.5	24.8455
2991	24.8912
2991.5	24.6105
2992	23.8499
2992.5	23.1471
2993	22.5785
2993.5	22.5207
2994	22.7327
2994.5	23.1383
2995	23.7687
2995.5	24.4931
2996	25.3696
2996.5	26.2485
2997	27.0354
2997.5	27.3045
2998	27.0993
2998.5	26.4973
2999	25.5988
2999.5	24.8261
3000	24.3503
3000.5	24.3076
3001	24.4569
3001.5	24.8004
3002	25.1192
3002.5	25.414
3003	25.7042
3003.5	26.016
3004	26.3815
3004.5	26.7517
3005	27.1108
3005.5	27.3106
3006	27.3339
3006.5	27.1574
3007	26.5632
3007.5	25.8199
3008	24.8355
3008.5	23.9439
3009	23.1286
3009.5	22.9452
3010	23.1252
3010.5	23.7852
3011	24.8594
3011.5	25.9705
3012	26.8936
3012.5	27.2547
3013	27.2533
3013.5	26.2802
3014	25.2089
3014.5	23.9859
3015	23.2408
3015.5	22.7642
3016	22.9254
3016.5	23.2174
3017	23.6079
3017.5	23.7738
3018	23.8971
3018.5	23.9592
3019	24.1955
3019.5	24.514
3020	24.9758
3020.5	25.3657
3021	25.6925
3021.5	25.8949
3022	26.1222
3022.5	26.4249
3023	26.7572
3023.5	27.0605
3024	27.0058
3024.5	26.6721
3025	26.0536
3025.5	25.3472
3026	24.7559
3026.5	24.4897
3027	24.5131
3027.5	24.6781
3028	24.8484
3028.5	24.9383
3029	24.9327
3029.5	24.9315
3030	24.9462
3030.5	25.0081
3031	24.9403
3031.5	24.7891
3032	24.3164
3032.5	23.873
3033	23.4702
3033.5	23.5641
3034	23.8915
3034.5	24.68
3035	25.4001
3035.5	26.0738
3036	25.9753
3036.5	25.5799
3037	24.717
3037.5	23.7947
3038	22.9461
3038.5	22.5544
3039	22.5252
3039.5	22.7823
3040	23.2626
3040.5	23.6567
3041	23.8641
3041.5	23.747
3042	23.5006
3042.5	23.1661
3043	23.0304
3043.5	23.0775
3044	23.5662
3044.5	24.1172
3045	24.715
3045.5	25.003
3046	25.1112
3046.5	24.7589
3047	24.3413
3047.5	23.8538
3048	23.5275
3048.5	23.2914
3049	23.2395
3049.5	23.3466
3050	23.5512
3050.5	24.0395
3051	24.6425
3051.5	25.3881
3052	26.0361
3052.5	26.5078
3053	26.4538
3053.5	25.8993
3054	25.0375
3054.5	23.9096
3055	22.9609
3055.5	22.2726
3056	22.1646
3056.5	22.2854
3057	22.7576
3057.5	23.2134
3058	23.6577
3058.5	23.9398
3059	24.2574
3059.5	24.6417
3060	25.2593
3060.5	25.968
3061	26.777
3061.5	27.4167
3062	27.9163
3062.5	27.867
3063	27.6275
3063.5	27.0766
3064	26.4616
3064.5	25.8364
3065	25.317
3065.5	24.8123
3066	24.3218
3066.5	23.7385
3067	23.14
3067.5	22.5292
3068	22.1204
3068.5	21.8451
3069	22.05
3069.5	22.4304
3070	23.0074
3070.5	23.6145
3071	24.1686
3071.5	24.5553
3072	24.7779
3072.5	24.9071
3073	24.9267
3073.5	24.9332
3074	24.9226
3074.5	24.832
3075	24.6809
3075.5	24.3742
3076	23.9504
3076.5	23.4521
3077	22.9799
3077.5	22.6273
3078	22.4569
3078.5	22.593
3079	22.8466
3079.5	23.2595
3080	23.5629
3080.5	23.7846
3081	23.622
3081.5	23.3848
3082	23.0385
3082.5	22.8641
3083	22.8095
3083.5	23.1308
3084	23.5453
3084.5	24.0405
3085	24.2557
3085.5	24.3106
3086	24.0719
3086.5	23.7394
3087	23.4093
3087.5	23.4204
3088	23.6495
3088.5	24.0986
3089	24.6018
3089.5	25.0042
3090	25.1335
3090.5	24.9289
3091	24.5616
3091.5	24.1677
3092	23.9682
3092.5	23.9969
3093	24.498
3093.5	25.1311
3094	25.9191
3094.5	26.4946
3095	26.9325
3095.5	26.826
3096	26.5446
3096.5	26.0237
3097	25.5392
3097.5	25.1321
3098	24.9897
3098.5	25.0219
3099	25.1708
3099.5	25.3083
3100	25.3447
3100.5	25.219
3101	24.9361
3101.5	24.616
3102	24.3362
3102.5	24.2082
3103	24.1987
3103.5	24.3549
3104	24.5008
3104.5	24.612
3105	24.5555
3105.5	24.43
3106	24.2411
3106.5	24.1549
3107	24.1619
3107.5	24.5375
3108	25.0337
3108.5	25.7241
3109	26.396
3109.5	27.0314
3110	27.3891
3110.5	27.549
3111	27.4997
3111.5	27.1951
3112	26.8028
3112.5	26.2694
3113	25.629
3113.5	24.9279
3114	24.1212
3114.5	23.333
3115	22.5677
3115.5	22.1513
3116	21.9542
3116.5	22.2609
3117	22.97
3117.5	23.9237
3118	25.0815
3118.5	26.0765
3119	26.8379
3119.5	27.0263
3120	26.9574
3120.5	26.4083
3121	25.8084
3121.5	25.1728
3122	24.7879
3122.5	24.512
3123	24.4109
3123.5	24.3316
3124	24.239
3124.5	24.0391
3125	23.8344
3125.5	23.6257
3126	23.6306
3126.5	23.7742
3127	24.1671
3127.5	24.6887
3128	25.2439
3128.5	25.6917
3129	25.9375
3129.5	25.9909
3130	25.7884
3130.5	25.5521
3131	25.2996
3131.5	25.2637
3132	25.3545
3132.5	25.7728
3133	26.2664
3133.5	26.8435
3134	27.1798
3134.5	27.3445
3135	27.1249
3135.5	26.5846
3136	25.8749
3136.5	25.2051
3137	24.7656
3137.5	24.6233
3138	25.0431
3138.5	25.6401
3139	26.4528
3139.5	27.0541
3140	27.5185
3140.5	27.371
3141	27.0475
3141.5	26.4588
3142	25.9559
3142.5	25.5527
3143	25.4914
3143.5	25.6521
3144	25.976
3144.5	26.247
3145	26.3916
3145.5	26.3154
3146	26.0118
3146.5	25.6308
3147	25.2318
3147.5	24.969
3148	24.8228
3148.5	24.8783
3149	24.9637
3149.5	25.0799
3150	25.0833
3150.5	25.019
3151	24.7647
3151.5	24.4439
3152	24.0567
3152.5	23.6812
3153	23.3584
3153.5	23.164
3154	23.1318
3154.5	23.1961
3155	23.5181
3155.5	23.9153
3156	24.3998
3156.5	24.9127
3157	25.4109
3157.5	25.85
3158	26.2323
3158.5	26.5807
3159	26.8678
3159.5	27.1272
3160	27.3494
3160.5	27.4165
3161	27.3944
3161.5	27.1666
3162	26.7673
3162.5	26.2548
3163	25.6693
3163.5	25.1569
3164	24.7609
3164.5	24.6759
3165	24.7535
3165.5	25.1901
3166	25.7934
3166.5	26.5253
3167	27.3001
3167.5	27.9875
3168	28.5084
3168.5	28.7163
3169	28.7432
3169.5	28.306
3170	27.7084
3170.5	26.9667
3171	26.2363
3171.5	25.5989
3172	25.1648
3172.5	25.0476
3173	25.0838
3173.5	25.3072
3174	25.4996
3174.5	25.6597
3175	25.6367
3175.5	25.5452
3176	25.3374
3176.5	25.1535
3177	24.989
3177.5	24.9409
3178	24.8955
3178.5	24.8536
3179	24.6647
3179.5	24.4039
3180	23.9981
3180.5	23.5782
3181	23.1547
3181.5	22.9535
3182	22.9032
3182.5	23.0672
3183	23.3987
3183.5	23.7684
3184	24.1292
3184.5	24.4023
3185	24.6147
3185.5	24.7044
3186	24.7967
3186.5	24.8966
3187	25.0462
3187.5	25.2062
3188	25.3426
3188.5	25.3777
3189	25.331
3189.5	25.1183
3190	24.8796
3190.5	24.6085
3191	24.453
3191.5	24.3792
3192	24.5851
3192.5	24.8995
3193	25.3161
3193.5	25.7478
3194	26.1244
3194.5	26.3686
3195	26.3905
3195.5	26.2899
3196	25.9336
3196.5	25.4956
3197	24.9681
3197.5	24.4045
3198	23.8517
3198.5	23.3444
3199	22.9181
3199.5	22.5402
3200	22.281
3200.5	22.0816
3201	21.9587
3201.5	21.9226
3202	21.9336
3202.5	22.0471
3203	22.2351
3203.5	22.4708
3204	22.8388
3204.5	23.2406
3205	23.6927
3205.5	24.1534
3206	24.6033
3206.5	24.9965
3207	25.3242
3207.5	25.6045
3208	25.758
3208.5	25.878
3209	25.946
3209.5	25.9677
3210	25.9683
3210.5	25.9337
3211	25.861
3211.5	25.756
3212	25.5499
3212.5	25.2929
3213	24.9457
3213.5	24.5117
3214	24.0426
3214.5	23.5633
3215	23.1735
3215.5	22.8722
3216	22.8387
3216.5	22.9426
3217	23.3088
3217.5	23.8233
3218	24.403
3218.5	24.9271
3219	25.2768
3219.5	25.4263
3220	25.2157
3220.5	24.8627
3221	24.2618
3221.5	23.661
3222	23.0703
3222.5	22.7513
3223	22.614
3223.5	22.7199
3224	23.0648
3224.5	23.4887
3225	24.0107
3225.5	24.494
3226	24.952
3226.5	25.2513
3227	25.4678
3227.5	25.5553
3228	25.472
3228.5	25.2904
3229	24.8693
3229.5	24.3268
3230	23.6917
3230.5	22.9889
3231	22.3435
3231.5	21.809
3232	21.5144
3232.5	21.356
3233	21.536
3233.5	21.8251
3234	22.211
3234.5	22.6016
3235	22.9507
3235.5	23.2084
3236	23.4014
3236.5	23.5688
3237	23.747
3237.5	23.9676
3238	24.2317
3238.5	24.5377
3239	24.832
3239.5	25.0811
3240	25.2527
3240.5	25.3811
3241	25.4366
3241.5	25.5054
3242	25.5903
3242.5	25.7428
3243	25.9111
3243.5	26.091
3244	26.1824
3244.5	26.2168
3245	26.0371
3245.5	25.7851
3246	25.4316
3246.5	25.1344
3247	24.9076
3247.5	24.9082
3248	25.1783
3248.5	25.6331
3249	26.3393
3249.5	27.0568
3250	27.7869
3250.5	28.3247
3251	28.7556
3251.5	28.9313
3252	28.9645
3252.5	28.8838
3253	28.6885
3253.5	28.4825
3254	28.2682
3254.5	28.0505
3255	27.8257
3255.5	27.5605
3256	27.2627
3256.5	26.9347
3257	26.5784
3257.5	26.2343
3258	25.9247
3258.5	25.6903
3259	25.5018
3259.5	25.4454
3260	25.4437
3260.5	25.501
3261	25.6154
3261.5	25.7455
3262	25.8961
3262.5	26.0401
3263	26.1787
3263.5	26.2824
3264	26.3592
3264.5	26.4022
3265	26.4043
3265.5	26.3964
3266	26.3821
3266.5	26.3961
3267	26.4284
3267.5	26.5279
3268	26.6389
3268.5	26.7666
3269	26.8469
3269.5	26.8868
3270	26.8056
3270.5	26.6354
3271	26.4013
3271.5	26.0755
3272	25.7571
3272.5	25.4555
3273	25.2327
3273.5	25.0497
3274	24.9499
3274.5	24.8526
3275	24.7573
3275.5	24.5687
3276	24.3323
3276.5	24.0111
3277	23.6547
3277.5	23.2982
3278	23.0465
3278.5	22.9153
3279	22.9016
3279.5	23.1515
3280	23.4813
3280.5	23.933
3281	24.3821
3281.5	24.8187
3282	25.1201
3282.5	25.3262
3283	25.4242
3283.5	25.4291
3284	25.419
3284.5	25.4095
3285	25.4636
3285.5	25.5553
3286	25.7176
3286.5	25.8715
3287	26.0144
3287.5	26.035
3288	25.9806
3288.5	25.7493
3289	25.4115
3289.5	25.005
3290	24.5294
3290.5	24.0936
3291	23.7192
3291.5	23.5073
3292	23.3825
3292.5	23.4552
3293	23.6526
3293.5	23.944
3294	24.3596
3294.5	24.7885
3295	25.2326
3295.5	25.6442
3296	26.0306
3296.5	26.3301
3297	26.5708
3297.5	26.7598
3298	26.8528
3298.5	26.91
3299	26.9068
3299.5	26.8569
3300	26.7849
3300.5	26.6856
3301	26.574
3301.5	26.4499
3302	26.2822
3302.5	26.0822
3303	25.8131
3303.5	25.4686
3304	25.0815
3304.5	24.61
3305	24.1381
3305.5	23.6658
3306	23.315
3306.5	23.045
3307	22.9606
3307.5	23.0519
3308	23.2506
3308.5	23.6666
3309	24.0964
3309.5	24.5453
3310	24.8782
3310.5	25.1323
3311	25.1846
3311.5	25.0613
3312	24.8191
3312.5	24.4089
3313	23.9893
3313.5	23.5577
3314	23.2082
3314.5	22.9171
3315	22.7982
3315.5	22.7938
3316	22.88
3316.5	23.1163
3317	23.3963
3317.5	23.7451
3318	24.1311
3318.5	24.5295
3319	24.9214
3319.5	25.2869
3320	25.6283
3320.5	25.8953
3321	26.1236
3321.5	26.2796
3322	26.3612
3322.5	26.4033
3323	26.3697
3323.5	26.3015
3324	26.1963
3324.5	26.031
3325	25.8365
3325.5	25.5857
3326	25.3019
3326.5	25.0009
3327	24.6953
3327.5	24.4191
3328	24.1795
3328.5	24.0763
3329	24.0456
3329.5	24.1692
3330	24.3939
3330.5	24.6809
3331	25.038
3331.5	25.3715
3332	25.6706
3332.5	25.8097
3333	25.8648
3333.5	25.7355
3334	25.4919
3334.5	25.1673
3335	24.738
3335.5	24.3096
3336	23.8868
3336.5	23.5451
3337	23.2492
3337.5	23.0656
3338	22.9446
3338.5	22.8754
3339	22.8697
3339.5	22.8743
3340	22.8911
3340.5	22.9042
3341	22.9175
3341.5	22.9436
3342	23.0002
3342.5	23.0863
3343	23.2693
3343.5	23.5041
3344	23.8382
3344.5	24.2239
3345	24.6312
3345.5	25.0159
3346	25.3347
3346.5	25.5794
3347	25.6307
3347.5	25.5871
3348	25.3565
3348.5	25.0558
3349	24.7195
3349.5	24.4353
3350	24.2362
3350.5	24.1484
3351	24.2696
3351.5	24.4777
3352	24.8389
3352.5	25.1982
3353	25.5556
3353.5	25.7449
3354	25.8394
3354.5	25.7889
3355	25.5952
3355.5	25.3619
3356	25.124
3356.5	25.0022
3357	24.9671
3357.5	25.1983
3358	25.5123
3358.5	25.9576
3359	26.4129
3359.5	26.8404
3360	27.0812
3360.5	27.0944
3361	26.91
3361.5	26.3908
3362	25.7844
3362.5	25.0486
3363	24.3459
3363.5	23.6834
3364	23.2485
3364.5	22.9992
3365	22.9373
3365.5	23.1678
3366	23.4775
3366.5	23.8963
3367	24.3101
3367.5	24.7134
3368	25.0062
3368.5	25.229
3369	25.3697
3369.5	25.4097
3370	25.4243
3370.5	25.4144
3371	25.4279
3371.5	25.4566
3372	25.5493
3372.5	25.6676
3373	25.8213
3373.5	26.0034
3374	26.1928
3374.5	26.3853
3375	26.5667
3375.5	26.7405
3376	26.8905
3376.5	27.0308
3377	27.1559
3377.5	27.257
3378	27.3424
3378.5	27.3846
3379	27.375
3379.5	27.325
3380	27.1262
3380.5	26.8588
3381	26.4756
3381.5	25.9664
3382	25.398
3382.5	24.7322
3383	24.0635
3383.5	23.3922
3384	22.836
3384.5	22.371
3385	22.0868
3385.5	22.0255
3386	22.084
3386.5	22.3827
3387	22.7575
3387.5	23.2129
3388	23.6832
3388.5	24.1259
3389	24.4888
3389.5	24.7291
3390	24.8956
3390.5	24.8667
3391	24.7703
3391.5	24.5908
3392	24.3486
3392.5	24.0911
3393	23.8227
3393.5	23.5733
3394	23.3363
3394.5	23.1603
3395	23.0209
3395.5	22.9342
3396	22.9417
3396.5	22.9976
3397	23.1571
3397.5	23.3709
3398	23.6228
3398.5	23.9014
3399	24.1585
3399.5	24.3785
3400	24.4952
3400.5	24.5541
3401	24.4736
3401.5	24.3215
3402	24.1106
3402.5	23.8684
3403	23.6542
3403.5	23.4995
3404	23.4586
3404.5	23.4782
3405	23.6293
3405.5	23.8165
3406	24.0381
3406.5	24.2203
3407	24.3567
3407.5	24.3946
3408	24.3133
3408.5	24.1682
3409	23.9092
3409.5	23.6525
3410	23.3983
3410.5	23.256
3411	23.1818
3411.5	23.2528
3412	23.443
3412.5	23.7011
3413	24.0496
3413.5	24.3832
3414	24.6975
3414.5	24.8842
3415	24.9956
3415.5	24.9347
3416	24.7382
3416.5	24.4556
3417	24.0602
3417.5	23.6722
3418	23.2952
3418.5	23.0283
3419	22.8301
3419.5	22.8088
3420	22.9188
3420.5	23.1257
3421	23.4997
3421.5	23.903
3422	24.3486
3422.5	24.7489
3423	25.1089
3423.5	25.3181
3424	25.3982
3424.5	25.3676
3425	25.141
3425.5	24.8563
3426	24.4807
3426.5	24.0847
3427	23.6884
3427.5	23.3559
3428	23.091
3428.5	22.8935
3429	22.8268
3429.5	22.8075
3430	22.8677
3430.5	22.9626
3431	23.0737
3431.5	23.1799
3432	23.2694
3432.5	23.3393
3433	23.387
3433.5	23.4317
3434	23.4786
3434.5	23.5447
3435	23.6227
3435.5	23.7374
3436	23.8609
3436.5	23.9964
3437	24.1225
3437.5	24.2376
3438	24.3198
3438.5	24.3714
3439	24.4028
3439.5	24.4052
3440	24.4148
3440.5	24.4362
3441	24.5225
3441.5	24.6486
3442	24.8785
3442.5	25.18
3443	25.5367
3443.5	25.9773
3444	26.427
3444.5	26.8867
3445	27.2943
3445.5	27.6646
3446	27.9113
3446.5	28.0638
3447	28.1316
3447.5	28.0465
3448	27.9143
3448.5	27.7077
3449	27.4853
3449.5	27.262
3450	27.0931
3450.5	26.9773
3451	26.917
3451.5	26.9475
3452	26.9973
3452.5	27.066
3453	27.0817
3453.5	27.0606
3454	26.8748
3454.5	26.5886
3455	26.1799
3455.5	25.6038
3456	24.9721
3456.5	24.2612
3457	23.5723
3457.5	22.9002
3458	22.3988
3458.5	22.0092
3459	21.7786
3459.5	21.7879
3460	21.9057
3460.5	22.2281
3461	22.648
3461.5	23.1355
3462	23.6848
3462.5	24.2274
3463	24.7572
3463.5	25.2321
3464	25.676
3464.5	26.0436
3465	26.3605
3465.5	26.6363
3466	26.8186
3466.5	26.9573
3467	27.021
3467.5	26.9936
3468	26.9177
3468.5	26.7369
3469	26.5114
3469.5	26.2437
3470	25.9485
3470.5	25.6601
3471	25.3943
3471.5	25.1812
3472	24.9988
3472.5	24.8925
3473	24.8101
3473.5	24.754
3474	24.6928
3474.5	24.6162
3475	24.4985
3475.5	24.3345
3476	24.1444
3476.5	23.92
3477	23.7132
3477.5	23.5291
3478	23.4535
3478.5	23.4443
3479	23.5893
3479.5	23.8693
3480	24.2347
3480.5	24.7591
3481	25.3053
3481.5	25.884
3482	26.4082
3482.5	26.8856
3483	27.2203
3483.5	27.4174
3484	27.5142
3484.5	27.3748
3485	27.158
3485.5	26.8178
3486	26.3977
3486.5	25.9517
3487	25.5047
3487.5	25.1098
3488	24.7591
3488.5	24.5624
3489	24.4389
3489.5	24.4444
3490	24.5708
3490.5	24.7558
3491	25.031
3491.5	25.309
3492	25.5897
3492.5	25.7856
3493	25.9221
3493.5	25.9363
3494	25.8127
3494.5	25.6117
3495	25.2476
3495.5	24.8378
3496	24.3754
3496.5	23.9206
3497	23.4958
3497.5	23.1572
3498	22.9411
3498.5	22.801
3499	22.8716
3499.5	23.0256
3500	23.2912
