#Imported=	16.12.2021 13:58:49
50	4.99616
50.5	4.93241
51	4.90838
51.5	4.9975
52	5.24596
52.5	5.65234
53	6.17334
53.5	6.65799
54	6.94691
54.5	6.89777
55	6.4946
55.5	5.82216
56	5.01019
56.5	4.29279
57	3.86897
57.5	3.87792
58	4.33384
58.5	5.15699
59	6.29212
59.5	7.63134
60	9.06851
60.5	10.5246
61	11.9227
61.5	13.1965
62	14.2591
62.5	15.0497
63	15.5887
63.5	15.9654
64	16.3343
64.5	16.8258
65	17.537
65.5	18.4852
66	19.5669
66.5	20.6248
67	21.5056
67.5	22.1654
68	22.6058
68.5	22.91
69	23.2235
69.5	23.6852
70	24.3714
70.5	25.243
71	26.248
71.5	27.3009
72	28.3234
72.5	29.2881
73	30.2576
73.5	31.3242
74	32.5651
74.5	34.0126
75	35.5539
75.5	36.9935
76	37.9833
76.5	38.4087
77	38.2177
77.5	37.4702
78	36.4916
78.5	35.5492
79	34.9697
79.5	34.7424
80	34.7852
80.5	34.962
81	35.1148
81.5	35.1752
82	35.1011
82.5	34.8953
83	34.4905
83.5	33.6979
84	32.4843
84.5	30.8715
85	29.055
85.5	27.5486
86	26.7587
86.5	27.0708
87	28.2012
87.5	29.7896
88	31.2506
88.5	32.0492
89	32.0621
89.5	31.568
90	31.1905
90.5	31.4144
91	32.7629
91.5	35.182
92	38.494
92.5	42.4701
93	46.889
93.5	51.7458
94	57.1428
94.5	62.9106
95	68.6554
95.5	73.4561
96	76.6171
96.5	77.7412
97	76.4243
97.5	73.2519
98	68.9512
98.5	64.3553
99	60.2566
99.5	56.916
100	54.4772
100.5	52.7517
101	51.5334
101.5	50.7166
102	50.1446
102.5	49.6802
103	49.2549
103.5	48.8546
104	48.5604
104.5	48.6076
105	49.3124
105.5	50.8149
106	53.106
106.5	55.8568
107	58.6239
107.5	60.9505
108	62.5259
108.5	63.3758
109	63.7599
109.5	64.0553
110	64.506
110.5	65.2233
111	66.1661
111.5	67.2259
112	68.3996
112.5	69.818
113	71.6218
113.5	73.9441
114	76.727
114.5	79.6608
115	82.2573
115.5	83.9268
116	84.5173
116.5	83.9433
117	82.3943
117.5	80.3698
118	78.3099
118.5	76.7591
119	75.9427
119.5	75.9502
120	76.7221
120.5	77.919
121	79.2374
121.5	80.289
122	80.8335
122.5	80.8529
123	80.5199
123.5	80.1672
124	80.0456
124.5	80.3245
125	80.855
125.5	81.3233
126	81.3185
126.5	80.7656
127	79.7709
127.5	78.7137
128	78.1128
128.5	78.4518
129	80.1603
129.5	82.8158
130	86.1039
130.5	89.6447
131	93.0701
131.5	96.2202
132	98.9747
132.5	101.394
133	103.445
133.5	104.904
134	105.73
134.5	105.853
135	105.18
135.5	103.997
136	102.555
136.5	101.108
137	99.8252
137.5	98.8036
138	98.1954
138.5	98.0288
139	98.4083
139.5	99.4263
140	100.89
140.5	102.633
141	104.465
141.5	106.212
142	107.817
142.5	109.299
143	110.741
143.5	112.118
144	113.239
144.5	113.894
145	113.921
145.5	113.164
146	111.863
146.5	110.412
147	109.207
147.5	108.432
148	108.073
148.5	108.033
149	108.115
149.5	108.247
150	108.539
150.5	109.123
151	110.013
151.5	111.081
152	111.983
152.5	112.379
153	111.868
153.5	110.534
154	108.746
154.5	106.865
155	105.231
155.5	103.976
156	103.142
156.5	102.663
157	102.502
157.5	102.771
158	103.557
158.5	104.781
159	106.251
159.5	107.576
160	108.391
160.5	108.528
161	108.322
161.5	108.328
162	109.152
162.5	111.24
163	114.543
163.5	118.945
164	124.133
164.5	129.822
165	136.226
165.5	143.788
166	152.723
166.5	163.212
167	174.952
167.5	186.851
168	197.551
168.5	205.504
169	210.02
169.5	210.33
170	205.998
170.5	198.097
171	187.36
171.5	175.405
172	163.776
172.5	153.435
173	145.1
173.5	138.478
174	133.231
174.5	128.914
175	125.031
175.5	121.62
176	119.077
176.5	117.542
177	117.078
177.5	117.511
178	118.16
178.5	118.477
179	118.137
179.5	117.426
180	116.739
180.5	116.681
181	117.513
181.5	119.325
182	122.118
182.5	125.3
183	128.542
183.5	131.492
184	133.986
184.5	135.948
185	137.372
185.5	138.675
186	140.403
186.5	143.431
187	148.106
187.5	154.631
188	163.263
188.5	173.406
189	184.691
189.5	196.989
190	209.847
190.5	222.913
191	235.359
191.5	246.058
192	253.768
192.5	256.428
193	253.472
193.5	245.306
194	232.781
194.5	218.048
195	202.732
195.5	188.221
196	175.229
196.5	163.905
197	154.432
197.5	146.343
198	139.458
198.5	133.927
199	129.686
199.5	126.673
200	125.006
200.5	124.53
201	124.944
201.5	125.925
202	127.043
202.5	127.979
203	128.561
203.5	128.931
204	129.463
204.5	130.788
205	133.185
205.5	136.479
206	140.331
206.5	144.169
207	147.607
207.5	150.508
208	153.1
208.5	155.739
209	158.503
209.5	161.048
210	162.855
210.5	163.294
211	162.04
211.5	159.408
212	155.827
212.5	152.03
213	148.407
213.5	144.974
214	141.541
214.5	137.954
215	134.259
215.5	130.785
216	127.931
216.5	125.891
217	124.467
217.5	123.117
218	121.343
218.5	118.778
219	115.581
219.5	112.129
220	109.106
220.5	106.835
221	105.382
221.5	104.567
222	103.959
222.5	103.284
223	102.374
223.5	101.304
224	100.233
224.5	99.359
225	98.7576
225.5	98.4826
226	98.5895
226.5	98.9806
227	99.561
227.5	100.114
228	100.359
228.5	100.114
229	99.2513
229.5	98.0237
230	96.6989
230.5	95.6656
231	95.1215
231.5	95.1326
232	95.5925
232.5	96.1888
233	96.7972
233.5	97.3931
234	98.0385
234.5	98.7815
235	99.5933
235.5	100.29
236	100.689
236.5	100.682
237	100.488
237.5	100.413
238	100.941
238.5	102.29
239	104.479
239.5	107.337
240	110.19
240.5	112.551
241	114.004
241.5	114.718
242	115.133
242.5	116.105
243	118.552
243.5	123.342
244	131.325
244.5	141.98
245	154.601
245.5	168.456
246	182.515
246.5	196.176
247	209.066
247.5	221.171
248	232.421
248.5	242.126
249	249.295
249.5	252.907
250	251.345
250.5	244.402
251	232.892
251.5	217.808
252	201.581
252.5	186.255
253	173.236
253.5	162.936
254	154.943
254.5	148.867
255	143.958
255.5	139.612
256	135.535
256.5	131.518
257	127.476
257.5	123.411
258	119.462
258.5	115.866
259	113.011
259.5	111.245
260	110.584
260.5	110.794
261	111.302
261.5	111.546
262	111.126
262.5	109.952
263	108.367
263.5	106.853
264	106.05
264.5	106.22
265	107.323
265.5	109.019
266	110.748
266.5	112.063
267	112.646
267.5	112.614
268	112.238
268.5	112.069
269	112.511
269.5	113.787
270	115.928
270.5	118.576
271	121.413
271.5	124.071
272	126.352
272.5	128.171
273	129.619
273.5	130.934
274	132.254
274.5	133.646
275	135.021
275.5	136.174
276	136.682
276.5	136.244
277	134.542
277.5	131.362
278	127.158
278.5	122.301
279	117.293
279.5	112.621
280	108.531
280.5	105.173
281	102.24
281.5	99.4522
282	96.5624
282.5	93.5261
283	90.4195
283.5	87.4335
284	84.7303
284.5	82.4185
285	80.6411
285.5	79.3418
286	78.4739
286.5	78.0699
287	78.0064
287.5	78.1763
288	78.4198
288.5	78.5191
289	78.3127
289.5	77.6242
290	76.5402
290.5	75.2539
291	74.0011
291.5	73.007
292	72.3959
292.5	72.2604
293	72.4533
293.5	72.7646
294	72.8536
294.5	72.3975
295	71.2436
295.5	69.2658
296	66.7094
296.5	63.9267
297	61.3583
297.5	59.3722
298	58.0966
298.5	57.5428
299	57.3125
299.5	57.099
300	56.8079
300.5	56.6354
301	56.9397
301.5	58.2316
302	60.7275
302.5	64.2268
303	68.2794
303.5	72.0346
304	74.95
304.5	76.6617
305	77.2732
305.5	77.1926
306	76.7607
306.5	76.2801
307	75.8459
307.5	75.401
308	74.8851
308.5	74.3632
309	74.0164
309.5	74.0804
310	74.6576
310.5	75.806
311	77.4167
311.5	79.2419
312	81.0562
312.5	82.6386
313	83.8851
313.5	84.691
314	85.0079
314.5	84.9593
315	84.6914
315.5	84.4596
316	84.4867
316.5	84.9091
317	85.6038
317.5	86.2557
318	86.5899
318.5	86.4289
319	85.9424
319.5	85.4135
320	85.2514
320.5	85.6274
321	86.5118
321.5	87.5332
322	88.2655
322.5	88.5012
323	88.2588
323.5	87.9203
324	87.8488
324.5	88.4125
325	89.5584
325.5	91.1194
326	92.7859
326.5	94.3219
327	95.6833
327.5	96.8852
328	97.9704
328.5	98.8721
329	99.3762
329.5	99.4204
330	99.021
330.5	98.3812
331	97.929
331.5	97.8902
332	98.3705
332.5	99.0655
333	99.6707
333.5	99.8391
334	99.5698
334.5	99.0299
335	98.5713
335.5	98.471
336	98.7601
336.5	99.3525
337	100.03
337.5	100.715
338	101.501
338.5	102.573
339	104.083
339.5	106.123
340	108.4
340.5	110.53
341	112.085
341.5	112.927
342	113.106
342.5	112.737
343	112.125
343.5	111.47
344	110.887
344.5	110.387
345	109.938
345.5	109.525
346	109.15
346.5	108.827
347	108.578
347.5	108.412
348	108.34
348.5	108.412
349	108.674
349.5	109.157
350	109.859
350.5	110.673
351	111.467
351.5	112.094
352	112.45
352.5	112.516
353	112.266
353.5	111.718
354	110.888
354.5	109.682
355	108.067
355.5	106.101
356	103.888
356.5	101.693
357	99.812
357.5	98.5662
358	98.1544
358.5	98.4841
359	99.4124
359.5	100.592
360	101.669
360.5	102.446
361	102.862
361.5	103.009
362	102.931
362.5	102.605
363	101.945
363.5	100.748
364	98.8102
364.5	96.2407
365	93.3207
365.5	90.5273
366	88.28
366.5	86.8692
367	86.3691
367.5	86.3914
368	86.5314
368.5	86.2977
369	85.4651
369.5	84.0214
370	82.2435
370.5	80.5521
371	79.2577
371.5	78.6397
372	78.64
372.5	79.1856
373	80.1431
373.5	81.2315
374	82.2377
374.5	82.8335
375	82.8818
375.5	82.2757
376	80.9383
376.5	79.1741
377	77.2703
377.5	75.6663
378	74.6608
378.5	74.4346
379	75.1548
379.5	76.5025
380	78.2074
380.5	79.991
381	81.6388
381.5	83.0471
382	84.0835
382.5	84.7424
383	84.9758
383.5	84.676
384	83.98
384.5	83.0606
385	82.2524
385.5	81.8375
386	81.9214
386.5	82.4649
387	83.0982
387.5	83.4786
388	83.2521
388.5	82.4595
389	81.3447
389.5	80.3588
390	79.9674
390.5	80.3573
391	81.5537
391.5	83.1833
392	84.8665
392.5	86.1762
393	86.8298
393.5	86.7055
394	85.6963
394.5	84.0662
395	82.2079
395.5	80.7086
396	80.038
396.5	80.328
397	81.5115
397.5	83.0603
398	84.4595
398.5	85.3712
399	85.9499
399.5	86.7361
400	88.5745
400.5	92.1389
401	97.4694
401.5	104.276
402	111.901
402.5	119.866
403	128.237
403.5	137.62
404	148.853
404.5	163.244
405	181.69
405.5	204.004
406	229.797
406.5	256.892
407	282.31
407.5	302.48
408	313.811
408.5	315.092
409	304.958
409.5	284.309
410	256.954
410.5	226.084
411	195.556
411.5	168.222
412	145.757
412.5	128.543
413	115.39
413.5	105.697
414	98.7983
414.5	93.6947
415	89.964
415.5	87.2075
416	84.9226
416.5	82.8703
417	80.9482
417.5	79.2115
418	77.8353
418.5	77.0544
419	76.8591
419.5	77.2001
420	77.8997
420.5	78.6177
421	79.0913
421.5	79.0791
422	78.6459
422.5	77.9467
423	77.2995
423.5	76.9604
424	77.0244
424.5	77.4932
425	78.1821
425.5	79.0285
426	80.1162
426.5	81.5351
427	83.3558
427.5	85.5044
428	87.5467
428.5	88.9776
429	89.1415
429.5	88.178
430	86.351
430.5	84.1336
431	82.139
431.5	80.6956
432	80.0672
432.5	80.0848
433	80.618
433.5	81.5803
434	82.7432
434.5	83.8949
435	84.7038
435.5	84.9836
436	84.6861
436.5	83.8707
437	82.8721
437.5	81.9374
438	81.2354
438.5	80.7222
439	80.3002
439.5	79.9273
440	79.6788
440.5	79.6921
441	80.0549
441.5	80.581
442	80.9945
442.5	80.9921
443	80.5629
443.5	79.9505
444	79.5923
444.5	79.8486
445	80.7705
445.5	82.1643
446	83.5058
446.5	84.3867
447	84.6228
447.5	84.4146
448	84.0553
448.5	83.7434
449	83.502
449.5	83.2164
450	82.7574
450.5	82.1492
451	81.5846
451.5	81.3686
452	81.7374
452.5	82.6621
453	83.9479
453.5	85.2618
454	86.3665
454.5	87.1498
455	87.6716
455.5	88.0804
456	88.461
456.5	88.797
457	88.98
457.5	88.8532
458	88.3536
458.5	87.666
459	87.157
459.5	87.3147
460	88.3719
460.5	90.428
461	93.2338
461.5	96.2205
462	98.8981
462.5	100.919
463	102.43
463.5	103.81
464	105.701
464.5	108.53
465	112.48
465.5	117.318
466	122.447
466.5	127.446
467	132.04
467.5	136.358
468	140.688
468.5	145.467
469	150.891
469.5	157.011
470	163.712
470.5	170.627
471	177.539
471.5	184.348
472	191.119
472.5	197.881
473	204.464
473.5	210.497
474	215.435
474.5	218.348
475	219.129
475.5	217.715
476	214.124
476.5	209.337
477	203.958
477.5	198.539
478	193.37
478.5	188.458
479	183.682
479.5	178.798
480	173.586
480.5	167.698
481	161.075
481.5	153.743
482	145.907
482.5	138.168
483	131.077
483.5	125.304
484	120.823
484.5	117.3
485	114.17
485.5	110.842
486	107.104
486.5	103.047
487	99.1042
487.5	95.655
488	93.059
488.5	91.22
489	89.9055
489.5	88.8536
490	87.7879
490.5	86.6028
491	85.3002
491.5	83.9983
492	82.8056
492.5	81.8422
493	81.1396
493.5	80.6683
494	80.3852
494.5	80.1983
495	80.0652
495.5	80.0289
496	80.1727
496.5	80.5466
497	81.1361
497.5	81.739
498	82.0939
498.5	81.9601
499	81.341
499.5	80.4665
500	79.6691
500.5	79.2925
501	79.4647
501.5	80.1908
502	81.2198
502.5	82.2153
503	82.8487
503.5	82.8884
504	82.3424
504.5	81.3208
505	80.2375
505.5	79.5887
506	79.8833
506.5	81.4199
507	83.9732
507.5	87.1509
508	90.2389
508.5	92.629
509	93.906
509.5	94.0167
510	93.4098
510.5	92.5077
511	91.7525
511.5	91.3533
512	91.3611
512.5	91.719
513	92.3308
513.5	93.2168
514	94.4409
514.5	95.954
515	97.6576
515.5	99.2802
516	100.475
516.5	100.864
517	100.044
517.5	98.1465
518	95.3935
518.5	92.3132
519	89.636
519.5	87.8781
520	87.3661
520.5	87.7206
521	88.5513
521.5	89.3725
522	89.8667
522.5	89.9456
523	89.6182
523.5	89.053
524	88.2969
524.5	87.32
525	86.1718
525.5	84.9225
526	83.7094
526.5	82.6173
527	81.6051
527.5	80.5102
528	79.2418
528.5	77.8699
529	76.7215
529.5	76.1277
530	76.2619
530.5	77.0864
531	78.0209
531.5	78.544
532	78.1562
532.5	77.064
533	75.7448
533.5	74.9547
534	75.1198
534.5	76.1716
535	77.6044
535.5	78.656
536	78.8742
536.5	78.0111
537	76.4802
537.5	74.7606
538	73.347
538.5	72.4814
539	72.1721
539.5	72.3704
540	72.868
540.5	73.5153
541	74.1795
541.5	74.6933
542	74.8843
542.5	74.5368
543	73.6255
543.5	72.2503
544	70.5516
544.5	68.7796
545	67.1156
545.5	65.6975
546	64.5735
546.5	63.7599
547	63.3705
547.5	63.5144
548	64.262
548.5	65.7258
549	67.7829
549.5	70.1263
550	72.3346
550.5	73.9353
551	74.6971
551.5	74.4623
552	73.3967
552.5	71.8815
553	70.2617
553.5	68.8801
554	67.8996
554.5	67.4068
555	67.3463
555.5	67.54
556	67.8259
556.5	68.0152
557	68.0056
557.5	67.7885
558	67.5271
558.5	67.4921
559	67.9265
559.5	68.8869
560	70.0612
560.5	70.9856
561	71.0904
561.5	70.2401
562	68.5776
562.5	66.7104
563	65.4091
563.5	65.2442
564	66.4289
564.5	68.3468
565	70.266
565.5	71.2952
566	71.1534
566.5	69.9409
567	68.2593
567.5	66.9603
568	66.5527
568.5	67.2772
569	68.6461
569.5	70.1414
570	71.1242
570.5	71.3545
571	70.8478
571.5	69.857
572	68.8786
572.5	68.2039
573	67.9933
573.5	68.0278
574	68.0776
574.5	67.9136
575	67.5638
575.5	67.1841
576	67.0197
576.5	67.0745
577	67.1744
577.5	66.9048
578	66.0044
578.5	64.3981
579	62.2081
579.5	59.9518
580	58.0229
580.5	56.7858
581	56.1318
581.5	55.8378
582	55.6029
582.5	55.1919
583	54.5694
583.5	53.8515
584	53.2743
584.5	53.0188
585	53.2265
585.5	53.7487
586	54.3757
586.5	54.8319
587	54.9611
587.5	54.7963
588	54.562
588.5	54.6239
589	55.2196
589.5	56.4393
590	57.9304
590.5	59.2452
591	59.9407
591.5	60.015
592	59.8408
592.5	60.0421
593	61.0999
593.5	63.0117
594	65.3665
594.5	67.3343
595	68.3977
595.5	68.3874
596	67.8377
596.5	67.485
597	68.0054
597.5	69.5737
598	71.8224
598.5	74.1786
599	76.004
599.5	77.0309
600	77.2205
600.5	76.9058
601	76.5177
601.5	76.3953
602	76.729
602.5	77.4738
603	78.5099
603.5	79.5731
604	80.3823
604.5	80.6899
605	80.412
605.5	79.7492
606	79.0062
606.5	78.6093
607	78.792
607.5	79.6176
608	80.8383
608.5	81.986
609	82.6368
609.5	82.5035
610	81.7437
610.5	80.6402
611	79.6454
611.5	79.0829
612	79.0972
612.5	79.6249
613	80.3563
613.5	81.0557
614	81.544
614.5	81.8361
615	82.0036
615.5	82.1064
616	82.1427
616.5	82.0297
617	81.6411
617.5	81.0044
618	80.2312
618.5	79.5959
619	79.3651
619.5	79.7286
620	80.7905
620.5	82.2433
621	83.7846
621.5	85.0331
622	85.858
622.5	86.3183
623	86.6938
623.5	87.3792
624	88.6309
624.5	90.6233
625	93.0001
625.5	95.3669
626	97.1701
626.5	98.1991
627	98.423
627.5	97.9554
628	97.3035
628.5	96.8587
629	97.078
629.5	98.0518
630	99.7509
630.5	102.08
631	104.661
631.5	107.208
632	109.388
632.5	111.022
633	111.992
633.5	112.1
634	111.467
634.5	110.263
635	108.767
635.5	107.448
636	106.662
636.5	106.707
637	107.316
637.5	108.037
638	108.26
638.5	107.633
639	106.183
639.5	104.197
640	102.275
640.5	100.839
641	100.157
641.5	100.064
642	100.256
642.5	100.456
643	100.479
643.5	100.28
644	99.8201
644.5	99.0994
645	98.1383
645.5	96.984
646	95.8049
646.5	94.7672
647	93.9602
647.5	93.2573
648	92.4013
648.5	91.1108
649	89.365
649.5	87.4351
650	85.707
650.5	84.5026
651	83.8063
651.5	83.4084
652	82.9294
652.5	82.1427
653	81.0328
653.5	79.8363
654	78.8394
654.5	78.2355
655	78.0279
655.5	78.018
656	78.0127
656.5	77.8405
657	77.4582
657.5	76.8768
658	76.189
658.5	75.5547
659	75.152
659.5	75.1435
660	75.4581
660.5	75.8706
661	75.9127
661.5	75.2324
662	73.702
662.5	71.5919
663	69.5979
663.5	68.3568
664	68.3847
664.5	69.4194
665	71.0184
665.5	72.486
666	73.3143
666.5	73.2845
667	72.3758
667.5	70.972
668	69.327
668.5	67.6999
669	66.302
669.5	65.3096
670	64.9481
670.5	65.1191
671	65.6504
671.5	66.1746
672	66.3145
672.5	65.8912
673	64.9145
673.5	63.8284
674	62.995
674.5	62.7368
675	62.8561
675.5	63.0051
676	62.6642
676.5	61.6918
677	60.2165
677.5	58.6553
678	57.5168
678.5	57.0507
679	57.2911
679.5	57.7521
680	57.9956
680.5	57.6108
681	56.6787
681.5	55.4822
682	54.4415
682.5	53.8075
683	53.5514
683.5	53.4314
684	53.1126
684.5	52.4736
685	51.6332
685.5	50.9743
686	50.8048
686.5	51.3169
687	52.2298
687.5	53.1188
688	53.4829
688.5	53.1156
689	52.1105
689.5	50.7051
690	49.2995
690.5	48.1593
691	47.4752
691.5	47.2576
692	47.4591
692.5	48.0742
693	48.9784
693.5	50.0037
694	50.9651
694.5	51.7112
695	52.2096
695.5	52.478
696	52.5989
696.5	52.6215
697	52.5268
697.5	52.3193
698	52.0894
698.5	52.0241
699	52.3154
699.5	52.9561
700	53.7377
700.5	54.2085
701	54.0272
701.5	53.0511
702	51.6201
702.5	50.3768
703	49.9336
703.5	50.5619
704	51.8853
704.5	53.3373
705	54.2916
705.5	54.6102
706	54.538
706.5	54.6631
707	55.3992
707.5	56.8171
708	58.5048
708.5	59.8183
709	60.2847
709.5	59.7392
710	58.6032
710.5	57.3388
711	56.4712
711.5	56.2212
712	56.6514
712.5	57.6792
713	58.9949
713.5	60.3596
714	61.4932
714.5	62.2507
715	62.5696
715.5	62.4931
716	62.2651
716.5	62.0641
717	62.0275
717.5	62.129
718	62.3023
718.5	62.4819
719	62.6544
719.5	62.8317
720	62.9678
720.5	62.9386
721	62.5913
721.5	61.775
722	60.6957
722.5	59.6495
723	59.1273
723.5	59.3013
724	60.1466
724.5	61.4449
725	62.7337
725.5	63.7561
726	64.3344
726.5	64.5561
727	64.4519
727.5	63.9246
728	62.9991
728.5	61.777
729	60.5828
729.5	59.8521
730	59.8605
730.5	60.7239
731	61.9788
731.5	63.1526
732	63.81
732.5	63.9812
733	63.9516
733.5	64.1387
734	64.7545
734.5	65.7217
735	66.7689
735.5	67.5776
736	68.0234
736.5	68.1009
737	67.9712
737.5	67.7321
738	67.3931
738.5	66.9765
739	66.5703
739.5	66.3799
740	66.5907
740.5	67.2454
741	68.2837
741.5	69.4589
742	70.5775
742.5	71.5544
743	72.4334
743.5	73.2639
744	73.9809
744.5	74.4175
745	74.4395
745.5	73.9683
746	73.1751
746.5	72.3492
747	71.7608
747.5	71.5473
748	71.6511
748.5	71.9777
749	72.3885
749.5	72.7745
750	73.0321
750.5	73.0416
751	72.744
751.5	72.1208
752	71.3204
752.5	70.6034
753	70.2281
753.5	70.3552
754	70.8903
754.5	71.7021
755	72.5972
755.5	73.4059
756	73.9728
756.5	74.0934
757	73.6626
757.5	72.5908
758	70.9909
758.5	69.2784
759	67.8796
759.5	67.182
760	67.1242
760.5	67.4785
761	67.8527
761.5	67.9799
762	67.8384
762.5	67.6166
763	67.5436
763.5	67.6866
764	67.9075
764.5	67.9378
765	67.584
765.5	66.7771
766	65.772
766.5	64.8309
767	64.2476
767.5	64.0517
768	64.1604
768.5	64.378
769	64.4839
769.5	64.3979
770	64.1771
770.5	64.0478
771	64.1995
771.5	64.7782
772	65.5655
772.5	66.2646
773	66.4104
773.5	65.8815
774	64.7514
774.5	63.3181
775	62.0754
775.5	61.3131
776	61.2137
776.5	61.5132
777	61.936
777.5	62.1507
778	61.9709
778.5	61.3214
779	60.1461
779.5	58.6511
780	57.0769
780.5	55.8078
781	55.1369
781.5	55.1805
782	55.9013
782.5	56.8362
783	57.5496
783.5	57.6364
784	57.1239
784.5	56.2791
785	55.498
785.5	55.086
786	55.0754
786.5	55.3084
787	55.4757
787.5	55.4194
788	55.1781
788.5	55.0359
789	55.2624
789.5	56.0353
790	57.1509
790.5	58.2151
791	58.7692
791.5	58.6405
792	58.0493
792.5	57.4621
793	57.4118
793.5	58.0616
794	59.2199
794.5	60.2299
795	60.4977
795.5	59.6258
796	57.8362
796.5	55.7865
797	54.1945
797.5	53.5654
798	53.8441
798.5	54.7323
799	55.6594
799.5	56.1911
800	56.0943
800.5	55.4227
801	54.4619
801.5	53.4843
802	52.7677
802.5	52.4451
803	52.595
803.5	53.1538
804	53.875
804.5	54.4726
805	54.6062
805.5	54.1535
806	53.1186
806.5	51.7623
807	50.5256
807.5	49.7869
808	49.7954
808.5	50.3578
809	51.1707
809.5	51.7891
810	51.9526
810.5	51.6083
811	50.9364
811.5	50.3073
812	49.9983
812.5	50.2108
813	50.8307
813.5	51.6986
814	52.5514
814.5	53.1283
815	53.2221
815.5	52.6284
816	51.5033
816.5	50.0644
817	48.7267
817.5	47.8752
818	47.7281
818.5	48.3691
819	49.3925
819.5	50.4561
820	51.1902
820.5	51.5206
821	51.4997
821.5	51.2359
822	50.9023
822.5	50.5567
823	50.2269
823.5	49.9456
824	49.7763
824.5	49.8433
825	50.1555
825.5	50.6617
826	51.1982
826.5	51.5183
827	51.4293
827.5	50.7474
828	49.6489
828.5	48.4066
829	47.4471
829.5	47.0575
830	47.2878
830.5	47.9682
831	48.5965
831.5	48.7806
832	48.2344
832.5	47.1828
833	46.0215
833.5	45.2513
834	45.1348
834.5	45.6519
835	46.6486
835.5	47.7777
836	48.8069
836.5	49.5794
837	50.0707
837.5	50.2954
838	50.2211
838.5	49.8749
839	49.3102
839.5	48.5901
840	47.8438
840.5	47.1865
841	46.7283
841.5	46.4991
842	46.4459
842.5	46.4838
843	46.5007
843.5	46.4615
844	46.4414
844.5	46.6099
845	47.0788
845.5	47.8504
846	48.6686
846.5	49.1793
847	49.0415
847.5	48.1964
848	46.955
848.5	45.7274
849	44.9084
849.5	44.5553
850	44.5138
850.5	44.4605
851	44.2051
851.5	43.7901
852	43.4988
852.5	43.6021
853	44.2496
853.5	45.3336
854	46.5135
854.5	47.4989
855	48.1165
855.5	48.4738
856	48.7521
856.5	49.1506
857	49.6917
857.5	50.2409
858	50.5175
858.5	50.3524
859	49.6963
859.5	48.7086
860	47.7566
860.5	47.1388
861	47.0637
861.5	47.3644
862	47.7957
862.5	48.0213
863	47.8919
863.5	47.4288
864	46.8337
864.5	46.4036
865	46.3259
865.5	46.6869
866	47.2604
866.5	47.8019
867	47.993
867.5	47.7468
868	47.0906
868.5	46.1595
869	45.2192
869.5	44.412
870	43.8286
870.5	43.4053
871	43.1149
871.5	43.0184
872	43.1661
872.5	43.6084
873	44.3402
873.5	45.136
874	45.7797
874.5	46.0166
875	45.8488
875.5	45.3666
876	44.7243
876.5	44.125
877	43.6761
877.5	43.4571
878	43.4159
878.5	43.4721
879	43.5016
879.5	43.4005
880	43.1618
880.5	42.9109
881	42.877
881.5	43.2154
882	43.9581
882.5	44.7976
883	45.3764
883.5	45.3445
884	44.7552
884.5	43.9005
885	43.1769
885.5	42.8464
886	42.9072
886.5	43.2508
887	43.7161
887.5	44.2695
888	44.9553
888.5	45.7083
889	46.3288
889.5	46.5246
890	46.2308
890.5	45.7022
891	45.3875
891.5	45.6206
892	46.2676
892.5	46.7825
893	46.455
893.5	45.0523
894	42.8134
894.5	40.618
895	39.2599
895.5	39.2058
896	40.2201
896.5	41.6531
897	43.0331
897.5	44.1968
898	45.283
898.5	46.3701
899	47.2403
899.5	47.5079
900	46.7997
900.5	45.1841
901	43.2965
901.5	41.8346
902	41.2883
902.5	41.4732
903	41.9825
903.5	42.3534
904	42.506
904.5	42.6957
905	43.3271
905.5	44.4608
906	45.8558
906.5	46.9686
907	47.4277
907.5	47.1356
908	46.3391
908.5	45.5446
909	45.0907
909.5	45.1532
910	45.5494
910.5	46.0616
911	46.4123
911.5	46.449
912	46.1244
912.5	45.5372
913	45.0064
913.5	44.8376
914	45.3033
914.5	46.1727
915	47.0114
915.5	47.0735
916	46.0657
916.5	44.066
917	41.6645
917.5	39.818
918	39.1279
918.5	39.9422
919	41.5217
919.5	43.179
920	44.1751
920.5	44.4468
921	44.2469
921.5	44.0346
922	44.1224
922.5	44.4904
923	44.8694
923.5	44.9678
924	44.7146
924.5	44.2531
925	43.9175
925.5	43.9033
926	44.2622
926.5	44.7313
927	45.0695
927.5	45.0832
928	44.8389
928.5	44.4781
929	44.1398
929.5	43.8572
930	43.5673
930.5	43.1787
931	42.7063
931.5	42.2634
932	42.0526
932.5	42.1813
933	42.6291
933.5	43.3012
934	44.0193
934.5	44.6986
935	45.3579
935.5	46.0852
936	46.9253
936.5	47.8256
937	48.6002
937.5	49.058
938	49.0034
938.5	48.4561
939	47.5874
939.5	46.6137
940	45.7848
940.5	45.2351
941	45.0374
941.5	45.116
942	45.3212
942.5	45.4986
943	45.5091
943.5	45.3209
944	44.9903
944.5	44.7115
945	44.6895
945.5	45.0966
946	45.9008
946.5	46.8375
947	47.5873
947.5	47.8893
948	47.7751
948.5	47.4374
949	47.2092
949.5	47.2792
950	47.6461
950.5	48.0992
951	48.4125
951.5	48.5004
952	48.4589
952.5	48.4617
953	48.5742
953.5	48.691
954	48.6318
954.5	48.2896
955	47.738
955.5	47.2203
956	46.9224
956.5	46.8934
957	46.9716
957.5	47.0364
958	47.1112
958.5	47.3691
959	47.9732
959.5	48.8994
960	49.7728
960.5	50.1791
961	49.7662
961.5	48.7883
962	47.6704
962.5	47.0075
963	46.9845
963.5	47.4704
964	48.0859
964.5	48.4543
965	48.4677
965.5	48.231
966	48.0484
966.5	48.1245
967	48.6489
967.5	49.5676
968	50.8439
968.5	52.435
969	54.1213
969.5	55.6972
970	56.8503
970.5	57.4915
971	57.6266
971.5	57.3419
972	56.9277
972.5	56.5724
973	56.458
973.5	56.6179
974	57.0317
974.5	57.6173
975	58.1671
975.5	58.5161
976	58.5593
976.5	58.4902
977	58.6197
977.5	59.388
978	60.8275
978.5	62.6657
979	64.3594
979.5	65.4252
980	65.7606
980.5	65.6094
981	65.6016
981.5	66.1732
982	67.5293
982.5	69.3217
983	71.1311
983.5	72.6751
984	74.061
984.5	75.6143
985	77.6977
985.5	80.2856
986	83.0048
986.5	85.2606
987	86.626
987.5	87.115
988	87.0137
988.5	86.9193
989	87.2353
989.5	88.1075
990	89.2761
990.5	90.3644
991	91.0666
991.5	91.3567
992	91.4454
992.5	91.5609
993	91.8415
993.5	92.2343
994	92.586
994.5	92.7343
995	92.6512
995.5	92.3845
996	92.0467
996.5	91.7007
997	91.3045
997.5	90.7416
998	89.9414
998.5	88.8843
999	87.668
999.5	86.4541
1000	85.3658
1000.5	84.4655
1001	83.7152
1001.5	83.0839
1002	82.5515
1002.5	82.0998
1003	81.7206
1003.5	81.3817
1004	81.0539
1004.5	80.7819
1005	80.7275
1005.5	81.0338
1006	81.7941
1006.5	82.9103
1007	84.0004
1007.5	84.6709
1008	84.5675
1008.5	83.8395
1009	82.7958
1009.5	81.9339
1010	81.5531
1010.5	81.6916
1011	82.1585
1011.5	82.6214
1012	82.9606
1012.5	83.2717
1013	83.7723
1013.5	84.5692
1014	85.5372
1014.5	86.2668
1015	86.3754
1015.5	85.535
1016	84.1091
1016.5	82.5227
1017	81.3512
1017.5	80.7904
1018	80.7578
1018.5	80.9463
1019	80.979
1019.5	80.7759
1020	80.5849
1020.5	80.8557
1021	81.9109
1021.5	83.9114
1022	86.2888
1022.5	88.3938
1023	89.3612
1023.5	88.9896
1024	87.4531
1024.5	85.244
1025	83.2057
1025.5	81.8579
1026	81.5695
1026.5	82.0424
1027	82.8903
1027.5	83.7392
1028	84.3699
1028.5	84.7988
1029	85.2205
1029.5	85.9371
1030	87.1834
1030.5	89.1893
1031	91.8214
1031.5	94.7978
1032	97.7373
1032.5	100.305
1033	102.432
1033.5	104.292
1034	106.339
1034.5	108.946
1035	112.371
1035.5	116.397
1036	120.598
1036.5	124.54
1037	128.098
1037.5	131.552
1038	135.525
1038.5	140.713
1039	147.474
1039.5	156.1
1040	166.284
1040.5	177.449
1041	189.223
1041.5	201.403
1042	214.15
1042.5	228.103
1043	243.977
1043.5	262.019
1044	282.391
1044.5	304.545
1045	327.501
1045.5	350.472
1046	372.77
1046.5	394.014
1047	413.539
1047.5	430.131
1048	442.604
1048.5	448.939
1049	447.461
1049.5	438.88
1050	423.887
1050.5	404.468
1051	383.457
1051.5	362.535
1052	342.613
1052.5	323.442
1053	304.506
1053.5	285.422
1054	266.425
1054.5	248.252
1055	231.978
1055.5	217.896
1056	206.004
1056.5	195.859
1057	186.578
1057.5	177.816
1058	169.549
1058.5	161.812
1059	154.69
1059.5	148.174
1060	142.015
1060.5	136.139
1061	130.685
1061.5	125.8
1062	121.667
1062.5	118.444
1063	115.838
1063.5	113.628
1064	111.597
1064.5	109.541
1065	107.372
1065.5	105.022
1066	102.558
1066.5	100.099
1067	97.8928
1067.5	96.0749
1068	94.6757
1068.5	93.6133
1069	92.6161
1069.5	91.5523
1070	90.435
1070.5	89.4326
1071	88.6896
1071.5	88.2938
1072	88.0751
1072.5	87.8504
1073	87.4145
1073.5	86.6975
1074	85.7049
1074.5	84.469
1075	83.178
1075.5	82.0659
1076	81.4991
1076.5	81.5938
1077	82.2279
1077.5	83.0202
1078	83.4328
1078.5	83.1966
1079	82.3194
1079.5	81.2925
1080	80.5564
1080.5	80.3978
1081	80.6678
1081.5	81.1207
1082	81.6807
1082.5	82.5126
1083	83.8269
1083.5	85.7134
1084	87.8081
1084.5	89.6287
1085	90.767
1085.5	91.3159
1086	91.7107
1086.5	92.4405
1087	93.6794
1087.5	95.1711
1088	96.464
1088.5	97.2436
1089	97.6412
1089.5	98.134
1090	99.3812
1090.5	101.657
1091	105.004
1091.5	109.008
1092	113.102
1092.5	116.79
1093	119.704
1093.5	121.763
1094	122.866
1094.5	123.025
1095	122.373
1095.5	120.875
1096	118.57
1096.5	115.693
1097	112.5
1097.5	109.412
1098	106.767
1098.5	104.728
1099	103.224
1099.5	101.965
1100	100.759
1100.5	99.5259
1101	98.3162
1101.5	97.1987
1102	96.1853
1102.5	95.2152
1103	94.272
1103.5	93.429
1104	92.7615
1104.5	92.2679
1105	91.7626
1105.5	90.9861
1106	89.823
1106.5	88.4295
1107	87.2204
1107.5	86.5306
1108	86.5187
1108.5	86.8607
1109	87.2525
1109.5	87.5045
1110	87.7544
1110.5	88.2487
1111	89.1712
1111.5	90.2388
1112	90.9964
1112.5	90.7895
1113	89.5963
1113.5	87.7278
1114	85.8273
1114.5	84.5601
1115	84.2879
1115.5	85.2545
1116	86.9474
1116.5	88.9076
1117	90.5138
1117.5	91.4174
1118	91.5393
1118.5	91.0194
1119	90.3968
1119.5	90.018
1120	90.0801
1120.5	90.3268
1121	90.5091
1121.5	90.4884
1122	90.4457
1122.5	90.6417
1123	91.3235
1123.5	92.3442
1124	93.4367
1124.5	94.3481
1125	95.1475
1125.5	96.1438
1126	97.8109
1126.5	100.211
1127	103.041
1127.5	105.689
1128	107.691
1128.5	109.039
1129	110.126
1129.5	111.626
1130	113.924
1130.5	117.065
1131	120.436
1131.5	123.358
1132	125.233
1132.5	126.11
1133	126.443
1133.5	126.747
1134	127.28
1134.5	127.79
1135	127.703
1135.5	126.644
1136	124.765
1136.5	122.59
1137	120.867
1137.5	119.904
1138	119.519
1138.5	118.974
1139	117.657
1139.5	115.335
1140	112.542
1140.5	110.165
1141	108.947
1141.5	108.957
1142	109.576
1142.5	110.065
1143	109.797
1143.5	108.726
1144	107.086
1144.5	105.363
1145	103.924
1145.5	102.941
1146	102.381
1146.5	102.056
1147	101.812
1147.5	101.486
1148	101.001
1148.5	100.348
1149	99.6138
1149.5	98.9359
1150	98.384
1150.5	97.8884
1151	97.262
1151.5	96.3463
1152	95.1652
1152.5	94.0501
1153	93.4306
1153.5	93.7464
1154	94.8272
1154.5	96.3235
1155	97.6986
1155.5	98.6138
1156	99.001
1156.5	99.0062
1157	98.9325
1157.5	98.9257
1158	99.0344
1158.5	99.2056
1159	99.3959
1159.5	99.5213
1160	99.4425
1160.5	98.9845
1161	97.9529
1161.5	96.5409
1162	95.0555
1162.5	94.0087
1163	93.6253
1163.5	93.8887
1164	94.5534
1164.5	95.1606
1165	95.495
1165.5	95.51
1166	95.4574
1166.5	95.5441
1167	95.9711
1167.5	96.7485
1168	97.8831
1168.5	99.3884
1169	101.061
1169.5	102.648
1170	103.711
1170.5	104.033
1171	103.576
1171.5	102.483
1172	101.283
1172.5	100.389
1173	100.153
1173.5	100.535
1174	101.384
1174.5	102.502
1175	103.607
1175.5	104.5
1176	104.947
1176.5	104.868
1177	104.264
1177.5	103.184
1178	101.935
1178.5	100.834
1179	100.177
1179.5	99.9534
1180	99.9033
1180.5	99.5514
1181	98.4792
1181.5	96.5893
1182	94.0414
1182.5	91.4179
1183	89.2351
1183.5	87.887
1184	87.2957
1184.5	87.089
1185	86.9121
1185.5	86.4555
1186	85.578
1186.5	84.1663
1187	82.2887
1187.5	80.1742
1188	78.157
1188.5	76.6035
1189	75.6156
1189.5	75.0535
1190	74.4306
1190.5	73.397
1191	71.877
1191.5	70.1983
1192	68.7923
1192.5	67.9434
1193	67.6039
1193.5	67.4819
1194	67.412
1194.5	67.4494
1195	67.7812
1195.5	68.4899
1196	69.3015
1196.5	69.7573
1197	69.4945
1197.5	68.5384
1198	67.4419
1198.5	66.8367
1199	67.2426
1199.5	68.5239
1200	70.3066
1200.5	71.968
1201	73.0789
1201.5	73.5055
1202	73.3202
1202.5	72.8253
1203	72.2054
1203.5	71.5976
1204	71.051
1204.5	70.5663
1205	70.1385
1205.5	69.7704
1206	69.4984
1206.5	69.3422
1207	69.1929
1207.5	68.8666
1208	68.0833
1208.5	66.8363
1209	65.2947
1209.5	63.9233
1210	63.161
1210.5	63.2126
1211	63.9924
1211.5	64.8505
1212	65.2784
1212.5	64.8952
1213	63.9643
1213.5	62.8008
1214	61.7384
1214.5	60.8529
1215	60.037
1215.5	59.1157
1216	58.09
1216.5	57.1296
1217	56.62
1217.5	56.6951
1218	57.3227
1218.5	58.279
1219	59.0955
1219.5	59.4249
1220	58.9512
1220.5	57.8705
1221	56.516
1221.5	55.3815
1222	54.8078
1222.5	54.8062
1223	55.1542
1223.5	55.46
1224	55.5416
1224.5	55.4056
1225	55.2284
1225.5	55.054
1226	54.6566
1226.5	53.7113
1227	52.067
1227.5	49.938
1228	48.0602
1228.5	47.0307
1229	47.2333
1229.5	48.2368
1230	49.3312
1230.5	49.7895
1231	49.3684
1231.5	48.3229
1232	47.11
1232.5	46.2086
1233	45.7506
1233.5	45.7339
1234	46.0215
1234.5	46.4978
1235	47.0666
1235.5	47.5395
1236	47.7178
1236.5	47.416
1237	46.6927
1237.5	45.8397
1238	45.202
1238.5	44.984
1239	45.1165
1239.5	45.4295
1240	45.7123
1240.5	45.8922
1241	46.011
1241.5	46.1578
1242	46.3526
1242.5	46.5326
1243	46.6099
1243.5	46.5728
1244	46.4537
1244.5	46.2985
1245	46.1023
1245.5	45.7923
1246	45.2909
1246.5	44.6421
1247	43.9893
1247.5	43.5855
1248	43.555
1248.5	43.9191
1249	44.5261
1249.5	45.0957
1250	45.3938
1250.5	45.2386
1251	44.6839
1251.5	43.8234
1252	42.8527
1252.5	42.0209
1253	41.5223
1253.5	41.5325
1254	41.9756
1254.5	42.7275
1255	43.5369
1255.5	44.1186
1256	44.2633
1256.5	43.7869
1257	42.8344
1257.5	41.6297
1258	40.5602
1258.5	40.017
1259	40.2961
1259.5	41.6023
1260	43.4712
1260.5	45.3694
1261	46.5137
1261.5	46.6207
1262	45.8447
1262.5	44.7492
1263	44.0948
1263.5	44.2741
1264	45.4152
1264.5	46.8853
1265	48.0815
1265.5	48.2528
1266	47.2764
1266.5	45.3551
1267	43.0392
1267.5	41.1238
1268	40.1487
1268.5	40.5705
1269	41.9658
1269.5	43.7442
1270	45.0816
1270.5	45.4517
1271	44.8067
1271.5	43.4947
1272	42.2282
1272.5	41.4739
1273	41.5307
1273.5	42.1448
1274	42.9424
1274.5	43.5337
1275	43.7927
1275.5	43.892
1276	44.165
1276.5	44.726
1277	45.3197
1277.5	45.3035
1278	44.191
1278.5	42.0455
1279	39.5163
1279.5	37.7873
1280	37.6171
1280.5	39.2036
1281	41.9584
1281.5	45.5488
1282	50.607
1282.5	58.1137
1283	68.354
1283.5	80.3542
1284	90.687
1284.5	95.649
1285	92.3307
1285.5	81.6975
1286	67.6624
1286.5	54.6743
1287	46.3297
1287.5	43.0011
1288	43.4724
1288.5	44.9587
1289	45.476
1289.5	44.5932
1290	43.0505
1290.5	41.7454
1291	41.0992
1291.5	40.9886
1292	41.0285
1292.5	41.0002
1293	40.8633
1293.5	40.6726
1294	40.4177
1294.5	40.0666
1295	39.6815
1295.5	39.4233
1296	39.4928
1296.5	39.8899
1297	40.4683
1297.5	40.8985
1298	40.9694
1298.5	40.6334
1299	40.0219
1299.5	39.384
1300	38.8798
1300.5	38.5993
1301	38.5068
1301.5	38.5972
1302	38.9047
1302.5	39.4153
1303	40.1208
1303.5	40.9576
1304	41.7935
1304.5	42.5295
1305	43.0751
1305.5	43.4271
1306	43.5521
1306.5	43.382
1307	42.9435
1307.5	42.276
1308	41.5145
1308.5	40.8813
1309	40.5372
1309.5	40.5866
1310	40.8276
1310.5	41.003
1311	40.7738
1311.5	40.0987
1312	39.0945
1312.5	38.1181
1313	37.5966
1313.5	37.7972
1314	38.863
1314.5	40.2832
1315	41.4981
1315.5	41.8616
1316	41.3139
1316.5	40.0883
1317	38.7327
1317.5	37.8946
1318	37.9111
1318.5	38.9502
1319	40.4373
1319.5	41.8943
1320	42.8313
1320.5	43.1091
1321	42.7726
1321.5	41.8989
1322	40.7238
1322.5	39.4018
1323	38.1409
1323.5	37.2225
1324	36.9294
1324.5	37.614
1325	39.1508
1325.5	41.1429
1326	42.9446
1326.5	43.9258
1327	43.9221
1327.5	43.1147
1328	42.1107
1328.5	41.3794
1329	41.182
1329.5	41.3778
1330	41.6949
1330.5	41.9148
1331	41.9992
1331.5	42.0249
1332	42.033
1332.5	41.9895
1333	41.8475
1333.5	41.6329
1334	41.5172
1334.5	41.6927
1335	42.224
1335.5	42.8616
1336	43.24
1336.5	43.0528
1337	42.3809
1337.5	41.6927
1338	41.5794
1338.5	42.3717
1339	43.6641
1339.5	44.7254
1340	44.8462
1340.5	44.0118
1341	42.7047
1341.5	41.8368
1342	41.9478
1342.5	43.0718
1343	44.4948
1343.5	45.4996
1344	45.7502
1344.5	45.3707
1345	44.7947
1345.5	44.2564
1346	43.7251
1346.5	42.9952
1347	41.947
1347.5	40.6689
1348	39.4305
1348.5	38.4787
1349	38.039
1349.5	38.1358
1350	38.8328
1350.5	40.1029
1351	41.6249
1351.5	43.0709
1352	44.0195
1352.5	44.3379
1353	44.0352
1353.5	43.2596
1354	42.3083
1354.5	41.3298
1355	40.4447
1355.5	39.773
1356	39.492
1356.5	39.8461
1357	40.7159
1357.5	41.8493
1358	42.7021
1358.5	42.9289
1359	42.4791
1359.5	41.6211
1360	40.9558
1360.5	40.8629
1361	41.5433
1361.5	42.5497
1362	43.4527
1362.5	43.9212
1363	44.1058
1363.5	44.2465
1364	44.5326
1364.5	44.8266
1365	44.8364
1365.5	44.2269
1366	43.2509
1366.5	42.3112
1367	41.9304
1367.5	42.1913
1368	42.893
1368.5	43.6657
1369	44.2113
1369.5	44.5413
1370	44.8343
1370.5	45.2313
1371	45.6794
1371.5	45.9144
1372	45.6748
1372.5	44.8437
1373	43.5122
1373.5	42.1341
1374	41.0785
1374.5	40.6037
1375	40.5285
1375.5	40.5094
1376	40.2405
1376.5	39.8149
1377	39.6646
1377.5	40.3168
1378	41.8137
1378.5	43.7498
1379	45.51
1379.5	46.6171
1380	47.026
1380.5	46.925
1381	46.5965
1381.5	46.1867
1382	45.7969
1382.5	45.556
1383	45.509
1383.5	45.6152
1384	46.0339
1384.5	47.6681
1385	52.8643
1385.5	64.177
1386	81.9162
1386.5	104.031
1387	123.636
1387.5	133.449
1388	128.362
1388.5	109.618
1389	84.7949
1389.5	61.9191
1390	47.622
1390.5	42.3799
1391	43.3179
1391.5	45.3772
1392	45.6836
1392.5	43.9284
1393	41.5549
1393.5	40.0802
1394	40.123
1394.5	41.3128
1395	42.7238
1395.5	43.8445
1396	44.412
1396.5	44.528
1397	44.3503
1397.5	44.1262
1398	44.0192
1398.5	43.9726
1399	43.7809
1399.5	43.3791
1400	42.9418
1400.5	42.8888
1401	43.3975
1401.5	44.258
1402	44.87
1402.5	44.8996
1403	44.4494
1403.5	44.0437
1404	44.1137
1404.5	44.6406
1405	45.1233
1405.5	45.2067
1406	45.0561
1406.5	45.3834
1407	46.6829
1407.5	48.9357
1408	51.3681
1408.5	52.8116
1409	52.6806
1409.5	50.8012
1410	48.2182
1410.5	45.785
1411	44.389
1411.5	44.0398
1412	44.3312
1412.5	44.5933
1413	44.3705
1413.5	43.6529
1414	42.8439
1414.5	42.5379
1415	43.0291
1415.5	44.1501
1416	45.2123
1416.5	45.7368
1417	45.4506
1417.5	44.7125
1418	43.9204
1418.5	43.4012
1419	43.1309
1419.5	43.0219
1420	43.1194
1420.5	43.5503
1421	44.4126
1421.5	45.6529
1422	46.8264
1422.5	47.5344
1423	47.484
1423.5	46.8927
1424	46.1682
1424.5	45.7856
1425	45.9521
1425.5	46.4666
1426	46.9145
1426.5	46.9074
1427	46.3698
1427.5	45.5086
1428	44.8464
1428.5	44.7568
1429	45.2843
1429.5	45.9823
1430	46.3367
1430.5	45.9637
1431	45.002
1431.5	43.9822
1432	43.5143
1432.5	43.8217
1433	44.6296
1433.5	45.4529
1434	45.7953
1434.5	45.5452
1435	44.8931
1435.5	44.3004
1436	44.0313
1436.5	44.1264
1437	44.3847
1437.5	44.5802
1438	44.6084
1438.5	44.528
1439	44.4209
1439.5	44.259
1440	43.9338
1440.5	43.4157
1441	42.8099
1441.5	42.4189
1442	42.4291
1442.5	42.8564
1443	43.4609
1443.5	43.9092
1444	43.9916
1444.5	43.6944
1445	43.2706
1445.5	42.9267
1446	42.8131
1446.5	42.9342
1447	43.2632
1447.5	43.6859
1448	43.9683
1448.5	43.8666
1449	43.2021
1449.5	42.1998
1450	41.254
1450.5	40.9608
1451	41.5068
1451.5	42.6621
1452	43.838
1452.5	44.497
1453	44.451
1453.5	43.8593
1454	43.2652
1454.5	42.9991
1455	43.1675
1455.5	43.5393
1456	43.9475
1456.5	44.3104
1457	44.6729
1457.5	45.079
1458	45.5032
1458.5	45.8592
1459	46.0697
1459.5	46.0084
1460	45.6137
1460.5	44.7763
1461	43.424
1461.5	41.8662
1462	40.5033
1462.5	39.9661
1463	40.4049
1463.5	41.6506
1464	43.1123
1464.5	44.168
1465	44.6032
1465.5	44.4819
1466	44.2219
1466.5	44.0551
1467	43.9777
1467.5	43.8377
1468	43.5952
1468.5	43.3712
1469	43.3341
1469.5	43.5185
1470	43.7793
1470.5	43.9478
1471	44.047
1471.5	44.2815
1472	44.7948
1472.5	45.4624
1473	45.8038
1473.5	45.4183
1474	44.3071
1474.5	42.8727
1475	41.8765
1475.5	41.8509
1476	42.9579
1476.5	44.5899
1477	46.0971
1477.5	46.9112
1478	46.8466
1478.5	46.0023
1479	44.5271
1479.5	42.7757
1480	41.1039
1480.5	39.9664
1481	39.7334
1481.5	40.468
1482	41.9561
1482.5	43.5324
1483	44.6597
1483.5	45.0189
1484	44.7207
1484.5	44.135
1485	43.5488
1485.5	43.0479
1486	42.5462
1486.5	41.9722
1487	41.373
1487.5	40.8785
1488	40.5871
1488.5	40.4712
1489	40.4464
1489.5	40.5102
1490	40.7314
1490.5	41.1323
1491	41.6153
1491.5	41.9538
1492	42.0356
1492.5	41.9152
1493	41.8361
1493.5	41.9957
1494	42.3416
1494.5	42.5502
1495	42.3599
1495.5	41.7138
1496	40.8595
1496.5	40.2302
1497	40.0947
1497.5	40.4915
1498	41.1695
1498.5	41.9432
1499	42.6732
1499.5	43.3106
1500	43.8283
1500.5	44.1557
1501	44.2488
1501.5	44.0307
1502	43.3882
1502.5	42.393
1503	41.2104
1503.5	40.1832
1504	39.6207
1504.5	39.6772
1505	40.2844
1505.5	40.9355
1506	41.2768
1506.5	41.181
1507	40.9903
1507.5	41.0492
1508	41.6762
1508.5	42.653
1509	43.6754
1509.5	44.4408
1510	44.8993
1510.5	45.0737
1511	44.9121
1511.5	44.4611
1512	43.787
1512.5	43.093
1513	42.6363
1513.5	42.5123
1514	42.608
1514.5	42.6063
1515	42.4261
1515.5	42.2567
1516	42.3997
1516.5	42.9443
1517	43.612
1517.5	43.9444
1518	43.8268
1518.5	43.5569
1519	43.6993
1519.5	44.5144
1520	45.6469
1520.5	46.3091
1521	46.0672
1521.5	44.9291
1522	43.6192
1522.5	42.7505
1523	42.4821
1523.5	42.3912
1524	42.1144
1524.5	41.592
1525	41.1514
1525.5	41.0351
1526	40.9089
1526.5	40.6692
1527	40.2365
1527.5	39.9093
1528	40.1801
1528.5	41.124
1529	42.4128
1529.5	43.4437
1530	43.8693
1530.5	43.6758
1531	43.1606
1531.5	42.6418
1532	42.3029
1532.5	42.3268
1533	42.7411
1533.5	43.5346
1534	44.4397
1534.5	45.1151
1535	44.8056
1535.5	43.7524
1536	42.2458
1536.5	40.7485
1537	39.6134
1537.5	39.1069
1538	39.22
1538.5	39.7653
1539	40.5761
1539.5	41.3783
1540	41.9406
1540.5	41.9778
1541	41.5817
1541.5	40.9132
1542	40.2579
1542.5	39.7954
1543	39.5885
1543.5	39.4972
1544	39.4594
1544.5	39.5729
1545	39.9747
1545.5	40.7565
1546	41.7284
1546.5	42.4842
1547	42.6791
1547.5	42.2521
1548	41.455
1548.5	40.7407
1549	40.4485
1549.5	40.5946
1550	41.004
1550.5	41.387
1551	41.5614
1551.5	41.5319
1552	41.4541
1552.5	41.4713
1553	41.6606
1553.5	42.0044
1554	42.4068
1554.5	42.7031
1555	42.7834
1555.5	42.5768
1556	42.1463
1556.5	41.5742
1557	40.9997
1557.5	40.5041
1558	40.1725
1558.5	40.0726
1559	40.269
1559.5	40.7981
1560	41.395
1560.5	41.7606
1561	41.585
1561.5	40.8715
1562	39.8481
1562.5	39.0549
1563	38.7355
1563.5	38.8763
1564	39.0837
1564.5	39.0469
1565	38.7089
1565.5	38.5016
1566	38.8382
1566.5	39.8311
1567	41.118
1567.5	42.0053
1568	41.9269
1568.5	40.9484
1569	39.4997
1569.5	38.3149
1570	37.912
1570.5	38.5755
1571	39.8469
1571.5	41.2696
1572	42.3422
1572.5	42.8269
1573	42.6027
1573.5	42.0188
1574	41.4748
1574.5	41.3647
1575	41.7727
1575.5	42.6288
1576	43.6249
1576.5	44.4822
1577	45.0863
1577.5	45.4783
1578	45.684
1578.5	45.5687
1579	44.9548
1579.5	43.7694
1580	42.185
1580.5	40.6343
1581	39.5896
1581.5	39.4088
1582	40.0301
1582.5	41.1524
1583	42.3253
1583.5	43.2519
1584	43.6596
1584.5	43.4824
1585	42.7173
1585.5	41.4959
1586	40.0689
1586.5	38.7266
1587	37.795
1587.5	37.4858
1588	37.9184
1588.5	38.8922
1589	40.2194
1589.5	41.5776
1590	42.6045
1590.5	42.9248
1591	42.5274
1591.5	41.7305
1592	41.0345
1592.5	40.9291
1593	41.5476
1593.5	42.4806
1594	42.9527
1594.5	42.4823
1595	41.0644
1595.5	39.3342
1596	38.1201
1596.5	37.8803
1597	38.2984
1597.5	38.7533
1598	38.6838
1598.5	37.9944
1599	37.1055
1599.5	36.6145
1600	36.7234
1600.5	37.1812
1601	37.5932
1601.5	37.735
1602	37.8719
1602.5	38.4189
1603	39.6345
1603.5	41.1176
1604	42.2855
1604.5	42.4371
1605	41.5255
1605.5	40.0289
1606	38.7142
1606.5	37.9903
1607	37.989
1607.5	38.3472
1608	38.7486
1608.5	39.0831
1609	39.4699
1609.5	39.9993
1610	40.5971
1610.5	41.0644
1611	41.2467
1611.5	41.3762
1612	41.7762
1612.5	42.7402
1613	44.0265
1613.5	45.1073
1614	45.1592
1614.5	44.1878
1615	42.628
1615.5	41.4117
1616	41.1461
1616.5	42.0566
1617	43.3705
1617.5	44.2943
1618	44.3307
1618.5	43.7822
1619	43.1036
1619.5	42.7288
1620	42.5428
1620.5	42.0903
1621	41.0873
1621.5	39.7055
1622	38.4817
1622.5	37.9812
1623	38.4363
1623.5	39.543
1624	40.7847
1624.5	41.8563
1625	42.6196
1625.5	43.0557
1626	42.9677
1626.5	42.268
1627	41.0723
1627.5	39.8202
1628	39.1304
1628.5	39.4115
1629	40.5996
1629.5	41.8985
1630	42.6316
1630.5	42.5485
1631	41.8902
1631.5	41.012
1632	40.0966
1632.5	38.9299
1633	37.2052
1633.5	35.1222
1634	33.2103
1634.5	32.266
1635	32.613
1635.5	34.0402
1636	35.6234
1636.5	36.7894
1637	37.2807
1637.5	37.4772
1638	37.7732
1638.5	38.3659
1639	38.9611
1639.5	39.2055
1640	38.9666
1640.5	38.4844
1641	38.2307
1641.5	38.6114
1642	39.541
1642.5	40.5388
1643	40.993
1643.5	40.4749
1644	38.962
1644.5	37.0306
1645	35.4978
1645.5	34.93
1646	35.3224
1646.5	36.3373
1647	37.2721
1647.5	37.705
1648	37.6338
1648.5	37.579
1649	37.9775
1649.5	38.9693
1650	40.2718
1650.5	41.4109
1651	41.9646
1651.5	41.9472
1652	41.5694
1652.5	41.1514
1653	40.8139
1653.5	40.4931
1654	40.0097
1654.5	39.2221
1655	38.2291
1655.5	37.2716
1656	36.73
1656.5	36.8526
1657	37.7169
1657.5	39.1156
1658	40.416
1658.5	41.0868
1659	40.8007
1659.5	39.7323
1660	38.2634
1660.5	37.0129
1661	36.2723
1661.5	36.0494
1662	36.0427
1662.5	36.0978
1663	36.238
1663.5	36.6245
1664	37.4227
1664.5	38.4439
1665	39.3519
1665.5	39.7734
1666	39.6535
1666.5	39.1721
1667	38.7151
1667.5	38.5783
1668	38.7986
1668.5	39.2239
1669	39.6794
1669.5	40.0801
1670	40.425
1670.5	40.6985
1671	40.7727
1671.5	40.5598
1672	40.0619
1672.5	39.4558
1673	39.0027
1673.5	38.8817
1674	38.9892
1674.5	39.0268
1675	38.7408
1675.5	38.1785
1676	37.5854
1676.5	37.353
1677	37.6253
1677.5	38.2612
1678	38.8307
1678.5	39.0122
1679	38.6277
1679.5	37.8146
1680	36.8424
1680.5	36.0372
1681	35.577
1681.5	35.4977
1682	35.7663
1682.5	36.2307
1683	36.7844
1683.5	37.3478
1684	37.9398
1684.5	38.6525
1685	39.5079
1685.5	40.3902
1686	40.9593
1686.5	40.8945
1687	39.9701
1687.5	38.3299
1688	36.622
1688.5	35.4469
1689	35.1012
1689.5	35.3529
1690	35.6555
1690.5	35.4125
1691	34.5138
1691.5	33.4807
1692	32.9924
1692.5	33.461
1693	34.7638
1693.5	36.3075
1694	37.4764
1694.5	38.0727
1695	38.3839
1695.5	38.7683
1696	39.2988
1696.5	39.7417
1697	39.6399
1697.5	38.8212
1698	37.4234
1698.5	36.0089
1699	35.0214
1699.5	34.8334
1700	35.4275
1700.5	36.6328
1701	38.1108
1701.5	39.3198
1702	39.8406
1702.5	39.4653
1703	38.4596
1703.5	37.2443
1704	36.3464
1704.5	35.968
1705	36.0126
1705.5	36.0669
1706	35.9238
1706.5	35.5605
1707	35.1711
1707.5	34.9755
1708	35.1864
1708.5	35.8832
1709	37.0425
1709.5	38.3399
1710	39.3505
1710.5	39.483
1711	38.6719
1711.5	37.1737
1712	35.8002
1712.5	35.1424
1713	35.3348
1713.5	35.9119
1714	36.3916
1714.5	36.5427
1715	36.6369
1715.5	37.017
1716	37.7149
1716.5	38.2758
1717	38.2532
1717.5	37.5261
1718	36.48
1718.5	35.6479
1719	35.361
1719.5	35.4547
1720	35.5199
1720.5	35.3069
1721	34.8243
1721.5	34.2694
1722	33.8254
1722.5	33.5777
1723	33.54
1723.5	33.7201
1724	34.168
1724.5	34.7742
1725	35.3469
1725.5	35.6078
1726	35.4944
1726.5	35.1168
1727	34.8184
1727.5	34.8096
1728	35.1422
1728.5	35.611
1729	35.974
1729.5	35.991
1730	35.6685
1730.5	35.1435
1731	34.6529
1731.5	34.2897
1732	33.9893
1732.5	33.5568
1733	32.9203
1733.5	32.2556
1734	32.1076
1734.5	32.8598
1735	34.593
1735.5	36.6078
1736	38.1586
1736.5	38.5973
1737	38.0576
1737.5	37.031
1738	36.2891
1738.5	36.0599
1739	36.1856
1739.5	36.2295
1740	35.9478
1740.5	35.2902
1741	34.4649
1741.5	33.6595
1742	33.0286
1742.5	32.6083
1743	32.3955
1743.5	32.2399
1744	31.9676
1744.5	31.4295
1745	30.7998
1745.5	30.4635
1746	30.8598
1746.5	31.8902
1747	33.1778
1747.5	34.1396
1748	34.5693
1748.5	34.6307
1749	34.8415
1749.5	35.4257
1750	36.0229
1750.5	36.0184
1751	35.0404
1751.5	33.3655
1752	31.8275
1752.5	31.3668
1753	32.3287
1753.5	34.2178
1754	35.8893
1754.5	36.4284
1755	35.5299
1755.5	33.5957
1756	31.665
1756.5	30.6785
1757	31.1087
1757.5	32.5275
1758	34.0625
1758.5	34.9395
1759	34.9758
1759.5	34.4431
1760	33.9867
1760.5	33.9805
1761	34.3833
1761.5	34.7361
1762	34.626
1762.5	34.0336
1763	33.2528
1763.5	32.7072
1764	32.614
1764.5	32.9341
1765	33.4111
1765.5	33.7671
1766	33.9388
1766.5	34.072
1767	34.3267
1767.5	34.7586
1768	35.1917
1768.5	35.3985
1769	35.1542
1769.5	34.5992
1770	33.9848
1770.5	33.5298
1771	33.1956
1771.5	32.8162
1772	32.2814
1772.5	31.732
1773	31.5476
1773.5	31.9789
1774	32.8463
1774.5	33.5803
1775	33.6965
1775.5	33.042
1776	31.999
1776.5	31.1669
1777	31.0435
1777.5	31.617
1778	32.4822
1778.5	33.1224
1779	33.326
1779.5	33.1628
1780	32.989
1780.5	33.1892
1781	34.0069
1781.5	35.2449
1782	36.2962
1782.5	36.3387
1783	35.1096
1783.5	32.9079
1784	30.5739
1784.5	28.9983
1785	28.6007
1785.5	29.1107
1786	29.782
1786.5	30.0999
1787	30.1838
1787.5	30.4376
1788	31.2088
1788.5	32.2497
1789	33.0581
1789.5	33.0341
1790	32.2067
1790.5	30.9898
1791	30.1504
1791.5	30.0336
1792	30.6983
1792.5	31.7198
1793	32.6896
1793.5	33.2095
1794	33.2041
1794.5	32.7188
1795	32.0504
1795.5	31.6067
1796	31.7687
1796.5	32.641
1797	33.9508
1797.5	35.1289
1798	35.5697
1798.5	35.0089
1799	33.5921
1799.5	32.0474
1800	30.8943
1800.5	30.2791
1801	29.9344
1801.5	29.5752
1802	29.1616
1802.5	28.9324
1803	29.2878
1803.5	30.2039
1804	31.3483
1804.5	32.227
1805	32.6891
1805.5	32.8509
1806	33.0349
1806.5	33.3861
1807	33.818
1807.5	34.0558
1808	33.9106
1808.5	33.3325
1809	32.4949
1809.5	31.5199
1810	30.592
1810.5	29.9266
1811	29.8151
1811.5	30.3629
1812	31.3793
1812.5	32.3405
1813	32.6144
1813.5	31.9083
1814	30.3207
1814.5	28.4794
1815	27.0355
1815.5	26.5404
1816	27.0416
1816.5	28.3436
1817	29.777
1817.5	30.7843
1818	30.9685
1818.5	30.5363
1819	29.8232
1819.5	29.3321
1820	29.3621
1820.5	30.078
1821	31.3237
1821.5	32.7654
1822	33.8379
1822.5	34.0843
1823	33.3404
1823.5	31.8561
1824	30.3834
1824.5	29.5755
1825	29.679
1825.5	30.2642
1826	30.6539
1826.5	30.3807
1827	29.6399
1827.5	29.0663
1828	29.1146
1828.5	29.837
1829	30.8797
1829.5	31.7922
1830	32.2968
1830.5	32.3493
1831	32.0267
1831.5	31.3568
1832	30.5314
1832.5	29.7561
1833	29.27
1833.5	29.0724
1834	29.0458
1834.5	29.0383
1835	29.0898
1835.5	29.4272
1836	30.166
1836.5	31.0545
1837	31.4553
1837.5	31.0079
1838	29.7771
1838.5	28.3427
1839	27.3298
1839.5	26.9987
1840	27.0265
1840.5	26.9326
1841	26.4766
1841.5	26.0483
1842	26.132
1842.5	26.9994
1843	28.1682
1843.5	29.0135
1844	29.0214
1844.5	28.3976
1845	27.722
1845.5	27.6714
1846	28.3489
1846.5	29.2903
1847	29.7454
1847.5	29.4068
1848	28.4522
1848.5	27.5034
1849	27.0565
1849.5	27.2956
1850	28.0095
1850.5	28.9305
1851	29.7764
1851.5	30.3735
1852	30.4982
1852.5	30.1255
1853	29.35
1853.5	28.5434
1854	28.0702
1854.5	28.0791
1855	28.2731
1855.5	28.2518
1856	27.779
1856.5	27.2141
1857	27.0458
1857.5	27.5303
1858	28.2137
1858.5	28.4798
1859	27.9344
1859.5	26.9293
1860	26.2206
1860.5	26.4658
1861	27.6224
1861.5	29.0567
1862	29.905
1862.5	29.9133
1863	29.4368
1863.5	29.1048
1864	29.265
1864.5	29.734
1865	30.0463
1865.5	29.7475
1866	28.9106
1866.5	27.954
1867	27.6035
1867.5	28.1535
1868	29.4768
1868.5	30.9043
1869	31.7251
1869.5	31.4336
1870	30.2459
1870.5	28.7894
1871	27.8289
1871.5	27.5839
1872	27.7625
1872.5	27.6675
1873	27.0182
1873.5	26.096
1874	25.6296
1874.5	25.9752
1875	26.9858
1875.5	27.8139
1876	27.8076
1876.5	26.6877
1877	25.1865
1877.5	24.1356
1878	24.2757
1878.5	25.4181
1879	27.0561
1879.5	28.5225
1880	29.5394
1880.5	30.0689
1881	30.3525
1881.5	30.5111
1882	30.5034
1882.5	30.2228
1883	29.5951
1883.5	28.7925
1884	28.1855
1884.5	28.1516
1885	28.6706
1885.5	29.3859
1886	29.6919
1886.5	29.3115
1887	28.363
1887.5	27.4254
1888	27.0238
1888.5	27.3527
1889	28.0301
1889.5	28.5371
1890	28.5495
1890.5	28.2596
1891	27.9398
1891.5	27.7532
1892	27.5749
1892.5	27.2166
1893	26.6032
1893.5	25.8808
1894	25.2309
1894.5	24.712
1895	24.23
1895.5	23.6527
1896	23.0023
1896.5	22.3678
1897	21.8141
1897.5	21.3045
1898	20.8387
1898.5	20.6114
1899	20.9376
1899.5	22.2274
1900	24.3802
1900.5	26.9409
1901	29.0941
1901.5	30.2854
1902	30.4312
1902.5	29.9269
1903	29.2855
1903.5	28.7473
1904	28.2556
1904.5	27.6852
1905	27.062
1905.5	26.6603
1906	26.7467
1906.5	27.4226
1907	28.3262
1907.5	28.9803
1908	28.9671
1908.5	28.3099
1909	27.2086
1909.5	26.0882
1910	25.2369
1910.5	24.8787
1911	24.8917
1911.5	25.0556
1912	24.9839
1912.5	24.4458
1913	23.4128
1913.5	22.2846
1914	21.5779
1914.5	21.7681
1915	22.7467
1915.5	24.1698
1916	25.5143
1916.5	26.4082
1917	26.6481
1917.5	26.1981
1918	25.2181
1918.5	23.9294
1919	22.83
1919.5	22.3984
1920	23.1538
1920.5	24.8066
1921	26.6975
1921.5	27.8179
1922	27.7051
1922.5	26.3762
1923	24.6228
1923.5	23.2731
1924	22.9173
1924.5	23.3227
1925	23.9277
1925.5	24.0391
1926	23.5076
1926.5	22.5928
1927	21.976
1927.5	22.1108
1928	23.1671
1928.5	24.7742
1929	26.4349
1929.5	27.632
1930	28.1941
1930.5	28.1706
1931	27.7904
1931.5	27.3609
1932	27.0575
1932.5	26.94
1933	26.9741
1933.5	27.1584
1934	27.5018
1934.5	27.9945
1935	28.5463
1935.5	28.9452
1936	28.9636
1936.5	28.4047
1937	27.336
1937.5	25.9146
1938	24.4989
1938.5	23.392
1939	22.8812
1939.5	22.9369
1940	23.4135
1940.5	24.0509
1941	24.5754
1941.5	24.8189
1942	24.6975
1942.5	24.2582
1943	23.618
1943.5	23.1098
1944	23.0703
1944.5	23.845
1945	25.1646
1945.5	26.4887
1946	26.9663
1946.5	26.2981
1947	24.7052
1947.5	23.249
1948	22.9411
1948.5	24.4988
1949	27.2832
1949.5	30.2754
1950	32.1455
1950.5	32.4119
1951	31.1866
1951.5	29.3844
1952	27.9983
1952.5	27.6252
1953	27.9463
1953.5	28.1854
1954	27.4734
1954.5	25.8798
1955	24.1063
1955.5	23.3752
1956	24.1009
1956.5	25.9084
1957	27.6342
1957.5	28.4681
1958	28.129
1958.5	27.2193
1959	26.3009
1959.5	25.6699
1960	25.1614
1960.5	24.6291
1961	24.1885
1961.5	24.1192
1962	24.6038
1962.5	25.3249
1963	25.7529
1963.5	25.37
1964	24.4061
1964.5	23.3999
1965	23.0361
1965.5	23.452
1966	24.4593
1966.5	25.5544
1967	26.3993
1967.5	26.8817
1968	27.1633
1968.5	27.3809
1969	27.5273
1969.5	27.4604
1970	27.0178
1970.5	26.1479
1971	25.0811
1971.5	24.1677
1972	23.7933
1972.5	24.0491
1973	24.8492
1973.5	25.7624
1974	26.4354
1974.5	26.5953
1975	26.3637
1975.5	25.978
1976	25.7849
1976.5	25.9391
1977	26.4164
1977.5	26.8877
1978	26.9991
1978.5	26.3777
1979	25.1463
1979.5	23.6464
1980	22.5036
1980.5	22.0835
1981	22.4346
1981.5	23.1739
1982	23.8906
1982.5	24.3361
1983	24.533
1983.5	24.5376
1984	24.2848
1984.5	23.7499
1985	23.0475
1985.5	22.6356
1986	22.9276
1986.5	24.0919
1987	25.5765
1987.5	26.6347
1988	26.5995
1988.5	25.7676
1989	24.8328
1989.5	24.6242
1990	25.1402
1990.5	25.8925
1991	26.1395
1991.5	25.6972
1992	24.8678
1992.5	24.3351
1993	24.4203
1993.5	25.0181
1994	25.5072
1994.5	25.4403
1995	24.739
1995.5	23.851
1996	23.2784
1996.5	23.2608
1997	23.5875
1997.5	23.8344
1998	23.7067
1998.5	23.2723
1999	22.9487
1999.5	23.1099
2000	23.8882
2000.5	25.006
2001	25.9785
2001.5	26.3424
2002	26.0159
2002.5	25.2852
2003	24.7041
2003.5	24.7213
2004	25.4305
2004.5	26.4508
2005	27.1404
2005.5	27.0008
2006	26.0397
2006.5	24.7322
2007	23.6763
2007.5	23.2095
2008	23.2959
2008.5	23.7328
2009	24.2903
2009.5	24.9376
2010	25.6533
2010.5	26.2833
2011	26.5305
2011.5	26.1753
2012	25.2831
2012.5	24.1646
2013	23.3343
2013.5	23.1136
2014	23.5779
2014.5	24.3344
2015	24.925
2015.5	24.9345
2016	24.3539
2016.5	23.4338
2017	22.7141
2017.5	22.56
2018	23.1886
2018.5	24.2632
2019	25.3696
2019.5	25.9629
2020	25.8112
2020.5	24.8268
2021	23.3033
2021.5	21.6665
2022	20.419
2022.5	19.8457
2023	19.9856
2023.5	20.6447
2024	21.3908
2024.5	21.9134
2025	22.086
2025.5	22.0602
2026	22.0795
2026.5	22.3331
2027	22.8045
2027.5	23.337
2028	23.761
2028.5	24.0629
2029	24.3785
2029.5	24.8109
2030	25.3028
2030.5	25.6034
2031	25.5389
2031.5	25.0776
2032	24.4174
2032.5	23.6282
2033	22.5446
2033.5	21.0461
2034	19.2731
2034.5	17.9464
2035	17.8051
2035.5	19.3494
2036	21.9386
2036.5	24.4311
2037	25.5076
2037.5	25.0139
2038	23.5249
2038.5	22.1955
2039	21.7182
2039.5	22.1366
2040	22.849
2040.5	23.3609
2041	23.5407
2041.5	23.6556
2042	23.8799
2042.5	24.1474
2043	24.2409
2043.5	24.0711
2044	23.74
2044.5	23.3413
2045	22.7806
2045.5	21.9721
2046	21.1364
2046.5	20.9051
2047	21.6768
2047.5	23.2571
2048	24.6679
2048.5	24.997
2049	24.0323
2049.5	22.6876
2050	22.0243
2050.5	22.5224
2051	23.3916
2051.5	23.6814
2052	22.8376
2052.5	21.6372
2053	21.0038
2053.5	21.4834
2054	22.5269
2054.5	23.3431
2055	23.5093
2055.5	23.3628
2056	23.5276
2056.5	24.2158
2057	25.124
2057.5	25.6609
2058	25.6145
2058.5	25.1205
2059	24.5659
2059.5	24.1805
2060	24.0213
2060.5	24.0008
2061	24.0439
2061.5	24.0892
2062	24.084
2062.5	24.0164
2063	23.9624
2063.5	24.0447
2064	24.3483
2064.5	24.7859
2065	25.1549
2065.5	25.2427
2066	25.0755
2066.5	24.8553
2067	24.8938
2067.5	25.2492
2068	25.748
2068.5	26.0026
2069	25.8383
2069.5	25.3491
2070	24.9391
2070.5	24.8466
2071	25.025
2071.5	25.0948
2072	24.8329
2072.5	24.3389
2073	23.9934
2073.5	24.0447
2074	24.3621
2074.5	24.5848
2075	24.4009
2075.5	23.842
2076	23.0886
2076.5	22.3332
2077	21.7485
2077.5	21.5507
2078	22.0065
2078.5	23.0267
2079	24.2304
2079.5	24.9352
2080	24.827
2080.5	23.9908
2081	23.0962
2081.5	22.6259
2082	22.8165
2082.5	23.4345
2083	24.2618
2083.5	25.0351
2084	25.4977
2084.5	25.318
2085	24.4785
2085.5	23.3443
2086	22.6086
2086.5	22.6228
2087	23.2309
2087.5	23.8264
2088	24.0566
2088.5	24.0797
2089	24.4131
2089.5	25.175
2090	25.9444
2090.5	26.0739
2091	25.434
2091.5	24.5225
2092	24.0684
2092.5	24.3107
2093	24.8198
2093.5	25.0203
2094	24.6873
2094.5	24.1942
2095	23.9577
2095.5	24.189
2096	24.6411
2096.5	25.0921
2097	25.4531
2097.5	25.7667
2098	25.9967
2098.5	26.019
2099	25.829
2099.5	25.597
2100	25.5867
2100.5	25.8346
2101	26.0693
2101.5	25.9154
2102	25.2273
2102.5	24.2887
2103	23.6348
2103.5	23.7323
2104	24.5987
2104.5	25.8424
2105	26.8638
2105.5	27.2033
2106	26.7475
2106.5	25.7223
2107	24.6814
2107.5	24.0455
2108	23.9557
2108.5	24.1535
2109	24.268
2109.5	24.0432
2110	23.5131
2110.5	22.8717
2111	22.3211
2111.5	21.9009
2112	21.5528
2112.5	21.2455
2113	21.0695
2113.5	21.1955
2114	21.7094
2114.5	22.6287
2115	23.7165
2115.5	24.7135
2116	25.3332
2116.5	25.5674
2117	25.537
2117.5	25.4298
2118	25.189
2118.5	24.371
2119	22.4544
2119.5	19.3899
2120	15.7374
2120.5	12.7705
2121	11.4466
2121.5	12.1705
2122	14.1437
2122.5	16.6009
2123	19.0243
2123.5	21.4816
2124	24.1645
2124.5	26.7882
2125	28.7043
2125.5	29.0317
2126	27.9478
2126.5	26.1054
2127	24.6508
2127.5	24.1431
2128	24.5081
2128.5	24.9552
2129	24.8939
2129.5	24.109
2130	23.0418
2130.5	22.062
2131	21.2811
2131.5	20.4789
2132	19.5345
2132.5	18.7404
2133	18.5961
2133.5	19.5569
2134	21.2949
2134.5	23.0841
2135	24.0103
2135.5	23.965
2136	23.3608
2136.5	23.0497
2137	23.448
2137.5	24.4009
2138	25.1064
2138.5	24.9767
2139	23.8605
2139.5	22.5515
2140	21.8634
2140.5	22.3707
2141	23.6059
2141.5	24.8815
2142	25.6162
2142.5	25.9236
2143	26.1724
2143.5	26.4963
2144	26.5522
2144.5	25.7656
2145	24.3424
2145.5	22.9996
2146	22.7411
2146.5	23.6189
2147	25.0182
2147.5	25.8897
2148	25.9033
2148.5	25.3787
2149	25.0798
2149.5	25.3021
2150	25.863
2150.5	26.2835
2151	26.3082
2151.5	25.9115
2152	25.2127
2152.5	24.2797
2153	23.3258
2153.5	22.6581
2154	22.6781
2154.5	23.3475
2155	24.4022
2155.5	25.4273
2156	26.2122
2156.5	26.7097
2157	26.8655
2157.5	26.5458
2158	25.5699
2158.5	24.2136
2159	23.0017
2159.5	22.6314
2160	23.1504
2160.5	24.241
2161	25.247
2161.5	25.7812
2162	25.7747
2162.5	25.4821
2163	25.1033
2163.5	24.6737
2164	24.1422
2164.5	23.5082
2165	22.8982
2165.5	22.5045
2166	22.5227
2166.5	23.0963
2167	24.1881
2167.5	25.6741
2168	27.1115
2168.5	28.017
2169	27.7848
2169.5	26.4777
2170	24.437
2170.5	22.4147
2171	21.0184
2171.5	20.5517
2172	20.8389
2172.5	21.5278
2173	22.3684
2173.5	23.1956
2174	23.9222
2174.5	24.441
2175	24.7968
2175.5	25.1603
2176	25.7936
2176.5	26.6779
2177	27.4587
2177.5	27.5682
2178	26.8104
2178.5	25.4443
2179	24.3277
2179.5	24.0731
2180	24.8516
2180.5	26.0412
2181	26.9527
2181.5	27.0695
2182	26.421
2182.5	25.2254
2183	23.9441
2183.5	22.9471
2184	22.7088
2184.5	23.3434
2185	24.7408
2185.5	26.2514
2186	27.0658
2186.5	26.5124
2187	24.6814
2187.5	22.2655
2188	20.2233
2188.5	19.1849
2189	19.2342
2189.5	20.0239
2190	20.9215
2190.5	21.5687
2191	21.9501
2191.5	22.3583
2192	23.1518
2192.5	24.4016
2193	25.8379
2193.5	26.8657
2194	27.0631
2194.5	26.3115
2195	24.9625
2195.5	23.6806
2196	23.0057
2196.5	23.0577
2197	23.472
2197.5	23.6412
2198	23.1208
2198.5	21.9178
2199	20.5012
2199.5	19.5369
2200	19.4272
2200.5	20.1175
2201	21.1769
2201.5	22.2636
2202	23.2036
2202.5	23.9247
2203	24.1534
2203.5	23.687
2204	22.563
2204.5	21.4221
2205	21.1201
2205.5	22.1779
2206	24.0871
2206.5	25.7269
2207	25.9774
2207.5	24.8611
2208	23.1854
2208.5	22.2062
2209	22.4609
2209.5	23.7999
2210	25.3869
2210.5	26.4488
2211	26.5799
2211.5	26.0363
2212	25.333
2212.5	24.9898
2213	25.1203
2213.5	25.5409
2214	25.9098
2214.5	26.0552
2215	25.9829
2215.5	25.7864
2216	25.5018
2216.5	25.1653
2217	25.0479
2217.5	25.5663
2218	27.2886
2218.5	30.0206
2219	33.2735
2219.5	36.1819
2220	38.1992
2220.5	39.0089
2221	38.6912
2221.5	37.5392
2222	36.0033
2222.5	34.9027
2223	34.8237
2223.5	35.8027
2224	36.6773
2224.5	36.0406
2225	33.0344
2225.5	28.5121
2226	24.1596
2226.5	21.6507
2227	21.249
2227.5	22.3116
2228	23.4882
2228.5	24.2185
2229	24.4931
2229.5	24.5195
2230	24.1982
2230.5	23.3528
2231	22.1721
2231.5	21.2318
2232	21.0446
2232.5	21.5647
2233	22.2227
2233.5	22.4307
2234	22.0861
2234.5	21.6148
2235	21.4582
2235.5	21.7929
2236	22.4238
2236.5	23.116
2237	23.6745
2237.5	23.9924
2238	24.0091
2238.5	23.7684
2239	23.4797
2239.5	23.2766
2240	23.0614
2240.5	22.6247
2241	21.9239
2241.5	21.4122
2242	21.5851
2242.5	22.6724
2243	23.9385
2243.5	24.5384
2244	23.9721
2244.5	22.8124
2245	21.9986
2245.5	22.232
2246	23.3501
2246.5	24.7418
2247	25.7336
2247.5	26.0912
2248	25.7814
2248.5	24.9802
2249	23.7839
2249.5	22.4843
2250	21.4849
2250.5	21.2255
2251	21.7889
2251.5	22.9445
2252	24.3277
2252.5	25.5271
2253	26.3123
2253.5	26.6041
2254	26.608
2254.5	26.559
2255	26.603
2255.5	26.6003
2256	26.1774
2256.5	25.1455
2257	23.6639
2257.5	22.2993
2258	21.6476
2258.5	22.0791
2259	23.5273
2259.5	25.4389
2260	27.1337
2260.5	27.976
2261	27.8223
2261.5	26.9086
2262	25.9939
2262.5	25.5432
2263	25.6065
2263.5	25.7419
2264	25.5877
2264.5	25.0956
2265	24.4386
2265.5	23.6506
2266	22.6377
2266.5	21.4724
2267	20.685
2267.5	20.8287
2268	22.0826
2268.5	23.8753
2269	25.3463
2269.5	25.9914
2270	26.057
2270.5	26.0126
2271	26.0484
2271.5	25.8951
2272	25.3146
2272.5	24.4841
2273	24.0105
2273.5	24.3563
2274	25.3511
2274.5	26.2871
2275	26.4345
2275.5	25.7235
2276	24.61
2276.5	23.7203
2277	23.2081
2277.5	22.8154
2278	22.1838
2278.5	21.4582
2279	21.1821
2279.5	21.8452
2280	23.2743
2280.5	24.8187
2281	25.7577
2281.5	25.9228
2282	25.5249
2282.5	24.8827
2283	23.9632
2283.5	22.7191
2284	21.5307
2284.5	21.1741
2285	22.0792
2285.5	23.7856
2286	25.0741
2286.5	25.0553
2287	23.8278
2287.5	22.5127
2288	22.1007
2288.5	22.7246
2289	23.4134
2289.5	23.3412
2290	22.3467
2290.5	21.3134
2291	21.0524
2291.5	22.0343
2292	23.7018
2292.5	25.4129
2293	26.5679
2293.5	27.0667
2294	26.9715
2294.5	26.5651
2295	26.1273
2295.5	25.9847
2296	26.2563
2296.5	26.7868
2297	27.0181
2297.5	26.4459
2298	24.8641
2298.5	22.7505
2299	20.8691
2299.5	19.8319
2300	19.5642
2300.5	19.7134
2301	20.0354
2301.5	20.5792
2302	21.5121
2302.5	22.7192
2303	23.7069
2303.5	23.9779
2304	23.5866
2304.5	23.1242
2305	23.3464
2305.5	24.3186
2306	25.4964
2306.5	25.9544
2307	25.484
2307.5	24.5361
2308	24.0663
2308.5	24.3837
2309	24.9781
2309.5	24.8005
2310	23.5258
2310.5	21.7287
2311	20.6718
2311.5	21.0199
2312	22.4772
2312.5	23.9208
2313	24.4945
2313.5	24.0951
2314	23.226
2314.5	22.3844
2315	21.7873
2315.5	21.4378
2316	21.3772
2316.5	21.5881
2317	22.0015
2317.5	22.4344
2318	22.8149
2318.5	23.2286
2319	23.7223
2319.5	24.1137
2320	24.0083
2320.5	23.3474
2321	22.4025
2321.5	21.7116
2322	21.4855
2322.5	21.5882
2323	21.6549
2323.5	21.5677
2324	21.4573
2324.5	21.4902
2325	21.6362
2325.5	21.807
2326	22.1534
2326.5	23.1073
2327	25.0753
2327.5	27.7582
2328	30.3855
2328.5	31.8684
2329	31.71
2329.5	29.8077
2330	27.0736
2330.5	24.3043
2331	22.1781
2331.5	20.7272
2332	19.7918
2332.5	19.2072
2333	19.0782
2333.5	19.7839
2334	21.3354
2334.5	23.2262
2335	24.4069
2335.5	24.2946
2336	22.9617
2336.5	21.2509
2337	20.024
2337.5	19.594
2338	19.5414
2338.5	19.3768
2339	18.9708
2339.5	18.7178
2340	18.9681
2340.5	19.775
2341	20.6704
2341.5	21.2587
2342	21.4554
2342.5	21.5886
2343	22.0273
2343.5	22.8342
2344	23.7585
2344.5	24.3755
2345	24.4821
2345.5	24.1158
2346	23.5127
2346.5	22.8901
2347	22.2493
2347.5	21.4665
2348	20.5721
2348.5	19.8864
2349	19.8411
2349.5	20.5567
2350	21.6645
2350.5	22.4151
2351	22.4157
2351.5	21.8998
2352	21.54
2352.5	21.817
2353	22.4853
2353.5	22.8905
2354	22.4058
2354.5	21.3531
2355	20.5181
2355.5	20.8194
2356	22.0787
2356.5	23.4329
2357	23.663
2357.5	22.6988
2358	21.4233
2358.5	21.2158
2359	22.4761
2359.5	24.5193
2360	25.8456
2360.5	25.6798
2361	24.3255
2361.5	22.8685
2362	21.973
2362.5	21.4637
2363	20.8743
2363.5	20.1685
2364	19.9916
2364.5	20.7901
2365	22.3292
2365.5	23.6167
2366	23.9788
2366.5	23.5619
2367	23.1218
2367.5	23.1819
2368	23.4673
2368.5	23.3958
2369	22.5655
2369.5	21.4492
2370	20.6445
2370.5	20.5282
2371	20.7649
2371.5	20.9852
2372	21.0906
2372.5	21.2563
2373	21.5781
2373.5	21.8035
2374	21.6504
2374.5	21.0434
2375	20.3658
2375.5	19.933
2376	19.7525
2376.5	19.5159
2377	18.9717
2377.5	18.2504
2378	17.648
2378.5	17.4686
2379	17.789
2379.5	18.681
2380	20.1856
2380.5	21.935
2381	23.281
2381.5	23.4684
2382	22.4949
2382.5	20.9828
2383	20.0366
2383.5	20.0898
2384	20.8224
2384.5	21.4276
2385	21.5888
2385.5	21.5375
2386	21.6476
2386.5	21.9439
2387	21.9781
2387.5	21.3694
2388	19.992
2388.5	18.4038
2389	17.2504
2389.5	17.228
2390	18.1831
2390.5	19.6068
2391	20.5846
2391.5	20.6613
2392	19.8863
2392.5	18.9764
2393	18.4324
2393.5	18.3999
2394	18.5687
2394.5	18.8379
2395	19.3722
2395.5	20.1813
2396	20.8832
2396.5	20.8762
2397	20.0946
2397.5	19.0058
2398	18.3732
2398.5	18.4518
2399	19.0446
2399.5	19.7066
2400	20.2671
2400.5	20.6121
2401	20.4719
2401.5	19.4066
2402	17.5289
2402.5	15.5024
2403	14.3124
2403.5	14.2617
2404	15.0821
2404.5	16.184
2405	17.2474
2405.5	18.3313
2406	19.4737
2406.5	20.3668
2407	20.3868
2407.5	19.3933
2408	17.7931
2408.5	16.4758
2409	16.0852
2409.5	16.6938
2410	17.6501
2410.5	18.1799
2411	17.957
2411.5	17.5069
2412	17.5373
2412.5	18.4181
2413	19.4201
2413.5	19.737
2414	18.9113
2414.5	17.5465
2415	16.3659
2415.5	15.7811
2416	15.5625
2416.5	15.4344
2417	15.4569
2417.5	15.9271
2418	17.0579
2418.5	18.4313
2419	19.6539
2419.5	20.4996
2420	21.0252
2420.5	21.1168
2421	20.4536
2421.5	18.9269
2422	16.8696
2422.5	15.318
2423	15.0915
2423.5	16.439
2424	18.4288
2424.5	20.1646
2425	20.9622
2425.5	20.8256
2426	19.8723
2426.5	18.4036
2427	16.7148
2427.5	15.3221
2428	14.7734
2428.5	15.3478
2429	16.791
2429.5	18.3981
2430	19.6628
2430.5	20.4559
2431	20.9736
2431.5	21.3492
2432	21.5427
2432.5	21.4169
2433	20.8083
2433.5	19.7885
2434	18.479
2434.5	17.2038
2435	16.373
2435.5	16.3717
2436	17.0849
2436.5	18.0238
2437	18.6685
2437.5	19.0463
2438	19.5418
2438.5	20.4486
2439	21.3251
2439.5	21.5123
2440	20.771
2440.5	19.6709
2441	19.0158
2441.5	19.1092
2442	19.6222
2442.5	19.9935
2443	20.0085
2443.5	19.7514
2444	19.3514
2444.5	18.8883
2445	18.5549
2445.5	18.7037
2446	19.4065
2446.5	20.2867
2447	20.6323
2447.5	20.1899
2448	19.4093
2448.5	19.0869
2449	19.4545
2449.5	19.9742
2450	20.0189
2450.5	19.3696
2451	18.4918
2451.5	17.814
2452	17.4529
2452.5	17.0894
2453	16.5248
2453.5	15.8981
2454	15.5821
2454.5	15.9591
2455	17.1455
2455.5	18.8348
2456	20.3739
2456.5	20.9785
2457	20.3398
2457.5	18.8226
2458	17.5868
2458.5	17.351
2459	18.0263
2459.5	18.7961
2460	18.9767
2460.5	18.5865
2461	18.0768
2461.5	17.7995
2462	17.6208
2462.5	17.4149
2463	17.574
2463.5	18.7362
2464	21.3185
2464.5	24.7645
2465	27.9426
2465.5	29.7673
2466	30.1766
2466.5	29.7887
2467	29.4676
2467.5	29.6099
2468	30.2058
2468.5	31.0551
2469	31.9511
2469.5	32.6939
2470	33.0311
2470.5	32.8661
2471	32.3512
2471.5	32.031
2472	32.1781
2472.5	32.4953
2473	32.1216
2473.5	30.2462
2474	26.7874
2474.5	22.6807
2475	19.2234
2475.5	17.3834
2476	17.16
2476.5	18.1485
2477	19.3626
2477.5	20.119
2478	19.8729
2478.5	18.7297
2479	17.0928
2479.5	15.7744
2480	15.2415
2480.5	15.5864
2481	16.2916
2481.5	16.9191
2482	17.1815
2482.5	17.1508
2483	16.9421
2483.5	16.6985
2484	16.5491
2484.5	16.6354
2485	17.0016
2485.5	17.5734
2486	18.2561
2486.5	19.0149
2487	19.8945
2487.5	20.8004
2488	21.3296
2488.5	20.9732
2489	19.6548
2489.5	17.9804
2490	16.8718
2490.5	16.7854
2491	17.3723
2491.5	17.7391
2492	17.4394
2492.5	16.892
2493	17.067
2493.5	18.1658
2494	19.5885
2494.5	20.2275
2495	19.7665
2495.5	18.6949
2496	18.0295
2496.5	18.0773
2497	18.3284
2497.5	18.1372
2498	17.3547
2498.5	16.4361
2499	15.8517
2499.5	15.8186
2500	16.1679
2500.5	16.7459
2501	17.5245
2501.5	18.426
2502	19.2999
2502.5	19.8921
2503	20.1027
2503.5	19.9263
2504	19.5059
2504.5	18.9786
2505	18.4605
2505.5	18.1099
2506	18.1189
2506.5	18.7029
2507	19.6514
2507.5	20.4607
2508	20.3067
2508.5	18.9875
2509	17.01
2509.5	15.6651
2510	15.811
2510.5	17.7414
2511	20.3182
2511.5	22.4466
2512	23.2135
2512.5	22.8402
2513	21.7788
2513.5	20.6182
2514	19.6785
2514.5	19.1562
2515	19.0491
2515.5	19.2913
2516	19.7667
2516.5	20.2499
2517	20.559
2517.5	20.5127
2518	20.1044
2518.5	19.4321
2519	18.7686
2519.5	18.3051
2520	18.1079
2520.5	18.0398
2521	18.0258
2521.5	18.0595
2522	18.1165
2522.5	18.0715
2523	17.7025
2523.5	16.9596
2524	16.0715
2524.5	15.5535
2525	15.7339
2525.5	16.6268
2526	17.5221
2526.5	17.7108
2527	16.8326
2527.5	15.5815
2528	14.9826
2528.5	15.6128
2529	17.0257
2529.5	18.1879
2530	18.3403
2530.5	17.565
2531	16.6161
2531.5	16.1168
2532	16.131
2532.5	16.3837
2533	16.7463
2533.5	17.3554
2534	18.2532
2534.5	19.1563
2535	19.493
2535.5	19.1311
2536	18.3214
2536.5	17.653
2537	17.4556
2537.5	17.6959
2538	17.9778
2538.5	18.0182
2539	17.7046
2539.5	17.0936
2540	16.2313
2540.5	15.3252
2541	14.897
2541.5	15.5751
2542	17.431
2542.5	19.4863
2543	20.4591
2543.5	19.8033
2544	18.2355
2544.5	17.2223
2545	17.6214
2545.5	19.0832
2546	20.4668
2546.5	21.1961
2547	21.4126
2547.5	21.5765
2548	21.6601
2548.5	21.1254
2549	19.7747
2549.5	18.1031
2550	17.0663
2550.5	17.0817
2551	18.0036
2551.5	19.1902
2552	20.1379
2552.5	20.7114
2553	21.0061
2553.5	20.9905
2554	20.3886
2554.5	19.1393
2555	17.4849
2555.5	16.1937
2556	15.9061
2556.5	16.7461
2557	17.9456
2557.5	18.4981
2558	17.7255
2558.5	16.1515
2559	14.8216
2559.5	14.7048
2560	15.4026
2560.5	16.0807
2561	15.8966
2561.5	15.0161
2562	14.1339
2562.5	14.0237
2563	14.6947
2563.5	15.8736
2564	17.219
2564.5	18.6591
2565	20.0857
2565.5	21.1526
2566	21.4773
2566.5	21.0803
2567	20.459
2567.5	20.1039
2568	20.1007
2568.5	20.1515
2569	19.8501
2569.5	19.2021
2570	18.3883
2570.5	17.6394
2571	17.086
2571.5	16.8472
2572	16.973
2572.5	17.3054
2573	17.5283
2573.5	17.4502
2574	17.186
2574.5	17.0724
2575	17.2449
2575.5	17.5428
2576	17.6504
2576.5	17.5806
2577	17.5852
2577.5	17.8598
2578	18.2404
2578.5	18.294
2579	17.8717
2579.5	17.2787
2580	17.1224
2580.5	17.5977
2581	18.4055
2581.5	18.7201
2582	18.0763
2582.5	16.7263
2583	15.7311
2583.5	15.7899
2584	16.9525
2584.5	18.0918
2585	18.2297
2585.5	17.2048
2586	15.9885
2586.5	15.527
2587	16.0619
2587.5	17.0477
2588	17.7436
2588.5	17.8313
2589	17.4411
2589.5	16.79
2590	16.0951
2590.5	15.5559
2591	15.4923
2591.5	16.0818
2592	17.3061
2592.5	18.7626
2593	20.0182
2593.5	20.5481
2594	20.1922
2594.5	18.9958
2595	17.4737
2595.5	16.264
2596	15.7647
2596.5	15.8981
2597	16.3082
2597.5	16.7535
2598	17.2237
2598.5	17.7259
2599	18.0266
2599.5	17.8557
2600	17.1429
2600.5	16.2535
2601	15.6603
2601.5	15.579
2602	15.8399
2602.5	16.2385
2603	16.6923
2603.5	17.1241
2604	17.3314
2604.5	17.0096
2605	16.2201
2605.5	15.2631
2606	14.6097
2606.5	14.455
2607	14.8439
2607.5	15.7149
2608	17.0466
2608.5	18.5658
2609	19.5364
2609.5	19.2501
2610	17.7678
2610.5	16.2503
2611	15.9069
2611.5	17.0471
2612	18.8039
2612.5	19.6939
2613	18.9872
2613.5	17.0501
2614	15.0558
2614.5	14.1509
2615	14.8644
2615.5	16.6146
2616	18.0284
2616.5	17.9609
2617	16.5963
2617.5	15.0302
2618	14.6533
2618.5	15.4944
2619	16.6346
2619.5	17.0987
2620	17.0789
2620.5	17.322
2621	18.2124
2621.5	19.0965
2622	18.9732
2622.5	17.932
2623	16.8291
2623.5	16.6657
2624	17.1951
2624.5	17.4933
2625	16.8477
2625.5	15.7533
2626	15.1928
2626.5	15.6818
2627	16.7404
2627.5	17.4173
2628	17.4925
2628.5	17.3953
2629	17.654
2629.5	18.0631
2630	18.0219
2630.5	17.3689
2631	16.6765
2631.5	16.5672
2632	16.8936
2632.5	17.1225
2633	17.0426
2633.5	17.2278
2634	17.9542
2634.5	18.4738
2635	17.7745
2635.5	15.7107
2636	14.1357
2636.5	14.574
2637	17.2408
2637.5	20.0639
2638	21.4406
2638.5	21.0595
2639	20.435
2639.5	20.3617
2640	20.5194
2640.5	20.2787
2641	19.6283
2641.5	19.2972
2642	19.4598
2642.5	19.4795
2643	18.7163
2643.5	17.3372
2644	16.501
2644.5	16.8689
2645	18.2467
2645.5	19.574
2646	20.1874
2646.5	20.0823
2647	20.0869
2647.5	20.7157
2648	21.9109
2648.5	22.8716
2649	22.7647
2649.5	21.1889
2650	18.9348
2650.5	17.1369
2651	16.668
2651.5	17.3975
2652	18.4068
2652.5	18.6157
2653	17.89
2653.5	17.0364
2654	17.0441
2654.5	18.3666
2655	20.3062
2655.5	21.7933
2656	22.0874
2656.5	21.4594
2657	20.4932
2657.5	19.646
2658	18.7624
2658.5	17.5229
2659	15.8814
2659.5	14.2448
2660	13.1091
2660.5	12.6195
2661	12.6215
2661.5	13.1328
2662	14.2119
2662.5	15.8196
2663	17.3527
2663.5	18.0245
2664	17.4
2664.5	15.898
2665	14.4555
2665.5	14.0609
2666	14.9154
2666.5	16.7384
2667	18.9478
2667.5	20.6343
2668	20.9617
2668.5	19.619
2669	17.4892
2669.5	15.845
2670	15.782
2670.5	17.1798
2671	18.916
2671.5	19.6917
2672	19.1414
2672.5	17.7023
2673	16.4261
2673.5	16.0229
2674	16.5701
2674.5	17.5677
2675	18.4087
2675.5	18.6397
2676	18.2859
2676.5	17.7008
2677	17.2396
2677.5	16.9548
2678	16.7215
2678.5	16.5342
2679	16.61
2679.5	17.0913
2680	17.7367
2680.5	18.0283
2681	17.7267
2681.5	17.1906
2682	17.1092
2682.5	17.6396
2683	18.3376
2683.5	18.2194
2684	17.0555
2684.5	15.3002
2685	14.0517
2685.5	13.9242
2686	14.9635
2686.5	16.0912
2687	16.5536
2687.5	16.0154
2688	14.9996
2688.5	14.1707
2689	13.9554
2689.5	14.1845
2690	14.4786
2690.5	14.526
2691	14.4096
2691.5	14.6214
2692	15.5445
2692.5	17.2359
2693	19.1217
2693.5	20.339
2694	20.4143
2694.5	19.8533
2695	19.4792
2695.5	19.7635
2696	20.0123
2696.5	19.4115
2697	17.8283
2697.5	16.2681
2698	15.5869
2698.5	15.644
2699	15.6063
2699.5	15.2421
2700	15.2984
2700.5	16.3339
2701	17.8682
2701.5	18.5765
2702	17.9909
2702.5	16.7908
2703	15.9395
2703.5	15.5118
2704	14.9073
2704.5	14.147
2705	14.0426
2705.5	15.1018
2706	16.667
2706.5	17.4638
2707	17.3114
2707.5	16.9385
2708	17.3232
2708.5	18.1388
2709	18.4691
2709.5	17.9128
2710	17.0413
2710.5	16.8757
2711	17.4283
2711.5	18.0395
2712	17.7879
2712.5	16.6012
2713	15.1121
2713.5	14.495
2714	15.2795
2714.5	17.3784
2715	19.516
2715.5	20.5336
2716	19.3986
2716.5	17.4458
2717	15.7669
2717.5	15.0985
2718	15.2158
2718.5	15.6343
2719	15.8818
2719.5	15.8442
2720	15.7198
2720.5	15.7764
2721	16.1198
2721.5	16.4631
2722	16.4378
2722.5	16.064
2723	15.7288
2723.5	15.9143
2724	16.5816
2724.5	17.2649
2725	17.5495
2725.5	17.4615
2726	17.2541
2726.5	17.0129
2727	16.6493
2727.5	16.1676
2728	15.8096
2728.5	15.833
2729	16.1025
2729.5	16.1171
2730	15.3476
2730.5	13.779
2731	12.2512
2731.5	11.721
2732	12.6836
2732.5	14.8284
2733	17.1473
2733.5	18.8902
2734	19.8179
2734.5	19.9799
2735	19.3534
2735.5	17.9198
2736	15.9248
2736.5	14.0779
2737	13.3604
2737.5	14.1561
2738	15.97
2738.5	17.87
2739	18.9699
2739.5	18.8613
2740	17.8799
2740.5	16.6191
2741	15.7043
2741.5	15.5447
2742	15.9903
2742.5	16.578
2743	16.94
2743.5	17.0017
2744	16.8902
2744.5	16.6313
2745	16.1585
2745.5	15.6361
2746	15.6329
2746.5	16.6075
2747	18.1622
2747.5	19.2815
2748	19.1074
2748.5	17.7725
2749	16.417
2749.5	15.7693
2750	15.6402
2750.5	15.3077
2751	14.5521
2751.5	14.0601
2752	14.4896
2752.5	15.7352
2753	16.9293
2753.5	17.4363
2754	17.5121
2754.5	17.7098
2755	18.0958
2755.5	17.9847
2756	16.8871
2756.5	15.2488
2757	14.1412
2757.5	14.4024
2758	15.7572
2758.5	17.1577
2759	17.8965
2759.5	17.9525
2760	17.7368
2760.5	17.4819
2761	17.031
2761.5	16.2274
2762	15.2018
2762.5	14.3239
2763	13.8018
2763.5	13.5692
2764	13.5047
2764.5	13.6183
2765	14.0172
2765.5	14.6558
2766	15.3376
2766.5	15.8416
2767	16.026
2767.5	15.8577
2768	15.4074
2768.5	14.9089
2769	14.7968
2769.5	15.529
2770	17.0201
2770.5	18.6264
2771	19.6286
2771.5	19.7207
2772	19.2003
2772.5	18.6893
2773	18.5079
2773.5	18.6662
2774	19.0005
2774.5	19.2433
2775	19.0955
2775.5	18.4146
2776	17.4326
2776.5	16.7205
2777	16.7132
2777.5	17.1046
2778	17.2847
2778.5	16.9911
2779	16.6486
2779.5	16.8853
2780	17.5238
2780.5	17.7262
2781	16.8266
2781.5	15.109
2782	13.783
2782.5	13.658
2783	14.5572
2783.5	15.6829
2784	16.395
2784.5	16.7887
2785	17.2475
2785.5	17.8118
2786	18.1217
2786.5	17.8107
2787	17.0862
2787.5	16.5099
2788	16.3925
2788.5	16.4882
2789	16.1998
2789.5	15.3851
2790	14.6633
2790.5	14.8253
2791	16.0714
2791.5	17.65
2792	18.4485
2792.5	18.1203
2793	17.1438
2793.5	16.225
2794	15.6582
2794.5	15.2566
2795	14.9995
2795.5	15.2307
2796	16.2396
2796.5	17.7288
2797	18.8195
2797.5	18.975
2798	18.4499
2798.5	18.0263
2799	18.3273
2799.5	19.1121
2800	19.5507
2800.5	19.0258
2801	17.6476
2801.5	16.3113
2802	16.076
2802.5	17.1143
2803	18.6331
2803.5	19.4321
2804	18.7562
2804.5	16.9512
2805	15.049
2805.5	13.7379
2806	13.1229
2806.5	13.0159
2807	13.3909
2807.5	14.313
2808	15.5904
2808.5	16.701
2809	17.1816
2809.5	17.0899
2810	17.0327
2810.5	17.4047
2811	18.0946
2811.5	18.6236
2812	18.5268
2812.5	17.8034
2813	16.8089
2813.5	16.0224
2814	15.8266
2814.5	16.269
2815	16.8423
2815.5	16.9117
2816	16.3016
2816.5	15.5204
2817	15.4041
2817.5	16.2511
2818	17.3784
2818.5	17.9646
2819	17.8171
2819.5	17.4921
2820	17.615
2820.5	17.9753
2821	17.9062
2821.5	17.1285
2822	16.1168
2822.5	15.6557
2823	15.8654
2823.5	16.1785
2824	16.1443
2824.5	15.9157
2825	16.0296
2825.5	16.6874
2826	17.4723
2826.5	17.977
2827	18.2046
2827.5	18.4336
2828	18.758
2828.5	18.9651
2829	19.0023
2829.5	19.1703
2830	19.7766
2830.5	20.6133
2831	20.9205
2831.5	20.2036
2832	18.6774
2832.5	17.0201
2833	15.7921
2833.5	15.0825
2834	14.6629
2834.5	14.4247
2835	14.3895
2835.5	14.5729
2836	14.9532
2836.5	15.5314
2837	16.2619
2837.5	16.889
2838	17.0006
2838.5	16.3876
2839	15.4282
2839.5	14.924
2840	15.3014
2840.5	16.271
2841	17.0504
2841.5	16.9608
2842	16.04
2842.5	14.9888
2843	14.5232
2843.5	14.8971
2844	15.7002
2844.5	16.0884
2845	15.6168
2845.5	14.7427
2846	14.4068
2846.5	15.1468
2847	16.4444
2847.5	16.976
2848	16.1125
2848.5	14.4908
2849	13.3639
2849.5	13.4969
2850	14.6128
2850.5	15.8278
2851	16.6752
2851.5	17.192
2852	17.5076
2852.5	17.6154
2853	17.5192
2853.5	17.4255
2854	17.4682
2854.5	17.4957
2855	17.2545
2855.5	16.7761
2856	16.4723
2856.5	16.5639
2857	16.7271
2857.5	16.4432
2858	15.5911
2858.5	14.6416
2859	14.2009
2859.5	14.3551
2860	14.8538
2860.5	15.533
2861	16.3875
2861.5	17.2144
2862	17.3957
2862.5	16.5265
2863	14.9991
2863.5	13.8447
2864	13.8909
2864.5	15.0107
2865	16.1754
2865.5	16.5487
2866	16.0377
2866.5	15.0859
2867	14.2602
2867.5	14.0769
2868	14.8737
2868.5	16.5443
2869	18.3823
2869.5	19.3827
2870	18.9873
2870.5	17.5949
2871	16.2189
2871.5	15.3499
2872	14.748
2872.5	14.0571
2873	13.4069
2873.5	13.341
2874	14.0454
2874.5	15.0729
2875	15.8783
2875.5	16.2787
2876	16.4481
2876.5	16.6388
2877	17.0812
2877.5	18.0159
2878	19.4314
2878.5	20.6558
2879	20.5197
2879.5	18.3151
2880	15.0325
2880.5	12.7783
2881	12.8647
2881.5	14.7447
2882	16.5282
2882.5	16.6336
2883	15.187
2883.5	13.6222
2884	12.9888
2884.5	13.3383
2885	14.0541
2885.5	14.541
2886	14.519
2886.5	13.9425
2887	12.8664
2887.5	11.6486
2888	10.9676
2888.5	11.4375
2889	13.098
2889.5	15.1625
2890	16.7724
2890.5	17.5072
2891	17.4703
2891.5	17.0231
2892	16.4959
2892.5	16.0815
2893	15.8193
2893.5	15.6067
2894	15.2722
2894.5	14.7825
2895	14.4038
2895.5	14.5379
2896	15.1549
2896.5	15.6743
2897	15.4228
2897.5	14.3219
2898	13.1533
2898.5	13.0757
2899	14.382
2899.5	16.0961
2900	16.7628
2900.5	15.6473
2901	13.4226
2901.5	11.7203
2902	11.7666
2902.5	13.2124
2903	14.8804
2903.5	15.9122
2904	16.3123
2904.5	16.4736
2905	16.365
2905.5	15.558
2906	14.1043
2906.5	12.8426
2907	12.7114
2907.5	13.8101
2908	15.2282
2908.5	15.8485
2909	15.4504
2909.5	14.617
2910	14.0731
2910.5	14.1717
2911	14.7668
2911.5	15.3373
2912	15.2912
2912.5	14.4959
2913	13.4673
2913.5	13.0301
2914	13.5789
2914.5	14.6206
2915	15.1096
2915.5	14.5046
2916	13.2465
2916.5	12.1826
2917	11.8571
2917.5	12.2414
2918	12.9728
2918.5	13.6875
2919	14.1501
2919.5	14.2168
2920	13.8421
2920.5	13.1523
2921	12.453
2921.5	12.1276
2922	12.4615
2922.5	13.3321
2923	14.2909
2923.5	14.8201
2924	14.6981
2924.5	14.1436
2925	13.6256
2925.5	13.5398
2926	13.957
2926.5	14.6911
2927	15.3442
2927.5	15.4437
2928	14.7631
2928.5	13.6156
2929	12.7263
2929.5	12.4912
2930	12.6768
2930.5	12.9052
2931	13.2471
2931.5	14.141
2932	15.6656
2932.5	17.052
2933	17.3964
2933.5	16.6319
2934	15.4369
2934.5	14.4136
2935	13.5781
2935.5	12.7271
2936	12.0993
2936.5	12.2099
2937	13.0527
2937.5	13.942
2938	14.1826
2938.5	13.7511
2939	13.2053
2939.5	12.9952
2940	13.0111
2940.5	12.9954
2941	13.0362
2941.5	13.4797
2942	14.4768
2942.5	15.7109
2943	16.5807
2943.5	16.6546
2944	16.0118
2944.5	15.0429
2945	14.1749
2945.5	13.6538
2946	13.5111
2946.5	13.6721
2947	14.0601
2947.5	14.5573
2948	14.9695
2948.5	15.1185
2949	15.0322
2949.5	14.9923
2950	15.3007
2950.5	15.9345
2951	16.4314
2951.5	16.315
2952	15.5882
2952.5	14.8272
2953	14.7838
2953.5	15.7477
2954	17.1784
2954.5	17.9631
2955	17.3856
2955.5	15.7579
2956	13.9993
2956.5	12.7678
2957	11.9926
2957.5	11.2957
2958	10.7771
2958.5	11.1758
2959	12.8016
2959.5	14.8825
2960	16.1095
2960.5	15.8925
2961	14.9291
2961.5	14.4572
2962	14.9591
2962.5	15.659
2963	15.5944
2963.5	14.7891
2964	14.1068
2964.5	14.2065
2965	14.786
2965.5	14.9442
2966	14.2227
2966.5	13.1652
2967	12.5652
2967.5	12.5314
2968	12.5977
2968.5	12.5043
2969	12.6128
2969.5	13.3977
2970	14.6442
2970.5	15.4139
2971	15.0909
2971.5	13.9908
2972	12.9461
2972.5	12.5073
2973	12.6133
2973.5	12.8824
2974	12.9972
2974.5	12.8191
2975	12.4349
2975.5	12.203
2976	12.5638
2976.5	13.5211
2977	14.3812
2977.5	14.3095
2978	13.3133
2978.5	12.5253
2979	13.0005
2979.5	14.4269
2980	15.4355
2980.5	15.0208
2981	13.5406
2981.5	12.2613
2982	12.0392
2982.5	12.6158
2983	13.1936
2983.5	13.5089
2984	13.8612
2984.5	14.4203
2985	14.8439
2985.5	14.6423
2986	13.7841
2986.5	12.7983
2987	12.2817
2987.5	12.3372
2988	12.6688
2988.5	12.9374
2989	12.9616
2989.5	12.7428
2990	12.4697
2990.5	12.4854
2991	13.0519
2991.5	13.9448
2992	14.4536
2992.5	14.0208
2993	12.8068
2993.5	11.5909
2994	11.0373
2994.5	11.0845
2995	11.1243
2995.5	10.7779
2996	10.4313
2996.5	10.7496
2997	11.8838
2997.5	13.3467
2998	14.6028
2998.5	15.6103
2999	16.6233
2999.5	17.4722
3000	17.2781
3000.5	15.378
3001	12.4888
3001.5	10.367
3002	10.2801
3002.5	11.771
3003	13.1127
3003.5	13.0449
3004	11.9554
3004.5	11.2871
3005	11.831
3005.5	12.9252
3006	13.4628
3006.5	12.9961
3007	11.9303
3007.5	10.9558
3008	10.5396
3008.5	10.8405
3009	11.7804
3009.5	13.0373
3010	14.1819
3010.5	15.0271
3011	15.705
3011.5	16.3667
3012	16.8722
3012.5	16.8872
3013	16.2475
3013.5	15.1003
3014	13.6983
3014.5	12.2569
3015	11.0754
3015.5	10.5493
3016	10.809
3016.5	11.4338
3017	11.7647
3017.5	11.5724
3018	11.2721
3018.5	11.3771
3019	11.8721
3019.5	12.3444
3020	12.6762
3020.5	13.1342
3021	13.8305
3021.5	14.3963
3022	14.3871
3022.5	13.8878
3023	13.4754
3023.5	13.5706
3024	14.0422
3024.5	14.5461
3025	14.9786
3025.5	15.2663
3026	15.0569
3026.5	14.0106
3027	12.4424
3027.5	11.3579
3028	11.5776
3028.5	12.8754
3029	14.149
3029.5	14.5193
3030	14.0136
3030.5	13.2262
3031	12.8104
3031.5	13.256
3032	14.7284
3032.5	16.7582
3033	18.2059
3033.5	17.9575
3034	15.9209
3034.5	13.2448
3035	11.258
3035.5	10.5393
3036	10.9541
3036.5	12.0763
3037	13.3313
3037.5	13.9952
3038	13.5955
3038.5	12.5115
3039	11.8461
3039.5	12.3252
3040	13.2974
3040.5	13.5358
3041	12.7337
3041.5	11.8975
3042	12.1881
3042.5	13.5925
3043	14.9373
3043.5	15.1198
3044	14.1288
3044.5	12.9023
3045	12.4839
3045.5	13.2733
3046	14.9173
3046.5	16.4563
3047	16.7773
3047.5	15.4682
3048	13.4234
3048.5	12.2974
3049	12.9655
3049.5	14.5017
3050	14.9686
3050.5	13.3847
3051	10.9015
3051.5	9.56109
3052	10.3517
3052.5	12.5953
3053	14.8101
3053.5	15.8843
3054	15.5577
3054.5	14.2652
3055	12.8227
3055.5	12.0636
3056	12.3422
3056.5	13.1952
3057	13.6986
3057.5	13.3723
3058	12.5205
3058.5	11.7718
3059	11.4295
3059.5	11.3994
3060	11.6419
3060.5	12.4125
3061	13.8744
3061.5	15.5648
3062	16.5022
3062.5	16.0061
3063	14.4805
3063.5	12.9495
3064	12.0686
3064.5	11.6364
3065	11.1177
3065.5	10.4957
3066	10.3928
3066.5	11.304
3067	12.8899
3067.5	14.2079
3068	14.61
3068.5	14.2526
3069	13.7332
3069.5	13.3751
3070	13.1366
3070.5	12.9509
3071	12.9008
3071.5	13.0585
3072	13.3233
3072.5	13.5087
3073	13.5402
3073.5	13.4999
3074	13.4886
3074.5	13.4995
3075	13.4717
3075.5	13.4886
3076	13.8339
3076.5	14.7272
3077	15.9494
3077.5	16.8355
3078	16.8109
3078.5	15.9644
3079	14.9524
3079.5	14.2633
3080	13.7084
3080.5	12.7866
3081	11.4633
3081.5	10.3492
3082	10.0317
3082.5	10.4473
3083	11.1517
3083.5	11.8693
3084	12.5813
3084.5	13.1991
3085	13.4687
3085.5	13.3066
3086	13.0333
3086.5	13.0664
3087	13.4321
3087.5	13.7861
3088	13.9645
3088.5	14.3068
3089	15.1576
3089.5	16.0738
3090	15.9461
3090.5	14.1046
3091	11.3021
3091.5	9.35488
3092	9.55809
3092.5	11.4186
3093	13.1085
3093.5	13.291
3094	12.4268
3094.5	12.1411
3095	13.3541
3095.5	15.2735
3096	16.3198
3096.5	15.8845
3097	14.6691
3097.5	13.5097
3098	12.5298
3098.5	11.5926
3099	11.1154
3099.5	11.8176
3100	13.6065
3100.5	15.2153
3101	15.3455
3101.5	14.0447
3102	12.637
3102.5	12.307
3103	13.0193
3103.5	13.8305
3104	13.9128
3104.5	13.1487
3105	11.9853
3105.5	11.1369
3106	11.1302
3106.5	11.7263
3107	11.9001
3107.5	10.8669
3108	9.21862
3108.5	8.56549
3109	9.779
3109.5	11.8596
3110	12.9575
3110.5	12.4413
3111	11.54
3111.5	11.8158
3112	13.3262
3112.5	14.5519
3113	14.1848
3113.5	12.4399
3114	10.798
3114.5	10.6121
3115	11.9274
3115.5	13.5231
3116	14.0894
3116.5	13.4473
3117	12.6461
3117.5	12.8497
3118	14.1503
3118.5	15.488
3119	15.6441
3119.5	14.2468
3120	11.9705
3120.5	10.0522
3121	9.62534
3121.5	11.0875
3122	13.7937
3122.5	16.2512
3123	17.0085
3123.5	15.7084
3124	13.3735
3124.5	11.5562
3125	11.0674
3125.5	11.4677
3126	11.7678
3126.5	11.5413
3127	11.2366
3127.5	11.4309
3128	12.0324
3128.5	12.451
3129	12.4459
3129.5	12.439
3130	12.8467
3130.5	13.3804
3131	13.3961
3131.5	12.8077
3132	12.2925
3132.5	12.5661
3133	13.6149
3133.5	14.6755
3134	14.8699
3134.5	13.9278
3135	12.5029
3135.5	11.7674
3136	12.3889
3136.5	13.7579
3137	14.4874
3137.5	13.9147
3138	12.872
3138.5	12.5942
3139	13.0312
3139.5	12.862
3140	11.386
3140.5	9.82266
3141	10.0354
3141.5	12.0716
3142	13.8944
3142.5	13.6441
3143	11.7542
3143.5	10.4367
3144	11.2083
3144.5	13.317
3145	14.8134
3145.5	14.7841
3146	14.135
3146.5	14.2182
3147	15.1412
3147.5	15.7972
3148	15.3901
3148.5	14.4157
3149	13.9419
3149.5	14.2895
3150	14.8397
3150.5	15.0112
3151	14.9527
3151.5	15.1396
3152	15.656
3152.5	16.1395
3153	16.2319
3153.5	15.7634
3154	14.6588
3154.5	13.0398
3155	11.4115
3155.5	10.4178
3156	10.2623
3156.5	10.5493
3157	10.8152
3157.5	11.0414
3158	11.4615
3158.5	12.0043
3159	12.2463
3159.5	11.9957
3160	11.6953
3160.5	12.008
3161	12.9992
3161.5	13.883
3162	13.6974
3162.5	12.2762
3163	10.572
3163.5	9.9878
3164	11.2568
3164.5	13.8016
3165	16.1357
3165.5	17.0193
3166	16.4022
3166.5	15.3142
3167	14.714
3167.5	14.5697
3168	14.1293
3168.5	13.0521
3169	12.0316
3169.5	12.0695
3170	13.209
3170.5	14.3001
3171	14.1743
3171.5	12.8818
3172	11.5684
3172.5	11.2262
3173	11.8157
3173.5	12.6128
3174	13.1066
3174.5	13.3469
3175	13.5771
3175.5	13.8424
3176	14.0245
3176.5	14.0584
3177	13.9685
3177.5	13.7634
3178	13.441
3178.5	13.1121
3179	13.0222
3179.5	13.3649
3180	14.0606
3180.5	14.7412
3181	14.9909
3181.5	14.6635
3182	14.0017
3182.5	13.4796
3183	13.4923
3183.5	14.0915
3184	14.9342
3184.5	15.5093
3185	15.5206
3185.5	15.1638
3186	14.998
3186.5	15.4383
3187	16.3206
3187.5	16.9652
3188	16.6782
3188.5	15.2461
3189	13.0997
3189.5	11.113
3190	10.1167
3190.5	10.3319
3191	11.1929
3191.5	11.9149
3192	12.3414
3192.5	13.0387
3193	14.3694
3193.5	15.6886
3194	15.848
3194.5	14.5255
3195	12.71
3195.5	11.7195
3196	12.0159
3196.5	13.174
3197	14.663
3197.5	16.1711
3198	17.2487
3198.5	17.2553
3199	16.0364
3199.5	14.4011
3200	13.5076
3200.5	13.7285
3201	14.3343
3201.5	14.3541
3202	13.6136
3202.5	12.8827
3203	13.1081
3203.5	14.5294
3204	16.4192
3204.5	17.6156
3205	17.4246
3205.5	16.1707
3206	14.9127
3206.5	14.5616
3207	15.1924
3207.5	16.1266
3208	16.6107
3208.5	16.4391
3209	16.0434
3209.5	16.052
3210	16.6966
3210.5	17.5562
3211	17.9113
3211.5	17.4391
3212	16.5504
3212.5	16.0093
3213	16.2378
3213.5	17.014
3214	17.7587
3214.5	17.9869
3215	17.5278
3215.5	16.5308
3216	15.3865
3216.5	14.5393
3217	14.236
3217.5	14.4711
3218	15.1882
3218.5	16.3739
3219	17.8086
3219.5	18.9011
3220	19.1133
3220.5	18.5901
3221	18.0656
3221.5	17.9892
3222	18.0116
3222.5	17.605
3223	16.9799
3223.5	16.9358
3224	17.7744
3224.5	18.811
3225	19.2251
3225.5	19.0597
3226	18.9468
3226.5	19.0007
3227	18.5825
3227.5	17.3794
3228	16.2267
3228.5	16.2864
3229	17.4943
3229.5	18.4062
3230	17.8617
3230.5	16.431
3231	15.7519
3231.5	16.5539
3232	17.8387
3232.5	18.1481
3233	17.1946
3233.5	15.8969
3234	15.1278
3234.5	14.9734
3235	15.1779
3235.5	15.7133
3236	16.6124
3236.5	17.6278
3237	18.4697
3237.5	19.1957
3238	19.9571
3238.5	20.4566
3239	20.1363
3239.5	19.0339
3240	18.0632
3240.5	18.1455
3241	19.2057
3241.5	20.2482
3242	20.3604
3242.5	19.5167
3243	18.5134
3243.5	18.2748
3244	19.1142
3244.5	20.4509
3245	21.2569
3245.5	20.9522
3246	19.8876
3246.5	18.8613
3247	18.2443
3247.5	17.7761
3248	17.1757
3248.5	16.6358
3249	16.5339
3249.5	16.8358
3250	17.0466
3250.5	16.7786
3251	16.2498
3251.5	16.1699
3252	17.1251
3252.5	18.9729
3253	20.7573
3253.5	21.3375
3254	20.3538
3254.5	18.6729
3255	17.7348
3255.5	18.2737
3256	19.7142
3256.5	20.8259
3257	20.8743
3257.5	20.0645
3258	19.0256
3258.5	18.2342
3259	17.9741
3259.5	18.4536
3260	19.6084
3260.5	20.9259
3261	21.8322
3261.5	22.2904
3262	22.759
3262.5	23.527
3263	24.3611
3263.5	24.8814
3264	24.9827
3264.5	24.7394
3265	24.2181
3265.5	23.6654
3266	23.6155
3266.5	24.3847
3267	25.5127
3267.5	26.0707
3268	25.6001
3268.5	24.5386
3269	23.7306
3269.5	23.7216
3270	24.445
3270.5	25.2615
3271	25.3143
3271.5	24.2678
3272	22.8528
3272.5	22.3181
3273	23.0813
3273.5	24.1762
3274	24.3025
3274.5	23.2225
3275	21.8435
3275.5	21.1001
3276	21.1124
3276.5	21.3939
3277	21.5277
3277.5	21.5063
3278	21.5721
3278.5	21.8456
3279	22.123
3279.5	22.1033
3280	21.8469
3280.5	21.8396
3281	22.4604
3281.5	23.5286
3282	24.5526
3282.5	25.2756
3283	25.7435
3283.5	25.9807
3284	25.9203
3284.5	25.6313
3285	25.3127
3285.5	25.0714
3286	24.9269
3286.5	24.9485
3287	25.1077
3287.5	25.0936
3288	24.6562
3288.5	24.1125
3289	24.0951
3289.5	24.7329
3290	25.4886
3290.5	25.9203
3291	26.1604
3291.5	26.4283
3292	26.519
3292.5	26.1584
3293	25.5342
3293.5	25.0769
3294	24.9264
3294.5	24.9713
3295	25.2352
3295.5	25.8341
3296	26.6463
3296.5	27.3698
3297	27.842
3297.5	27.9993
3298	27.6476
3298.5	26.6921
3299	25.5745
3299.5	25.0326
3300	25.3067
3300.5	25.9215
3301	26.3434
3301.5	26.4901
3302	26.4269
3302.5	26.0374
3303	25.3001
3303.5	24.5589
3304	24.1562
3304.5	24.0035
3305	23.8865
3305.5	24.0384
3306	24.9384
3306.5	26.4857
3307	27.7723
3307.5	27.9075
3308	26.881
3308.5	25.4614
3309	24.4185
3309.5	24.0247
3310	24.1505
3310.5	24.549
3311	25.031
3311.5	25.5917
3312	26.4425
3312.5	27.7183
3313	29.0143
3313.5	29.4064
3314	28.2526
3314.5	26.0336
3315	24.1312
3315.5	23.542
3316	24.0232
3316.5	24.5702
3317	24.6157
3317.5	24.5279
3318	24.9291
3318.5	25.7621
3319	26.2198
3319.5	25.5808
3320	24.0308
3320.5	22.6014
3321	22.2276
3321.5	22.8279
3322	23.4322
3322.5	23.3752
3323	23.2308
3323.5	24.1825
3324	26.3602
3324.5	28.2439
3325	28.1987
3325.5	26.4642
3326	25.0739
3326.5	25.4985
3327	27.0048
3327.5	27.6684
3328	26.6412
3328.5	24.9428
3329	24.0524
3329.5	24.2872
3330	24.8625
3330.5	25.153
3331	25.394
3331.5	26.1102
3332	27.2363
3332.5	28.0762
3333	28.0701
3333.5	27.4407
3334	27.0254
3334.5	27.444
3335	28.3873
3335.5	28.8157
3336	28.0828
3336.5	26.8764
3337	26.5403
3337.5	27.449
3338	28.4281
3338.5	28.1822
3339	26.9898
3339.5	26.3706
3340	27.1455
3340.5	28.557
3341	29.5517
3341.5	30.2016
3342	31.2353
3342.5	32.6341
3343	33.5624
3343.5	33.647
3344	33.5071
3344.5	33.7384
3345	34.0285
3345.5	33.8227
3346	33.4332
3346.5	33.769
3347	35.1213
3347.5	36.746
3348	37.7819
3348.5	38.2514
3349	38.9417
3349.5	40.468
3350	42.6896
3350.5	45.0143
3351	47.0453
3351.5	48.8092
3352	50.5097
3352.5	52.3076
3353	54.3443
3353.5	56.7073
3354	59.2083
3354.5	61.4543
3355	63.3088
3355.5	65.0924
3356	67.1581
3356.5	69.5724
3357	72.5658
3357.5	76.9271
3358	83.1861
3358.5	90.4214
3359	96.8173
3359.5	101.894
3360	107.421
3360.5	115.261
3361	124.787
3361.5	133.566
3362	140.738
3362.5	148.073
3363	157.316
3363.5	167.891
3364	178.235
3364.5	188.454
3365	199.953
3365.5	212.532
3366	223.852
3366.5	232.735
3367	241.443
3367.5	252.985
3368	266.767
3368.5	278.818
3369	286.469
3369.5	290.895
3370	293.752
3370.5	294.213
3371	290.977
3371.5	285.781
3372	282.193
3372.5	280.772
3373	277.855
3373.5	270.254
3374	259.471
3374.5	249.602
3375	242.129
3375.5	234.803
3376	225.555
3376.5	215.498
3377	206.969
3377.5	200.534
3378	194.909
3378.5	188.843
3379	181.932
3379.5	174.057
3380	165.334
3380.5	156.783
3381	150.06
3381.5	145.933
3382	143.451
3382.5	141.017
3383	137.979
3383.5	134.637
3384	131.131
3384.5	127.083
3385	122.314
3385.5	117.351
3386	113.012
3386.5	109.699
3387	107.193
3387.5	104.906
3388	102.197
3388.5	98.7096
3389	94.6317
3389.5	90.4922
3390	86.6149
3390.5	83.1137
3391	80.3912
3391.5	79.1229
3392	79.3472
3392.5	79.9285
3393	79.5138
3393.5	77.9638
3394	76.3373
3394.5	75.4659
3395	75.0578
3395.5	74.3236
3396	72.9429
3396.5	71.008
3397	68.5601
3397.5	65.5357
3398	61.9711
3398.5	58.083
3399	54.3352
3399.5	51.4403
3400	49.8765
3400.5	49.2396
3401	48.4972
3401.5	47.209
3402	45.8873
3402.5	44.9358
3403	43.8924
3403.5	42.1001
3404	39.584
3404.5	36.843
3405	34.3326
3405.5	32.7098
3406	32.9358
3406.5	35.1249
3407	37.4326
3407.5	37.5728
3408	35.2264
3408.5	32.2375
3409	30.3882
3409.5	29.746
3410	29.4088
3410.5	29.0524
3411	29.1255
3411.5	29.882
3412	30.7872
3412.5	30.9138
3413	29.7482
3413.5	27.6042
3414	25.448
3414.5	24.2133
3415	24.2005
3415.5	25.1152
3416	26.4727
3416.5	27.7468
3417	28.3695
3417.5	28.0888
3418	27.3875
3418.5	27.0395
3419	27.3478
3419.5	27.9909
3420	28.4753
3420.5	28.4236
3421	27.6195
3421.5	26.2737
3422	25.1871
3422.5	25.1288
3423	25.9073
3423.5	26.6815
3424	26.9855
3424.5	26.9449
3425	26.6957
3425.5	26.3102
3426	26.2828
3426.5	27.201
3427	28.6181
3427.5	29.0624
3428	27.9338
3428.5	26.5231
3429	26.4169
3429.5	27.5335
3430	28.4081
3430.5	28.1
3431	27.0054
3431.5	25.8746
3432	24.9355
3432.5	24.3446
3433	24.7027
3433.5	26.3469
3434	28.4895
3434.5	29.8022
3435	29.9242
3435.5	29.8132
3436	30.2857
3436.5	30.7081
3437	29.8079
3437.5	27.7616
3438	26.3538
3438.5	26.6769
3439	27.6935
3439.5	27.6582
3440	26.4578
3440.5	25.5603
3441	25.8357
3441.5	26.479
3442	26.4333
3442.5	25.9984
3443	26.042
3443.5	26.5846
3444	26.9659
3444.5	26.9829
3445	26.9795
3445.5	26.9521
3446	26.4725
3446.5	25.6624
3447	25.3573
3447.5	25.9151
3448	26.7409
3448.5	27.2183
3449	27.4407
3449.5	27.6393
3450	27.5572
3450.5	26.9439
3451	26.0824
3451.5	25.0927
3452	23.4492
3452.5	21.1316
3453	19.5758
3453.5	20.2454
3454	22.3938
3454.5	23.5338
3455	22.4679
3455.5	20.8659
3456	20.859
3456.5	22.4811
3457	24.2507
3457.5	25.2552
3458	25.7143
3458.5	25.9601
3459	25.9265
3459.5	25.59
3460	24.9796
3460.5	23.6487
3461	21.1319
3461.5	18.1139
3462	16.3124
3462.5	16.6672
3463	18.1645
3463.5	19.0201
3464	18.8017
3464.5	18.5133
3465	18.9508
3465.5	19.8938
3466	20.723
3466.5	21.087
3467	20.8073
3467.5	19.7748
3468	18.383
3468.5	17.5408
3469	17.8535
3469.5	19.0553
3470	20.3826
3470.5	21.2648
3471	21.4815
3471.5	20.9598
3472	19.8347
3472.5	18.6114
3473	17.9684
3473.5	18.3228
3474	19.4011
3474.5	20.1547
3475	19.4158
3475.5	17.128
3476	14.9515
3476.5	14.6609
3477	16.2551
3477.5	18.1461
3478	19.1311
3478.5	19.469
3479	19.7346
3479.5	19.4769
3480	18.0889
3480.5	16.4225
3481	16.1137
3481.5	17.331
3482	18.2754
3482.5	17.514
3483	15.9716
3483.5	15.5873
3484	16.2681
3484.5	16.1715
3485	14.6363
3485.5	13.3005
3486	13.729
3486.5	15.1319
3487	15.5075
3487.5	14.5069
3488	13.5674
3488.5	13.7034
3489	14.6379
3489.5	15.7423
3490	16.6548
3490.5	16.901
3491	16.045
3491.5	14.6308
3492	13.8463
3492.5	14.1711
3493	14.9989
3493.5	15.7705
3494	16.6718
3494.5	17.7858
3495	18.321
3495.5	17.5452
3496	15.8862
3496.5	14.5071
3497	14.0007
3497.5	14.0119
3498	14.0335
3498.5	13.9725
3499	13.766
3499.5	13.202
3500	12.5858
3500.5	13.0009
3501	15.0553
3501.5	17.419
3502	17.7216
3502.5	15.4752
3503	12.8224
3503.5	12.1495
3504	13.5295
3504.5	15.1003
3505	15.4451
3505.5	14.9026
3506	14.4473
3506.5	14.4229
3507	14.501
3507.5	14.2623
3508	13.6617
3508.5	13.1074
3509	13.0361
3509.5	13.391
3510	13.7737
3510.5	13.9818
3511	14.076
3511.5	13.9975
3512	13.6693
3512.5	13.5378
3513	14.158
3513.5	15.2997
3514	16.1836
3514.5	16.6828
3515	17.4571
3515.5	18.534
3516	18.7548
3516.5	17.3421
3517	15.03
3517.5	13.1337
3518	12.0804
3518.5	11.545
3519	11.5492
3519.5	12.3974
3520	13.6641
3520.5	14.2595
3521	13.7172
3521.5	12.8055
3522	12.474
3522.5	12.5349
3523	12.1732
3523.5	11.2878
3524	10.8224
3524.5	11.7204
3525	13.8204
3525.5	15.8582
3526	16.7336
3526.5	16.4216
3527	15.7788
3527.5	15.4822
3528	15.3059
3528.5	14.7341
3529	14.112
3529.5	14.2703
3530	15.1544
3530.5	15.6656
3531	15.197
3531.5	14.5336
3532	14.4804
3532.5	14.5381
3533	13.953
3533.5	13.1506
3534	13.0844
3534.5	13.5219
3535	13.2057
3535.5	11.856
3536	10.5818
3536.5	10.3427
3537	10.8631
3537.5	11.3853
3538	11.8866
3538.5	12.8421
3539	14.1386
3539.5	14.9474
3540	14.7191
3540.5	13.8888
3541	13.2539
3541.5	12.9138
3542	12.6065
3542.5	12.6206
3543	13.4558
3543.5	14.5847
3544	14.6932
3544.5	13.7229
3545	13.0495
3545.5	13.3506
3546	13.4734
3546.5	12.2046
3547	10.2953
3547.5	9.35104
3548	9.72059
3548.5	10.5863
3549	11.189
3549.5	11.1933
3550	10.6073
3550.5	10.0542
3551	10.4199
3551.5	11.7795
3552	13.3047
3552.5	14.5087
3553	15.6618
3553.5	16.5334
3554	16.1601
3554.5	14.2868
3555	11.9971
3555.5	10.4424
3556	9.67704
3556.5	9.45523
3557	9.8345
3557.5	10.586
3558	10.9807
3558.5	10.745
3559	10.5292
3559.5	10.7612
3560	10.9713
3560.5	10.5516
3561	9.7238
3561.5	9.36619
3562	9.95997
3562.5	11.1033
3563	11.8581
3563.5	11.6299
3564	10.8497
3564.5	10.5412
3565	10.9887
3565.5	11.4914
3566	11.3878
3566.5	10.8631
3567	10.5255
3567.5	10.5793
3568	10.8571
3568.5	11.1798
3569	11.4406
3569.5	11.6519
3570	11.9547
3570.5	12.2248
3571	11.9271
3571.5	10.8778
3572	9.93477
3572.5	10.2092
3573	11.5267
3573.5	12.9201
3574	14.0292
3574.5	15.1319
3575	15.8661
3575.5	15.2282
3576	13.2008
3576.5	11.1002
3577	10.0763
3577.5	10.0317
3578	10.296
3578.5	10.5712
3579	10.6516
3579.5	10.1768
3580	9.28889
3580.5	8.87248
3581	9.33003
3581.5	9.94545
3582	10.0078
3582.5	9.92959
3583	10.6242
3583.5	12.0159
3584	13.2399
3584.5	13.8604
3585	13.9905
3585.5	13.4834
3586	12.0383
3586.5	10.3375
3587	9.87379
3587.5	11.3221
3588	13.512
3588.5	14.4442
3589	13.4634
3589.5	11.5341
3590	10.0011
3590.5	9.31773
3591	8.83572
3591.5	7.78629
3592	6.35352
3592.5	5.5919
3593	6.37155
3593.5	8.45326
3594	10.5771
3594.5	11.6367
3595	11.2012
3595.5	9.60165
3596	7.94097
3596.5	7.63175
3597	9.24107
3597.5	11.8404
3598	13.6614
3598.5	13.5328
3599	11.8842
3599.5	9.86947
3600	8.29929
3600.5	7.31256
3601	6.72122
3601.5	6.45842
3602	6.72909
3602.5	7.71222
3603	9.15629
3603.5	10.2919
3604	10.4756
3604.5	9.92059
3605	9.54071
3605.5	9.9432
3606	10.6442
3606.5	10.7312
3607	10.2788
3607.5	10.2831
3608	11.2386
3608.5	12.3232
3609	12.5385
3609.5	12.0153
3610	11.4329
3610.5	10.8912
3611	10.0845
3611.5	9.33966
3612	9.29316
3612.5	9.68813
3613	9.35607
3613.5	7.78449
3614	6.21364
3614.5	6.24338
3615	8.11234
3615.5	10.4165
3616	11.5573
3616.5	11.374
3617	10.8062
3617.5	10.5544
3618	10.281
3618.5	9.32484
3619	7.99879
3619.5	7.52524
3620	8.69576
3620.5	10.6786
3621	11.5501
3621.5	10.4533
3622	8.39066
3622.5	7.01611
3623	6.88206
3623.5	7.3861
3624	8.31506
3624.5	9.77361
3625	10.985
3625.5	10.667
3626	9.20909
3626.5	8.55544
3627	9.55479
3627.5	10.5208
3628	9.86243
3628.5	8.68492
3629	8.97658
3629.5	10.3953
3630	10.3944
3630.5	8.09069
3631	5.57886
3631.5	5.33161
3632	7.33037
3632.5	9.25091
3633	9.61687
3633.5	9.06852
3634	8.97385
3634.5	9.46025
3635	9.3907
3635.5	8.20359
3636	6.68665
3636.5	5.98099
3637	6.20089
3637.5	6.76553
3638	7.5308
3638.5	8.74003
3639	10.0322
3639.5	10.4222
3640	9.69412
3640.5	8.99313
3641	9.59294
3641.5	11.0475
3642	11.6682
3642.5	10.6084
3643	8.86131
3643.5	8.17893
3644	8.96424
3644.5	9.99549
3645	9.79285
3645.5	8.18663
3646	6.65838
3646.5	6.57762
3647	7.75836
3647.5	8.83416
3648	9.03735
3648.5	9.01924
3649	9.46477
3649.5	10.0219
3650	9.91844
3650.5	9.29885
3651	8.9513
3651.5	9.24264
3652	9.83477
3652.5	10.2886
3653	10.4831
3653.5	10.3756
3654	9.94545
3654.5	9.52019
3655	9.63783
3655.5	10.2544
3656	10.4531
3656.5	9.4519
3657	8.11508
3657.5	7.96027
3658	9.14106
3658.5	9.98307
3659	9.2103
3659.5	7.46639
3660	5.98295
3660.5	5.2208
3661	5.29643
3661.5	6.49347
3662	8.31714
3662.5	9.20076
3663	8.33937
3663.5	6.97578
3664	6.5433
3664.5	7.09576
3665	7.91233
3665.5	8.74862
3666	9.48794
3666.5	9.5275
3667	8.42394
3667.5	6.8622
3668	5.94586
3668.5	6.30011
3669	7.71628
3669.5	9.1423
3670	9.55258
3670.5	8.96643
3671	8.53979
3671.5	8.9704
3672	9.48197
3672.5	9.12699
3673	8.17256
3673.5	7.57967
3674	7.6009
3674.5	7.91362
3675	8.19831
3675.5	7.9636
3676	6.79166
3676.5	5.34586
3677	5.20749
3677.5	6.73503
3678	8.21086
3678.5	8.21138
3679	7.2178
3679.5	6.52566
3680	6.54244
3680.5	7.30087
3681	8.94052
3681.5	10.5968
3682	10.6196
3682.5	9.07561
3683	8.30494
3683.5	9.69405
3684	11.2684
3684.5	10.8246
3685	8.97411
3685.5	7.93949
3686	8.19398
3686.5	8.72819
3687	8.97203
3687.5	8.85457
3688	8.06959
3688.5	6.87897
3689	6.60843
3689.5	7.72884
3690	8.52212
3690.5	7.43023
3691	5.33453
3691.5	4.488
3692	5.35357
3692.5	6.4719
3693	6.5229
3693.5	5.89062
3694	5.90675
3694.5	7.27926
3695	9.35724
3695.5	10.6837
3696	10.5839
3696.5	9.55384
3697	8.4122
3697.5	7.4775
3698	6.89821
3698.5	7.07448
3699	8.16087
3699.5	9.30067
3700	9.36127
