#Imported=	16.12.2021 13:56:07
50	22.7457
50.5	22.4165
51	22.1627
51.5	22.0431
52	22.0896
52.5	22.3181
53	22.7495
53.5	23.3182
54	23.8862
54.5	24.2501
55	24.2657
55.5	23.904
56	23.1932
56.5	22.3469
57	21.6814
57.5	21.5369
58	22.0519
58.5	23.1385
59	24.6236
59.5	26.1229
60	27.204
60.5	27.475
61	26.9213
61.5	25.8381
62	24.6095
62.5	23.7526
63	23.6216
63.5	24.4052
64	25.7297
64.5	27.0414
65	27.8207
65.5	27.6706
66	26.6362
66.5	24.9269
67	23.168
67.5	21.8208
68	21.1667
68.5	21.2909
69	21.9659
69.5	23.0063
70	24.1958
70.5	25.4092
71	26.6125
71.5	27.7588
72	28.7843
72.5	29.5837
73	30.0058
73.5	30.1432
74	30.0933
74.5	30.0162
75	30.0539
75.5	30.2731
76	30.658
76.5	31.0553
77	31.3623
77.5	31.5239
78	31.6001
78.5	31.6763
79	31.8792
79.5	32.2512
80	32.7357
80.5	33.2055
81	33.5134
81.5	33.5387
82	33.1393
82.5	32.384
83	31.4024
83.5	30.3909
84	29.5465
84.5	29.0046
85	28.9307
85.5	29.262
86	29.9218
86.5	30.7876
87	31.7015
87.5	32.5807
88	33.3492
88.5	34.0013
89	34.5506
89.5	35.0772
90	35.7134
90.5	36.5994
91	37.9737
91.5	39.9036
92	42.4269
92.5	45.5127
93	48.7953
93.5	52.0059
94	54.8346
94.5	57.1414
95	58.8777
95.5	59.9257
96	60.4226
96.5	60.4192
97	59.8165
97.5	58.6459
98	56.9512
98.5	54.764
99	52.3254
99.5	49.9033
100	47.7214
100.5	45.8918
101	44.4271
101.5	43.3275
102	42.4822
102.5	41.7761
103	41.1458
103.5	40.5684
104	40.0603
104.5	39.6912
105	39.5454
105.5	39.7108
106	40.2669
106.5	41.1749
107	42.3202
107.5	43.5642
108	44.709
108.5	45.5909
109	46.057
109.5	46.1357
110	45.9437
110.5	45.594
111	45.2545
111.5	45.076
112	45.2482
112.5	45.8952
113	46.9524
113.5	48.3251
114	49.7575
114.5	50.9417
115	51.5501
115.5	51.3262
116	50.4903
116.5	49.364
117	48.3982
117.5	47.9184
118	48.1128
118.5	48.9291
119	49.9818
119.5	50.9101
120	51.4902
120.5	51.7671
121	51.8673
121.5	51.9854
122	52.2379
122.5	52.5936
123	52.8949
123.5	53.0334
124	52.9778
124.5	52.7839
125	52.5864
125.5	52.4801
126	52.4864
126.5	52.5284
127	52.571
127.5	52.6372
128	52.7906
128.5	53.0867
129	53.4931
129.5	53.7658
130	53.6453
130.5	52.8426
131	51.4701
131.5	49.7412
132	48.1091
132.5	47.076
133	46.8815
133.5	47.5804
134	48.7389
134.5	50.0363
135	51.1398
135.5	51.9507
136	52.528
136.5	53.0699
137	53.7159
137.5	54.4763
138	55.2635
138.5	55.9316
139	56.3809
139.5	56.5328
140	56.5557
140.5	56.5868
141	56.7672
141.5	57.1207
142	57.5927
142.5	58.0342
143	58.2441
143.5	58.1257
144	57.6531
144.5	57.006
145	56.3771
145.5	55.9846
146	55.8931
146.5	55.9985
147	56.0102
147.5	55.6651
148	54.861
148.5	53.6088
149	52.1989
149.5	50.9491
150	50.2578
150.5	50.1456
151	50.4821
151.5	51.14
152	51.9565
152.5	52.8679
153	53.893
153.5	55.0041
154	56.0442
154.5	56.7337
155	56.8541
155.5	56.3907
156	55.4743
156.5	54.5429
157	54.1037
157.5	54.515
158	55.6696
158.5	57.1615
159	58.5073
159.5	59.2476
160	59.2372
160.5	58.4704
161	57.3315
161.5	56.1982
162	55.304
162.5	54.7695
163	54.5792
163.5	54.7523
164	55.3096
164.5	56.1956
165	57.3201
165.5	58.5028
166	59.5355
166.5	60.2365
167	60.5131
167.5	60.4737
168	60.2836
168.5	60.1263
169	60.0521
169.5	60.0126
170	59.8837
170.5	59.5721
171	59.028
171.5	58.2705
172	57.4349
172.5	56.5883
173	55.7833
173.5	55.0561
174	54.476
174.5	54.1947
175	54.3308
175.5	54.9495
176	55.9871
176.5	57.1502
177	58.1567
177.5	58.6706
178	58.6415
178.5	58.1383
179	57.4944
179.5	57.1124
180	57.2107
180.5	57.9029
181	58.9067
181.5	59.9162
182	60.4668
182.5	60.3388
183	59.5966
183.5	58.5027
184	57.5845
184.5	57.2659
185	58.0896
185.5	59.9716
186	62.7647
186.5	66.0201
187	69.2117
187.5	72.1581
188	74.9489
188.5	78.0168
189	81.8436
189.5	87.1321
190	93.8031
190.5	101.292
191	108.739
191.5	115.146
192	119.767
192.5	121.659
193	120.933
193.5	117.709
194	112.254
194.5	105.426
195	97.8266
195.5	90.0808
196	82.8837
196.5	76.7393
197	72.2632
197.5	69.3678
198	67.5232
198.5	66.2581
199	65.0147
199.5	63.5573
200	61.9343
200.5	60.489
201	59.5982
201.5	59.4543
202	59.7639
202.5	60.0962
203	59.9981
203.5	59.2747
204	58.0791
204.5	56.8061
205	56.0383
205.5	55.9682
206	56.546
206.5	57.3498
207	57.9259
207.5	57.9097
208	57.2695
208.5	56.3354
209	55.6295
209.5	55.5774
210	56.2393
210.5	57.5099
211	58.9994
211.5	60.2787
212	60.9789
212.5	60.8961
213	60.237
213.5	59.2157
214	58.1123
214.5	57.1491
215	56.4705
215.5	56.1305
216	56.0462
216.5	56.1028
217	56.1117
217.5	55.9307
218	55.4497
218.5	54.6258
219	53.5709
219.5	52.4261
220	51.4237
220.5	50.7424
221	50.4565
221.5	50.5477
222	50.8274
222.5	51.1214
223	51.2255
223.5	51.0489
224	50.5481
224.5	49.7974
225	48.9886
225.5	48.2726
226	47.8351
226.5	47.7501
227	48.0866
227.5	48.9151
228	50.1162
228.5	51.5603
229	53.0567
229.5	54.3996
230	55.4245
230.5	55.9273
231	55.9403
231.5	55.4961
232	54.6536
232.5	53.6874
233	52.7582
233.5	52.0404
234	51.5836
234.5	51.4112
235	51.5587
235.5	51.9301
236	52.4745
236.5	53.1113
237	53.7209
237.5	54.2038
238	54.4158
238.5	54.3404
239	54.0066
239.5	53.5207
240	53.1333
240.5	53.0452
241	53.4412
241.5	54.2523
242	55.365
242.5	56.6516
243	57.9747
243.5	59.3147
244	60.7834
244.5	62.4861
245	64.4513
245.5	66.6547
246	68.9513
246.5	71.2354
247	73.4637
247.5	75.6908
248	77.9874
248.5	80.2932
249	82.3241
249.5	83.7033
250	83.8627
250.5	82.6057
251	80.0605
251.5	76.5007
252	72.6725
252.5	69.2338
253	66.5938
253.5	64.6942
254	63.2245
254.5	61.8564
255	60.3324
255.5	58.6497
256	57.0325
256.5	55.8405
257	55.1977
257.5	55.0865
258	55.2116
258.5	55.2181
259	54.8064
259.5	53.895
260	52.6899
260.5	51.5683
261	50.9261
261.5	50.8709
262	51.3639
262.5	52.1186
263	52.7802
263.5	53.0751
264	52.9016
264.5	52.4305
265	51.9124
265.5	51.5572
266	51.3793
266.5	51.2797
267	51.0826
267.5	50.701
268	50.1712
268.5	49.7131
269	49.5764
269.5	49.8671
270	50.4897
270.5	51.1285
271	51.4782
271.5	51.2831
272	50.6268
272.5	49.718
273	48.9613
273.5	48.6122
274	48.7255
274.5	49.1892
275	49.7197
275.5	50.1233
276	50.2691
276.5	50.2189
277	50.0536
277.5	49.8386
278	49.5679
278.5	49.1864
279	48.6411
279.5	48.0014
280	47.3736
280.5	46.9311
281	46.7453
281.5	46.8264
282	47.0908
282.5	47.3997
283	47.7039
283.5	47.9975
284	48.2879
284.5	48.5394
285	48.5998
285.5	48.32
286	47.5992
286.5	46.4907
287	45.352
287.5	44.5221
288	44.4252
288.5	45.0572
289	46.2506
289.5	47.6445
290	48.7356
290.5	49.2682
291	49.1941
291.5	48.8323
292	48.4606
292.5	48.313
293	48.3894
293.5	48.5513
294	48.561
294.5	48.2632
295	47.7021
295.5	47.061
296	46.5968
296.5	46.476
297	46.8206
297.5	47.5138
298	48.3728
298.5	49.1782
299	49.7387
299.5	50.0187
300	50.0457
300.5	49.9645
301	49.9104
301.5	49.9959
302	50.2413
302.5	50.5842
303	50.9069
303.5	51.0562
304	50.9668
304.5	50.5955
305	49.9958
305.5	49.2592
306	48.4704
306.5	47.7294
307	47.1117
307.5	46.7053
308	46.5638
308.5	46.6406
309	46.8967
309.5	47.25
310	47.6331
310.5	48.0328
311	48.4808
311.5	49.0152
312	49.6521
312.5	50.3158
313	50.8765
313.5	51.2296
314	51.3761
314.5	51.4666
315	51.7141
315.5	52.3409
316	53.3653
316.5	54.6674
317	55.8649
317.5	56.5845
318	56.5691
318.5	55.7666
319	54.5049
319.5	53.1478
320	52.168
320.5	51.8299
321	52.2695
321.5	53.4255
322	54.8332
322.5	56.1282
323	56.9561
323.5	57.2572
324	57.0925
324.5	56.6907
325	56.3944
325.5	56.4498
326	57.0603
326.5	58.0872
327	59.3876
327.5	60.8312
328	62.2946
328.5	63.7111
329	64.9607
329.5	65.9251
330	66.4512
330.5	66.3435
331	65.7995
331.5	65.1581
332	64.9365
332.5	65.4182
333	66.6773
333.5	68.5769
334	70.5399
334.5	72.1418
335	72.9933
335.5	73.3137
336	73.5154
336.5	74.1354
337	75.3655
337.5	77.1486
338	79.224
338.5	81.1626
339	82.7279
339.5	83.8155
340	84.6754
340.5	85.5554
341	86.5923
341.5	87.6419
342	88.4321
342.5	88.5159
343	87.7119
343.5	86.0057
344	83.4692
344.5	80.5628
345	77.7269
345.5	75.4283
346	73.8502
346.5	73.001
347	72.8425
347.5	73.0523
348	73.3135
348.5	73.2842
349	72.7519
349.5	71.6758
350	70.1191
350.5	68.4395
351	66.9498
351.5	65.957
352	65.5567
352.5	65.6516
353	66.0617
353.5	66.4498
354	66.5337
354.5	66.0496
355	64.9707
355.5	63.5339
356	62.0321
356.5	60.8389
357	60.1871
357.5	60.2257
358	60.8033
358.5	61.5575
359	62.073
359.5	61.9797
360	61.262
360.5	60.1482
361	59.0586
361.5	58.3175
362	58.0704
362.5	58.1603
363	58.2269
363.5	57.9338
364	57.1265
364.5	56.0266
365	55.0456
365.5	54.613
366	54.8047
366.5	55.5211
367	56.452
367.5	57.2855
368	57.9012
368.5	58.3964
369	59.0146
369.5	59.9615
370	61.2502
370.5	62.5837
371	63.6395
371.5	64.0805
372	63.8826
372.5	63.0991
373	61.9173
373.5	60.6716
374	59.6326
374.5	59.1495
375	59.3823
375.5	60.3872
376	62.0863
376.5	63.9897
377	65.5945
377.5	66.2281
378	65.7263
378.5	64.1301
379	61.7824
379.5	59.4446
380	57.6584
380.5	56.7379
381	56.3401
381.5	56.1185
382	55.7133
382.5	55.0741
383	54.3721
383.5	53.9947
384	54.1409
384.5	54.8074
385	55.7325
385.5	56.4027
386	56.5426
386.5	56.0196
387	55.1645
387.5	54.287
388	53.6996
388.5	53.4304
389	53.3465
389.5	53.1944
390	52.7818
390.5	52.0832
391	51.2119
391.5	50.3373
392	49.4973
392.5	48.5922
393	47.474
393.5	46.0715
394	44.4433
394.5	42.8947
395	41.7503
395.5	41.3926
396	41.7659
396.5	42.5554
397	43.3756
397.5	43.8861
398	43.9882
398.5	43.7321
399	43.3596
399.5	43.0404
400	42.8149
400.5	42.5608
401	42.1266
401.5	41.4594
402	40.7356
402.5	40.2013
403	40.123
403.5	40.5689
404	41.4149
404.5	42.4948
405	43.6078
405.5	44.6755
406	45.7278
406.5	46.8321
407	47.9608
407.5	48.9598
408	49.6236
408.5	49.8612
409	49.6548
409.5	49.1743
410	48.6498
410.5	48.2277
411	47.9059
411.5	47.5268
412	46.8374
412.5	45.6701
413	44.1011
413.5	42.2968
414	40.5735
414.5	39.2202
415	38.4965
415.5	38.5528
416	39.2589
416.5	40.4759
417	41.9316
417.5	43.2978
418	44.3298
418.5	44.8753
419	44.9912
419.5	44.7254
420	44.1615
420.5	43.4459
421	42.6849
421.5	42.0301
422	41.6099
422.5	41.5354
423	41.8555
423.5	42.3787
424	42.8803
424.5	43.1365
425	43.128
425.5	42.94
426	42.7368
426.5	42.6124
427	42.5056
427.5	42.1889
428	41.5193
428.5	40.5186
429	39.5401
429.5	39.0863
430	39.4394
430.5	40.6173
431	41.9683
431.5	42.8759
432	42.6488
432.5	41.4374
433	39.6604
433.5	38.1083
434	37.3825
434.5	37.6686
435	38.7806
435.5	39.9939
436	40.9503
436.5	41.5109
437	41.918
437.5	42.3665
438	42.8953
438.5	43.2773
439	43.2387
439.5	42.5291
440	41.4126
440.5	40.342
441	39.9488
441.5	40.3566
442	41.3389
442.5	42.3914
443	42.9595
443.5	42.8013
444	41.8995
444.5	40.7002
445	39.6189
445.5	39.0291
446	38.9955
446.5	39.4418
447	40.2935
447.5	41.4168
448	42.7157
448.5	44.0251
449	45.0496
449.5	45.4997
450	45.043
450.5	43.7354
451	41.9118
451.5	40.0883
452	38.8589
452.5	38.5556
453	39.2863
453.5	40.6271
454	42.0772
454.5	43.2102
455	43.8308
455.5	44.0406
456	44.0595
456.5	44.1898
457	44.5852
457.5	45.248
458	45.968
458.5	46.4759
459	46.5093
459.5	46.0249
460	45.1922
460.5	44.2076
461	43.3028
461.5	42.6035
462	42.1692
462.5	41.9923
463	42.0285
463.5	42.3075
464	42.8743
464.5	43.7013
465	44.7368
465.5	45.8164
466	46.7773
466.5	47.526
467	48.0658
467.5	48.5134
468	48.9665
468.5	49.4833
469	50.0311
469.5	50.5403
470	50.9353
470.5	51.2158
471	51.4033
471.5	51.5147
472	51.5455
472.5	51.4566
473	51.2397
473.5	51.0039
474	50.903
474.5	51.1219
475	51.6292
475.5	52.2645
476	52.6631
476.5	52.5361
477	51.746
477.5	50.3799
478	48.9572
478.5	47.9185
479	47.618
479.5	47.8461
480	48.2629
480.5	48.3315
481	47.7663
481.5	46.5286
482	44.8176
482.5	43.1721
483	41.9784
483.5	41.6097
484	41.8779
484.5	42.5149
485	43.0912
485.5	43.3204
486	43.1374
486.5	42.6201
487	42.0625
487.5	41.662
488	41.5476
488.5	41.5952
489	41.6229
489.5	41.3974
490	40.8714
490.5	40.1404
491	39.4505
491.5	39.0746
492	39.1176
492.5	39.5887
493	40.2579
493.5	40.9302
494	41.4598
494.5	41.8476
495	42.1606
495.5	42.4492
496	42.678
496.5	42.7246
497	42.3809
497.5	41.609
498	40.5535
498.5	39.5665
499	39.0327
499.5	39.1115
500	39.7724
500.5	40.6037
501	41.1763
501.5	41.1467
502	40.5844
502.5	39.8677
503	39.5219
503.5	39.9161
504	41.0021
504.5	42.452
505	43.6555
505.5	44.2456
506	44.167
506.5	43.7839
507	43.5401
507.5	43.7466
508	44.4005
508.5	45.2333
509	45.9536
509.5	46.375
510	46.5444
510.5	46.5799
511	46.5905
511.5	46.5573
512	46.3475
512.5	45.8697
513	45.2465
513.5	44.7134
514	44.5516
514.5	44.8223
515	45.4345
515.5	46.091
516	46.4847
516.5	46.409
517	45.8148
517.5	44.9008
518	43.8712
518.5	42.9978
519	42.4947
519.5	42.5893
520	43.4117
520.5	44.7501
521	46.3034
521.5	47.5523
522	48.1124
522.5	47.7824
523	46.6368
523.5	45.2171
524	43.9965
524.5	43.4257
525	43.4957
525.5	44.0531
526	44.8128
526.5	45.4789
527	45.912
527.5	46.024
528	45.8417
528.5	45.3423
529	44.5108
529.5	43.5394
530	42.6472
530.5	42.1654
531	42.1794
531.5	42.639
532	43.3237
532.5	43.8652
533	44.0525
533.5	43.7693
534	43.2554
534.5	42.7535
535	42.5458
535.5	42.6906
536	43.1642
536.5	43.9026
537	44.7177
537.5	45.4595
538	45.9141
538.5	45.9751
539	45.5925
539.5	44.7514
540	43.6786
540.5	42.5868
541	41.7154
541.5	41.1678
542	40.9544
542.5	41.0717
543	41.3893
543.5	41.8146
544	42.2305
544.5	42.4853
545	42.452
545.5	42.0025
546	41.2277
546.5	40.3193
547	39.5504
547.5	39.1302
548	39.0974
548.5	39.3811
549	39.7493
549.5	40.0376
550	40.1904
550.5	40.3073
551	40.5068
551.5	40.8374
552	41.2081
552.5	41.4823
553	41.5382
553.5	41.3908
554	41.1646
554.5	41.0161
555	41.0605
555.5	41.306
556	41.7331
556.5	42.2933
557	42.9564
557.5	43.7084
558	44.4496
558.5	44.98
559	44.9948
559.5	44.2904
560	42.9606
560.5	41.2336
561	39.5546
561.5	38.2893
562	37.6691
562.5	37.6857
563	38.1031
563.5	38.7655
564	39.5747
564.5	40.4949
565	41.5025
565.5	42.4541
566	43.1279
566.5	43.2849
567	42.8237
567.5	42.0351
568	41.3236
568.5	41.1522
569	41.6454
569.5	42.7296
570	44.0729
570.5	45.2392
571	45.9361
571.5	46.0088
572	45.6559
572.5	45.1033
573	44.6724
573.5	44.604
574	45.051
574.5	46.0757
575	47.4147
575.5	48.7751
576	49.7225
576.5	50.0837
577	49.8464
577.5	49.1305
578	48.2347
578.5	47.2583
579	46.1178
579.5	44.6998
580	42.9681
580.5	41.1165
581	39.5936
581.5	38.7874
582	39.0516
582.5	39.974
583	41.0671
583.5	41.6755
584	41.6108
584.5	41.0473
585	40.5089
585.5	40.4738
586	41.011
586.5	41.8387
587	42.4016
587.5	42.3787
588	41.6614
588.5	40.6699
589	39.7984
589.5	39.3925
590	39.3991
590.5	39.6117
591	39.7667
591.5	39.7263
592	39.5177
592.5	39.2549
593	39.0756
593.5	39.0628
594	39.3533
594.5	40.076
595	41.3513
595.5	43.2899
596	45.6292
596.5	47.9511
597	49.6723
597.5	50.447
598	50.2901
598.5	49.4482
599	48.5428
599.5	48.0727
600	48.4114
600.5	49.4903
601	50.9955
601.5	52.5462
602	53.7593
602.5	54.443
603	54.4643
603.5	53.9203
604	53.0168
604.5	51.9489
605	50.915
605.5	49.9751
606	49.0657
606.5	48.0308
607	46.7698
607.5	45.2824
608	43.7665
608.5	42.4912
609	41.7257
609.5	41.5642
610	41.8395
610.5	42.3386
611	42.7971
611.5	43.0701
612	43.1057
612.5	42.9201
613	42.5561
613.5	41.998
614	41.259
614.5	40.4643
615	39.8217
615.5	39.5832
616	39.7994
616.5	40.3999
617	41.1264
617.5	41.6966
618	41.981
618.5	42.0631
619	42.2144
619.5	42.6612
620	43.4721
620.5	44.3825
621	45.0364
621.5	45.0488
622	44.4604
622.5	43.5247
623	42.7722
623.5	42.6236
624	43.2409
624.5	44.4568
625	45.6796
625.5	46.4188
626	46.3267
626.5	45.6697
627	44.8129
627.5	44.24
628	44.1479
628.5	44.5007
629	45.0914
629.5	45.6408
630	46.0799
630.5	46.5292
631	47.1809
631.5	48.1067
632	49.1641
632.5	49.9599
633	50.1575
633.5	49.4577
634	48.213
634.5	46.8706
635	46.0627
635.5	46.0137
636	46.6192
636.5	47.4626
637	47.9632
637.5	47.8713
638	47.1947
638.5	46.3876
639	45.813
639.5	45.7184
640	45.9129
640.5	46.0807
641	45.8473
641.5	45.1557
642	44.1951
642.5	43.3581
643	42.9989
643.5	43.2233
644	43.9256
644.5	44.6526
645	44.9995
645.5	44.5971
646	43.5006
646.5	41.9855
647	40.4433
647.5	39.2594
648	38.5935
648.5	38.4821
649	38.6967
649.5	39.0028
650	39.2554
650.5	39.4173
651	39.5275
651.5	39.6354
652	39.7772
652.5	39.9722
653	40.2635
653.5	40.6937
654	41.2613
654.5	41.896
655	42.4065
655.5	42.6002
656	42.3065
656.5	41.5745
657	40.652
657.5	39.8253
658	39.3147
658.5	39.1004
659	39.0283
659.5	38.8595
660	38.4901
660.5	37.9761
661	37.5374
661.5	37.3726
662	37.5916
662.5	38.1349
663	38.8234
663.5	39.5245
664	40.1409
664.5	40.6438
665	41.0047
665.5	41.1932
666	41.2207
666.5	41.0893
667	40.807
667.5	40.3849
668	39.7687
668.5	38.8824
669	37.7717
669.5	36.5491
670	35.447
670.5	34.6388
671	34.1807
671.5	33.9584
672	33.7203
672.5	33.3367
673	32.8841
673.5	32.6559
674	32.9584
674.5	34.0157
675	35.5368
675.5	37.1221
676	38.2072
676.5	38.5845
677	38.2529
677.5	37.3726
678	36.3282
678.5	35.3279
679	34.5283
679.5	33.9459
680	33.6053
680.5	33.5963
681	33.9018
681.5	34.5275
682	35.4756
682.5	36.5705
683	37.6426
683.5	38.3848
684	38.5903
684.5	38.1206
685	36.9076
685.5	35.3706
686	33.9482
686.5	33.2213
687	33.326
687.5	34.111
688	35.1369
688.5	35.8041
689	35.8036
689.5	35.0603
690	34.0398
690.5	33.1936
691	32.9548
691.5	33.2958
692	33.9841
692.5	34.6876
693	35.1218
693.5	35.1916
694	34.8935
694.5	34.4108
695	33.9206
695.5	33.6197
696	33.636
696.5	34.0122
697	34.7475
697.5	35.6483
698	36.4799
698.5	36.9663
699	36.9751
699.5	36.5517
700	35.8363
700.5	35.1136
701	34.5958
701.5	34.421
702	34.5496
702.5	34.8695
703	35.3302
703.5	35.9492
704	36.7919
704.5	37.9215
705	39.2054
705.5	40.3461
706	40.9369
706.5	40.7252
707	39.8495
707.5	38.6728
708	37.7893
708.5	37.5539
709	38.0062
709.5	38.7339
710	39.1965
710.5	39.0046
711	38.1435
711.5	37.0084
712	36.0423
712.5	35.6107
713	35.7223
713.5	36.2643
714	37.0197
714.5	37.8056
715	38.5419
715.5	39.1648
716	39.6289
716.5	39.8879
717	39.9884
717.5	40.1195
718	40.4915
718.5	41.2356
719	42.1647
719.5	42.9307
720	43.0477
720.5	42.3894
721	41.0553
721.5	39.4578
722	38.1171
722.5	37.3134
723	37.0747
723.5	37.0408
724	36.9246
724.5	36.5635
725	36.1214
725.5	35.8666
726	36.1309
726.5	36.8962
727	38.0028
727.5	39.1125
728	39.904
728.5	40.2251
729	40.0555
729.5	39.6776
730	39.299
730.5	39.099
731	39.0524
731.5	39.0556
732	38.9472
732.5	38.687
733	38.3525
733.5	38.178
734	38.3629
734.5	39.0038
735	40.1041
735.5	41.3764
736	42.5911
736.5	43.5381
737	44.2273
737.5	44.7364
738	45.1317
738.5	45.4253
739	45.5285
739.5	45.2637
740	44.6321
740.5	43.7477
741	42.8611
741.5	42.2658
742	42.1194
742.5	42.477
743	43.0746
743.5	43.6089
744	43.7274
744.5	43.2888
745	42.3366
745.5	41.0145
746	39.6452
746.5	38.48
747	37.7407
747.5	37.4629
748	37.6039
748.5	38.1871
749	39.189
749.5	40.5918
750	42.3737
750.5	44.2854
751	45.9599
751.5	46.8895
752	46.7669
752.5	45.6612
753	43.8545
753.5	42.0114
754	40.6996
754.5	40.2937
755	40.6804
755.5	41.4136
756	42.038
756.5	42.2504
757	42.1071
757.5	41.8456
758	41.7727
758.5	41.9739
759	42.3127
759.5	42.4587
760	42.1938
760.5	41.4966
761	40.6775
761.5	40.1612
762	40.263
762.5	40.9504
763	41.7598
763.5	42.13
764	41.5942
764.5	40.2692
765	38.5604
765.5	37.1786
766	36.5917
766.5	36.9501
767	37.9753
767.5	39.0614
768	39.7643
768.5	39.827
769	39.4072
769.5	38.688
770	37.8539
770.5	37.0254
771	36.2709
771.5	35.7286
772	35.5165
772.5	35.7329
773	36.3549
773.5	37.0947
774	37.6973
774.5	37.9706
775	38.0374
775.5	38.1119
776	38.4474
776.5	39.0367
777	39.7257
777.5	40.247
778	40.5006
778.5	40.5534
779	40.6079
779.5	40.8081
780	41.1043
780.5	41.2022
781	40.8155
781.5	39.7859
782	38.0847
782.5	36.1482
783	34.3626
783.5	33.2195
784	32.8275
784.5	33.1472
785	34.0011
785.5	34.9172
786	35.5607
786.5	35.6307
787	35.2198
787.5	34.5087
788	33.6672
788.5	32.7248
789	31.495
789.5	29.602
790	27.0309
790.5	24.0749
791	21.4352
791.5	19.8251
792	19.575
792.5	20.704
793	22.4151
793.5	23.9674
794	24.7646
794.5	24.841
795	24.5782
795.5	24.4688
796	24.7936
796.5	25.474
797	26.1772
797.5	26.4687
798	26.1226
798.5	25.0892
799	23.7654
799.5	22.694
800	22.5521
800.5	23.7123
801	26.0837
801.5	29.312
802	32.5641
802.5	35.1183
803	36.4122
803.5	36.471
804	35.75
804.5	34.7151
805	33.8037
805.5	33.1748
806	32.8564
806.5	32.8039
807	32.9857
807.5	33.4153
808	33.9835
808.5	34.45
809	34.5033
809.5	33.9397
810	32.8951
810.5	31.6856
811	30.8054
811.5	30.5467
812	30.9971
812.5	31.9008
813	32.7947
813.5	33.3008
814	33.2233
814.5	32.7498
815	32.1926
815.5	31.9819
816	32.3373
816.5	33.3117
817	34.7014
817.5	36.085
818	37.1017
818.5	37.4597
819	37.2286
819.5	36.5463
820	35.6605
820.5	34.8404
821	34.2455
821.5	33.9868
822	34.0027
822.5	34.2126
823	34.4577
823.5	34.5555
824	34.3855
824.5	33.9076
825	33.3066
825.5	32.7785
826	32.5277
826.5	32.5189
827	32.6082
827.5	32.5495
828	32.2393
828.5	31.7349
829	31.2686
829.5	31.0684
830	31.2078
830.5	31.5969
831	31.9389
831.5	32.0526
832	31.8766
832.5	31.6429
833	31.5713
833.5	31.8453
834	32.3197
834.5	32.7639
835	32.8886
835.5	32.6965
836	32.3805
836.5	32.3223
837	32.7432
837.5	33.6129
838	34.6366
838.5	35.345
839	35.4636
839.5	34.8888
840	33.9912
840.5	33.1404
841	32.6588
841.5	32.5415
842	32.6203
842.5	32.6829
843	32.6152
843.5	32.4463
844	32.2614
844.5	32.1136
845	31.9792
845.5	31.8114
846	31.63
846.5	31.524
847	31.6163
847.5	31.8969
848	32.2245
848.5	32.3713
849	32.2011
849.5	31.7763
850	31.3088
850.5	31.0794
851	31.2105
851.5	31.6869
852	32.2898
852.5	32.8047
853	33.0826
853.5	33.0977
854	32.8933
854.5	32.4691
855	31.8521
855.5	31.1298
856	30.4695
856.5	30.1155
857	30.2088
857.5	30.7961
858	31.6722
858.5	32.507
859	33.0156
859.5	33.0934
860	32.9179
860.5	32.7614
861	32.9153
861.5	33.4321
862	34.1851
862.5	34.8475
863	35.1413
863.5	34.9259
864	34.318
864.5	33.6706
865	33.3074
865.5	33.4357
866	33.9224
866.5	34.5301
867	34.9456
867.5	35.0302
868	34.772
868.5	34.2507
869	33.5864
869.5	32.7944
870	31.8683
870.5	30.9017
871	30.0699
871.5	29.6486
872	29.7067
872.5	30.1874
873	30.8465
873.5	31.35
874	31.4967
874.5	31.1669
875	30.4857
875.5	29.5275
876	28.3687
876.5	27.2077
877	26.3009
877.5	26.1021
878	26.719
878.5	28.0562
879	29.6516
879.5	30.7874
880	31.0374
880.5	30.2463
881	29.1202
881.5	28.3176
882	28.538
882.5	29.649
883	31.2613
883.5	32.7716
884	33.8032
884.5	34.3354
885	34.5309
885.5	34.6497
886	34.7144
886.5	34.5419
887	34.0135
887.5	33.1561
888	32.1671
888.5	31.3436
889	30.8182
889.5	30.5696
890	30.3639
890.5	30.043
891	29.5774
891.5	29.1411
892	28.9221
892.5	29.082
893	29.5319
893.5	30.0887
894	30.5301
894.5	30.7313
895	30.7063
895.5	30.5502
896	30.4272
896.5	30.429
897	30.5668
897.5	30.7181
898	30.7387
898.5	30.5067
899	30.0857
899.5	29.6814
900	29.5945
900.5	29.9975
901	30.7918
901.5	31.6501
902	32.0809
902.5	31.8141
903	30.8078
903.5	29.4933
904	28.4322
904.5	28.1191
905	28.654
905.5	29.6936
906	30.7589
906.5	31.3617
907	31.3642
907.5	30.8659
908	30.2654
908.5	29.9722
909	30.2917
909.5	31.2705
910	32.6217
910.5	33.9567
911	34.7851
911.5	34.8595
912	34.0902
912.5	32.7284
913	31.2934
913.5	30.2489
914	29.9262
914.5	30.2263
915	30.9321
915.5	31.7068
916	32.3147
916.5	32.6895
917	32.883
917.5	33.0058
918	33.0937
918.5	33.1289
919	33.0884
919.5	32.9492
920	32.6762
920.5	32.2474
921	31.6146
921.5	30.7664
922	29.8577
922.5	29.1026
923	28.7908
923.5	28.9513
924	29.4801
924.5	30.0945
925	30.4854
925.5	30.5104
926	30.1613
926.5	29.6641
927	29.1742
927.5	28.8106
928	28.5891
928.5	28.5285
929	28.6854
929.5	29.0131
930	29.4362
930.5	29.8053
931	30.0277
931.5	30.1269
932	30.2584
932.5	30.5657
933	31.0394
933.5	31.4433
934	31.4696
934.5	30.9671
935	30.0049
935.5	29.0613
936	28.5227
936.5	28.644
937	29.1003
937.5	29.4463
938	29.185
938.5	28.326
939	27.1922
939.5	26.3518
940	26.188
940.5	26.7304
941	27.7553
941.5	28.7619
942	29.436
942.5	29.6132
943	29.4642
943.5	29.2116
944	29.0633
944.5	29.1188
945	29.3732
945.5	29.7859
946	30.2465
946.5	30.6595
947	30.9466
947.5	31.116
948	31.2424
948.5	31.4339
949	31.7478
949.5	32.1342
950	32.4511
950.5	32.5521
951	32.4188
951.5	32.1569
952	31.9964
952.5	32.0834
953	32.4241
953.5	32.7946
954	32.9328
954.5	32.6468
955	32.0009
955.5	31.2531
956	30.6623
956.5	30.3506
957	30.2111
957.5	30.0633
958	29.7715
958.5	29.3889
959	29.087
959.5	29.0414
960	29.2386
960.5	29.5478
961	29.7825
961.5	29.9101
962	30.0831
962.5	30.5799
963	31.4967
963.5	32.7
964	33.7488
964.5	34.2237
965	33.8821
965.5	32.8555
966	31.7138
966.5	31.0139
967	31.2059
967.5	32.1479
968	33.4807
968.5	34.5958
969	35.0766
969.5	34.7839
970	33.9077
970.5	32.9852
971	32.4355
971.5	32.5583
972	33.168
972.5	33.9668
973	34.525
973.5	34.6186
974	34.2182
974.5	33.4837
975	32.7748
975.5	32.3477
976	32.4211
976.5	32.8869
977	33.5805
977.5	34.2113
978	34.5128
978.5	34.3425
979	33.6378
979.5	32.6969
980	31.8138
980.5	31.4046
981	31.589
981.5	32.3381
982	33.4553
982.5	34.5072
983	35.2032
983.5	35.3044
984	34.9899
984.5	34.5014
985	34.1559
985.5	34.1137
986	34.3582
986.5	34.7556
987	35.106
987.5	35.3363
988	35.4698
988.5	35.5958
989	35.7163
989.5	35.6858
990	35.339
990.5	34.6135
991	33.6083
991.5	32.6937
992	32.1879
992.5	32.3356
993	32.984
993.5	33.868
994	34.7365
994.5	35.4781
995	36.1437
995.5	36.8345
996	37.584
996.5	38.3229
997	38.9186
997.5	39.3003
998	39.4927
998.5	39.5451
999	39.5118
999.5	39.3787
1000	39.0579
1000.5	38.5075
1001	37.7884
1001.5	37.0621
1002	36.5895
1002.5	36.5698
1003	37.1668
1003.5	38.2787
1004	39.587
1004.5	40.6933
1005	41.2672
1005.5	41.2907
1006	40.9464
1006.5	40.6556
1007	40.7479
1007.5	41.3756
1008	42.3905
1008.5	43.4789
1009	44.3963
1009.5	45.0277
1010	45.4221
1010.5	45.5982
1011	45.5317
1011.5	45.2199
1012	44.6922
1012.5	44.1117
1013	43.6637
1013.5	43.4105
1014	43.1838
1014.5	42.6865
1015	41.686
1015.5	40.2205
1016	38.7467
1016.5	37.7791
1017	37.7647
1017.5	38.5663
1018	39.8386
1018.5	40.9618
1019	41.4481
1019.5	41.0568
1020	39.8423
1020.5	38.3437
1021	37.0675
1021.5	36.5376
1022	36.7577
1022.5	37.494
1023	38.2265
1023.5	38.5097
1024	38.2466
1024.5	37.7578
1025	37.6543
1025.5	38.3209
1026	39.7799
1026.5	41.2738
1027	42.0597
1027.5	41.4681
1028	39.9351
1028.5	38.1721
1029	37.267
1029.5	37.6271
1030	39.1248
1030.5	41.1329
1031	42.7392
1031.5	43.5437
1032	43.5593
1032.5	43.4948
1033	43.8968
1033.5	45.1364
1034	46.805
1034.5	48.3317
1035	48.9792
1035.5	48.6313
1036	47.5501
1036.5	46.3684
1037	45.8566
1037.5	46.4303
1038	48.3597
1038.5	51.1655
1039	54.2933
1039.5	57.0417
1040	58.9372
1040.5	59.8765
1041	60.0566
1041.5	60.221
1042	61.0411
1042.5	63.1679
1043	66.5469
1043.5	70.8084
1044	75.5431
1044.5	80.372
1045	85.2307
1045.5	90.215
1046	95.3011
1046.5	100.235
1047	104.508
1047.5	107.789
1048	110.066
1048.5	111.392
1049	111.992
1049.5	111.889
1050	110.705
1050.5	108.159
1051	104.3
1051.5	99.3458
1052	93.9627
1052.5	88.7324
1053	83.986
1053.5	79.7054
1054	75.7
1054.5	71.9097
1055	68.4225
1055.5	65.3631
1056	62.8365
1056.5	60.6826
1057	58.6244
1057.5	56.522
1058	54.4725
1058.5	52.7373
1059	51.6048
1059.5	51.1168
1060	50.9398
1060.5	50.6676
1061	49.965
1061.5	48.8977
1062	47.7763
1062.5	47.0586
1063	46.9105
1063.5	47.2294
1064	47.6025
1064.5	47.6261
1065	47.1075
1065.5	46.1567
1066	45.0889
1066.5	44.0583
1067	43.0361
1067.5	41.8918
1068	40.5916
1068.5	39.3735
1069	38.6569
1069.5	38.8746
1070	40.3269
1070.5	42.5981
1071	45.1361
1071.5	47.1032
1072	47.9862
1072.5	47.558
1073	45.9105
1073.5	43.8182
1074	41.956
1074.5	41.0189
1075	41.0294
1075.5	41.7502
1076	42.6312
1076.5	43.0773
1077	42.8181
1077.5	41.843
1078	40.6751
1078.5	39.7414
1079	39.4714
1079.5	39.7978
1080	40.5517
1080.5	41.4807
1081	42.3161
1081.5	42.9314
1082	43.1847
1082.5	43.0805
1083	42.6046
1083.5	41.7262
1084	40.6229
1084.5	39.4791
1085	38.5796
1085.5	38.1171
1086	38.1877
1086.5	38.8268
1087	39.7355
1087.5	40.5994
1088	41.0252
1088.5	40.8833
1089	40.2639
1089.5	39.4536
1090	38.8869
1090.5	38.8068
1091	39.2703
1091.5	39.9768
1092	40.6279
1092.5	40.9767
1093	41.0147
1093.5	40.8516
1094	40.5975
1094.5	40.3167
1095	39.9897
1095.5	39.5614
1096	39.0381
1096.5	38.4879
1097	38.0322
1097.5	37.7879
1098	37.8217
1098.5	38.1676
1099	38.7107
1099.5	39.2667
1100	39.607
1100.5	39.593
1101	39.2794
1101.5	38.8499
1102	38.5675
1102.5	38.5259
1103	38.619
1103.5	38.5602
1104	38.1771
1104.5	37.5092
1105	36.8793
1105.5	36.5789
1106	36.6481
1106.5	36.7413
1107	36.4906
1107.5	35.7812
1108	34.9828
1108.5	34.6567
1109	35.212
1109.5	36.5148
1110	37.907
1110.5	38.7491
1111	38.7541
1111.5	38.298
1112	37.8999
1112.5	37.9449
1113	38.2682
1113.5	38.4517
1114	38.1708
1114.5	37.6243
1115	37.2618
1115.5	37.5481
1116	38.3933
1116.5	39.3954
1117	39.9604
1117.5	39.9089
1118	39.4377
1118.5	39.0887
1119	39.2827
1119.5	40.1381
1120	41.4726
1120.5	42.8581
1121	44.0322
1121.5	44.7961
1122	45.1049
1122.5	44.8329
1123	43.7864
1123.5	42.1343
1124	40.1272
1124.5	38.2595
1125	36.9841
1125.5	36.5734
1126	37.1961
1126.5	38.4681
1127	40.0859
1127.5	41.7017
1128	43.0929
1128.5	44.2072
1129	45.0852
1129.5	45.932
1130	46.9022
1130.5	48.1592
1131	49.6731
1131.5	51.3666
1132	53.0693
1132.5	54.5451
1133	55.568
1133.5	55.7936
1134	55.2427
1134.5	54.0827
1135	52.7204
1135.5	51.7004
1136	51.34
1136.5	51.7812
1137	52.6057
1137.5	53.3773
1138	53.6584
1138.5	53.3886
1139	52.6959
1139.5	51.7261
1140	50.6036
1140.5	49.3123
1141	47.8058
1141.5	46.2542
1142	44.9315
1142.5	44.217
1143	44.194
1143.5	44.6975
1144	45.4148
1144.5	45.9599
1145	46.1681
1145.5	46.0443
1146	45.8057
1146.5	45.6238
1147	45.5418
1147.5	45.41
1148	45.0312
1148.5	44.2251
1149	43.0469
1149.5	41.7328
1150	40.6253
1150.5	40.0213
1151	39.972
1151.5	40.3621
1152	40.8223
1152.5	41.0345
1153	40.8435
1153.5	40.4159
1154	40.0853
1154.5	40.1012
1155	40.3703
1155.5	40.4653
1156	39.7561
1156.5	37.7228
1157	34.3956
1157.5	30.0541
1158	25.5053
1158.5	21.6718
1159	19.4761
1159.5	19.5607
1160	21.7481
1160.5	25.5678
1161	29.9472
1161.5	33.7882
1162	36.3406
1162.5	37.394
1163	37.5569
1163.5	37.4568
1164	37.63
1164.5	38.0866
1165	38.5012
1165.5	38.4313
1166	37.838
1166.5	36.9953
1167	36.3762
1167.5	36.1356
1168	36.0824
1168.5	35.7345
1169	34.8246
1169.5	33.4307
1170	32.068
1170.5	31.3267
1171	31.5382
1171.5	32.7021
1172	34.2326
1172.5	35.6632
1173	36.6545
1173.5	37.2679
1174	37.6089
1174.5	37.7326
1175	37.6649
1175.5	37.3717
1176	36.8563
1176.5	36.2766
1177	35.7569
1177.5	35.3858
1178	35.1081
1178.5	34.8681
1179	34.6719
1179.5	34.5708
1180	34.5873
1180.5	34.6225
1181	34.467
1181.5	33.978
1182	33.1584
1182.5	32.3688
1183	31.9617
1183.5	32.2413
1184	32.9073
1184.5	33.4518
1185	33.2284
1185.5	32.1824
1186	30.6453
1186.5	29.3261
1187	28.8579
1187.5	29.4735
1188	31.1272
1188.5	33.1643
1189	35.0259
1189.5	36.1554
1190	36.3791
1190.5	35.7816
1191	34.4634
1191.5	32.8158
1192	31.2023
1192.5	30.046
1193	29.5902
1193.5	29.8884
1194	30.9325
1194.5	32.3983
1195	33.9265
1195.5	35.0466
1196	35.4077
1196.5	34.8892
1197	33.5085
1197.5	31.7658
1198	30.2679
1198.5	29.6383
1199	30.0578
1199.5	31.2117
1200	32.5412
1200.5	33.3787
1201	33.4237
1201.5	32.7268
1202	31.7411
1202.5	30.9013
1203	30.5047
1203.5	30.6155
1204	31.112
1204.5	31.8762
1205	32.7076
1205.5	33.3828
1206	33.6438
1206.5	33.3305
1207	32.6176
1207.5	31.8417
1208	31.4541
1208.5	31.6432
1209	32.3528
1209.5	33.2103
1210	33.8302
1210.5	34.0331
1211	33.9134
1211.5	33.7158
1212	33.5095
1212.5	33.1118
1213	32.3137
1213.5	31.0477
1214	29.5912
1214.5	28.4435
1215	28.0126
1215.5	28.4318
1216	29.2906
1216.5	30.1437
1217	30.5658
1217.5	30.55
1218	30.2921
1218.5	30.0842
1219	30.1034
1219.5	30.377
1220	30.7863
1220.5	31.0876
1221	31.0522
1221.5	30.4739
1222	29.5193
1222.5	28.5368
1223	28.1274
1223.5	28.5238
1224	29.6229
1224.5	30.847
1225	31.4297
1225.5	30.9426
1226	29.3395
1226.5	27.4453
1227	25.971
1227.5	25.617
1228	26.1137
1228.5	27.0434
1229	27.9534
1229.5	28.6806
1230	29.3387
1230.5	30.1475
1231	31.0985
1231.5	31.9637
1232	32.2463
1232.5	31.7097
1233	30.3921
1233.5	28.6171
1234	26.9814
1234.5	25.8807
1235	25.6512
1235.5	26.1371
1236	27.1492
1236.5	28.5333
1237	30.0724
1237.5	31.6054
1238	32.8248
1238.5	33.4296
1239	33.2094
1239.5	32.0424
1240	30.3676
1240.5	28.6954
1241	27.5415
1241.5	26.9953
1242	26.8229
1242.5	26.6737
1243	26.387
1243.5	26.1639
1244	26.4391
1244.5	27.4093
1245	28.8873
1245.5	30.397
1246	31.4023
1246.5	31.7322
1247	31.4954
1247.5	31.0993
1248	30.762
1248.5	30.3786
1249	29.691
1249.5	28.6196
1250	27.3568
1250.5	26.3852
1251	26.0614
1251.5	26.5393
1252	27.5122
1252.5	28.5084
1253	29.1897
1253.5	29.4871
1254	29.5289
1254.5	29.4111
1255	29.2008
1255.5	28.9607
1256	28.8159
1256.5	28.9416
1257	29.3649
1257.5	29.8718
1258	29.9973
1258.5	29.4373
1259	28.1391
1259.5	26.5452
1260	25.332
1260.5	25.0662
1261	25.9389
1261.5	27.5102
1262	29.2327
1262.5	30.5324
1263	31.2005
1263.5	31.1584
1264	30.4318
1264.5	29.2272
1265	27.7098
1265.5	26.1902
1266	25.0305
1266.5	24.5765
1267	24.9639
1267.5	25.8552
1268	26.8462
1268.5	27.3995
1269	27.2759
1269.5	26.4699
1270	25.2795
1270.5	24.2507
1271	23.8128
1271.5	24.1958
1272	25.0658
1272.5	26.0657
1273	26.7646
1273.5	26.9913
1274	26.724
1274.5	26.0239
1275	25.1543
1275.5	24.362
1276	24.0867
1276.5	24.5572
1277	25.8595
1277.5	27.8116
1278	29.6939
1278.5	30.9173
1279	30.8954
1279.5	29.9393
1280	28.4925
1280.5	27.2174
1281	26.5425
1281.5	26.7018
1282	28.1172
1282.5	30.7875
1283	34.6457
1283.5	39.2215
1284	43.263
1284.5	45.4889
1285	44.5828
1285.5	41.1523
1286	36.2571
1286.5	31.4153
1287	27.8973
1287.5	26.1283
1288	26.0791
1288.5	26.7982
1289	27.4975
1289.5	27.5822
1290	27.0736
1290.5	26.3253
1291	25.924
1291.5	26.2802
1292	27.3813
1292.5	28.8042
1293	29.752
1293.5	29.7039
1294	28.6002
1294.5	27.1291
1295	25.977
1295.5	25.6121
1296	25.8692
1296.5	26.3043
1297	26.5493
1297.5	26.6032
1298	26.7622
1298.5	27.3078
1299	28.137
1299.5	28.8458
1300	28.8965
1300.5	28.0241
1301	26.4223
1301.5	24.5436
1302	23.1259
1302.5	22.6542
1303	23.3936
1303.5	25.0761
1304	27.0675
1304.5	28.6932
1305	29.4362
1305.5	29.3095
1306	28.5735
1306.5	27.7613
1307	27.2144
1307.5	27.014
1308	27.0706
1308.5	27.2816
1309	27.6579
1309.5	28.1792
1310	28.6597
1310.5	28.7383
1311	28.1141
1311.5	26.9178
1312	25.4861
1312.5	24.3279
1313	23.6878
1313.5	23.5648
1314	23.7708
1314.5	24.1327
1315	24.6996
1315.5	25.5557
1316	26.5295
1316.5	27.2707
1317	27.3445
1317.5	26.8002
1318	26.0023
1318.5	25.6409
1319	26.0423
1319.5	26.9843
1320	27.7916
1320.5	27.8842
1321	27.1096
1321.5	25.8101
1322	24.7226
1322.5	24.3209
1323	24.8068
1323.5	25.6612
1324	26.4931
1324.5	26.9811
1325	27.1529
1325.5	27.1263
1326	27.0469
1326.5	27.0102
1327	27.0269
1327.5	27.0704
1328	27.0971
1328.5	27.075
1329	26.9647
1329.5	26.7847
1330	26.574
1330.5	26.4216
1331	26.416
1331.5	26.6129
1332	27.0629
1332.5	27.6662
1333	28.2874
1333.5	28.6727
1334	28.6391
1334.5	28.1105
1335	27.1451
1335.5	26.1755
1336	25.5529
1336.5	25.6095
1337	26.2374
1337.5	27.18
1338	28.1022
1338.5	28.7738
1339	29.1883
1339.5	29.4682
1340	29.7394
1340.5	29.9813
1341	30.0203
1341.5	29.6964
1342	28.9543
1342.5	27.8099
1343	26.4877
1343.5	25.2042
1344	24.152
1344.5	23.4378
1345	23.1002
1345.5	23.181
1346	23.5553
1346.5	24.0294
1347	24.3858
1347.5	24.5321
1348	24.5622
1348.5	24.704
1349	25.1865
1349.5	26.0507
1350	27.1842
1350.5	28.2748
1351	29.081
1351.5	29.479
1352	29.5214
1352.5	29.327
1353	28.9373
1353.5	28.3771
1354	27.6845
1354.5	26.9191
1355	26.1879
1355.5	25.5672
1356	25.1402
1356.5	25.0174
1357	25.3001
1357.5	26.1379
1358	27.5131
1358.5	29.0726
1359	30.333
1359.5	30.8064
1360	30.4064
1360.5	29.2357
1361	27.6919
1361.5	26.2622
1362	25.3365
1362.5	25.1717
1363	25.7366
1363.5	26.972
1364	28.5712
1364.5	29.9758
1365	30.6132
1365.5	29.9582
1366	28.2751
1366.5	26.1131
1367	24.3
1367.5	23.3979
1368	23.6357
1368.5	24.8794
1369	26.484
1369.5	27.9404
1370	28.8456
1370.5	29.2134
1371	29.1246
1371.5	28.6681
1372	27.9715
1372.5	27.0474
1373	25.9199
1373.5	24.7891
1374	23.8547
1374.5	23.3187
1375	23.0959
1375.5	23.0606
1376	23.1504
1376.5	23.4903
1377	24.3386
1377.5	25.8885
1378	27.6791
1378.5	29.1038
1379	29.3595
1379.5	28.5762
1380	27.3164
1380.5	26.6638
1381	27.0445
1381.5	28.213
1382	29.3831
1382.5	29.8201
1383	29.3691
1383.5	28.3577
1384	27.5935
1384.5	27.622
1385	29.0635
1385.5	32.074
1386	36.7392
1386.5	42.8739
1387	49.0643
1387.5	53.506
1388	54.1228
1388.5	51.0455
1389	45.5075
1389.5	39.439
1390	34.6444
1390.5	31.5693
1391	29.8027
1391.5	28.2335
1392	26.5575
1392.5	25.1953
1393	24.6484
1393.5	24.8974
1394	25.4034
1394.5	25.4072
1395	24.8151
1395.5	24.2216
1396	24.4275
1396.5	25.662
1397	27.5405
1397.5	29.0637
1398	29.485
1398.5	28.6683
1399	27.3463
1399.5	26.3236
1400	26.1733
1400.5	26.8624
1401	27.9075
1401.5	28.7088
1402	28.8583
1402.5	28.4095
1403	27.6072
1403.5	26.8723
1404	26.48
1404.5	26.538
1405	26.9282
1405.5	27.4365
1406	27.9816
1406.5	28.5721
1407	29.2049
1407.5	29.7774
1408	30.0677
1408.5	29.9302
1409	29.3588
1409.5	28.5218
1410	27.6098
1410.5	26.6563
1411	25.5935
1411.5	24.4378
1412	23.4359
1412.5	23.0623
1413	23.5262
1413.5	24.7758
1414	26.291
1414.5	27.3631
1415	27.5008
1415.5	26.6612
1416	25.5171
1416.5	24.6295
1417	24.4248
1417.5	24.7738
1418	25.3904
1418.5	25.9056
1419	26.2178
1419.5	26.4967
1420	27.0677
1420.5	28.0352
1421	29.2455
1421.5	30.145
1422	30.1409
1422.5	28.9564
1423	26.7473
1423.5	24.4197
1424	22.7694
1424.5	22.5791
1425	23.5978
1425.5	25.2814
1426	26.8084
1426.5	27.7484
1427	28.0926
1427.5	28.0688
1428	28.0483
1428.5	28.1331
1429	28.186
1429.5	27.9913
1430	27.418
1430.5	26.3832
1431	25.0927
1431.5	23.7704
1432	22.831
1432.5	22.5128
1433	22.9151
1433.5	23.9945
1434	25.2566
1434.5	26.2517
1435	26.4987
1435.5	26.0851
1436	25.3758
1436.5	24.8728
1437	24.8961
1437.5	25.4451
1438	26.2611
1438.5	26.8614
1439	27.0044
1439.5	26.6857
1440	26.254
1440.5	26.0178
1441	26.1538
1441.5	26.4678
1442	26.643
1442.5	26.4499
1443	26.0317
1443.5	25.7094
1444	25.8071
1444.5	26.2515
1445	26.5975
1445.5	26.2493
1446	25.0944
1446.5	23.6
1447	22.6761
1447.5	23.1439
1448	25.1182
1448.5	27.8842
1449	30.0538
1449.5	30.6863
1450	29.351
1450.5	26.7855
1451	24.2591
1451.5	22.9592
1452	23.2096
1452.5	24.4762
1453	26.0391
1453.5	27.1868
1454	27.7114
1454.5	27.7182
1455	27.5852
1455.5	27.5632
1456	27.7563
1456.5	28.1478
1457	28.6197
1457.5	28.9698
1458	28.9178
1458.5	28.3476
1459	27.2805
1459.5	26.0311
1460	25.019
1460.5	24.5487
1461	24.6077
1461.5	24.8789
1462	25.2006
1462.5	25.6285
1463	26.3486
1463.5	27.4984
1464	28.8969
1464.5	30.0542
1465	30.5478
1465.5	30.1069
1466	28.9568
1466.5	27.3341
1467	25.5609
1467.5	23.9819
1468	22.8966
1468.5	22.6644
1469	23.2176
1469.5	24.3087
1470	25.3303
1470.5	25.7997
1471	25.6746
1471.5	25.3466
1472	25.3912
1472.5	26.063
1473	27.2009
1473.5	28.1541
1474	28.5537
1474.5	28.2881
1475	27.7553
1475.5	27.2377
1476	26.8764
1476.5	26.5593
1477	26.242
1477.5	26.06
1478	26.1573
1478.5	26.5411
1479	26.9358
1479.5	26.9463
1480	26.4492
1480.5	25.6186
1481	24.958
1481.5	24.7854
1482	25.2313
1482.5	25.8772
1483	26.4061
1483.5	26.6316
1484	26.6501
1484.5	26.5609
1485	26.3463
1485.5	25.9501
1486	25.3898
1486.5	24.8454
1487	24.5825
1487.5	24.7397
1488	25.3146
1488.5	25.984
1489	26.5301
1489.5	26.8686
1490	27.1182
1490.5	27.4135
1491	27.8469
1491.5	28.353
1492	28.8075
1492.5	29.0061
1493	28.7691
1493.5	28.0011
1494	26.6876
1494.5	25.2838
1495	24.295
1495.5	24.2308
1496	25.0887
1496.5	26.4314
1497	27.5843
1497.5	28.069
1498	27.9126
1498.5	27.3638
1499	26.778
1499.5	26.2719
1500	25.7444
1500.5	25.1053
1501	24.4655
1501.5	24.0871
1502	24.1521
1502.5	24.544
1503	24.9371
1503.5	25.0202
1504	24.8188
1504.5	24.5884
1505	24.6644
1505.5	25.1097
1506	25.6879
1506.5	26.0375
1507	26.0836
1507.5	26.0402
1508	26.3125
1508.5	27.0205
1509	27.809
1509.5	27.944
1510	27.0238
1510.5	25.0731
1511	22.829
1511.5	21.31
1512	21.0922
1512.5	22.0769
1513	23.467
1513.5	24.6093
1514	25.1287
1514.5	25.2874
1515	25.4636
1515.5	25.8568
1516	26.3068
1516.5	26.5391
1517	26.323
1517.5	25.8615
1518	25.4722
1518.5	25.4864
1519	25.8901
1519.5	26.4712
1520	26.7492
1520.5	26.4491
1521	25.5332
1521.5	24.2806
1522	23.2981
1522.5	23.1325
1523	24.2088
1523.5	25.9952
1524	27.879
1524.5	28.985
1525	28.9904
1525.5	27.9333
1526	26.2562
1526.5	25.1035
1527	24.703
1527.5	24.9494
1528	25.2503
1528.5	25.2715
1529	24.9571
1529.5	24.6882
1530	24.7923
1530.5	25.3794
1531	26.1295
1531.5	26.6513
1532	26.6419
1532.5	26.1736
1533	25.6138
1533.5	25.4683
1534	25.9863
1534.5	27.1803
1535	28.6584
1535.5	29.6898
1536	29.7115
1536.5	28.575
1537	26.7537
1537.5	24.9613
1538	24.0619
1538.5	24.1557
1539	24.756
1539.5	24.9807
1540	24.2951
1540.5	22.7048
1541	21.1672
1541.5	20.631
1542	21.4673
1542.5	23.2253
1543	25.0611
1543.5	26.0357
1544	26.0541
1544.5	25.4806
1545	24.9449
1545.5	24.7681
1546	24.9504
1546.5	25.2304
1547	25.5351
1547.5	25.9824
1548	26.6674
1548.5	27.5036
1549	28.0131
1549.5	27.8001
1550	26.6844
1550.5	25.0757
1551	23.516
1551.5	22.7136
1552	22.7646
1552.5	23.4938
1553	24.3496
1553.5	24.872
1554	24.5712
1554.5	23.5228
1555	22.0592
1555.5	20.7438
1556	20.0446
1556.5	20.2957
1557	21.3736
1557.5	22.7216
1558	23.8264
1558.5	24.4484
1559	24.6268
1559.5	24.5824
1560	24.5722
1560.5	24.6616
1561	24.849
1561.5	25.1611
1562	25.7124
1562.5	26.5491
1563	27.4747
1563.5	28.0957
1564	28.1367
1564.5	27.5266
1565	26.5191
1565.5	25.6376
1566	25.2137
1566.5	25.2814
1567	25.6626
1567.5	26.191
1568	26.7502
1568.5	27.2896
1569	27.649
1569.5	27.6338
1570	27.081
1570.5	26.0837
1571	25.1535
1571.5	24.8899
1572	25.5345
1572.5	26.8385
1573	28.1819
1573.5	28.7097
1574	28.0448
1574.5	26.3208
1575	24.2405
1575.5	22.4687
1576	21.5698
1576.5	21.5685
1577	22.1232
1577.5	22.7174
1578	23.0961
1578.5	23.2252
1579	23.3841
1579.5	23.8067
1580	24.4354
1580.5	24.9438
1581	24.9672
1581.5	24.4082
1582	23.6172
1582.5	23.3188
1583	23.94
1583.5	25.4784
1584	27.5189
1584.5	29.3434
1585	30.3829
1585.5	30.5726
1586	30.22
1586.5	29.6138
1587	29.0312
1587.5	28.578
1588	28.2613
1588.5	27.9251
1589	27.3761
1589.5	26.3714
1590	24.9247
1590.5	23.2976
1591	22.1822
1591.5	21.9989
1592	22.9095
1592.5	24.3252
1593	25.555
1593.5	25.816
1594	25.2602
1594.5	24.312
1595	23.5244
1595.5	23.1225
1596	23.0947
1596.5	23.2425
1597	23.5003
1597.5	23.9423
1598	24.5224
1598.5	25.0726
1599	25.3025
1599.5	25.1992
1600	25.0705
1600.5	25.3495
1601	26.1243
1601.5	27.1238
1602	27.6492
1602.5	27.1936
1603	25.7436
1603.5	23.9771
1604	22.4857
1604.5	21.7118
1605	21.5309
1605.5	21.5702
1606	21.4605
1606.5	21.1844
1607	20.9431
1607.5	21.0037
1608	21.5067
1608.5	22.3805
1609	23.3365
1609.5	24.181
1610	24.8196
1610.5	25.3155
1611	25.7684
1611.5	26.2068
1612	26.5114
1612.5	26.4333
1613	25.9202
1613.5	25.0808
1614	24.3576
1614.5	24.2134
1615	24.8564
1615.5	26.0144
1616	27.1636
1616.5	27.6904
1617	27.3314
1617.5	26.3016
1618	25.1406
1618.5	24.3309
1619	24.1038
1619.5	24.3818
1620	24.8281
1620.5	25.1203
1621	25.171
1621.5	25.0961
1622	25.0926
1622.5	25.2616
1623	25.5365
1623.5	25.651
1624	25.4537
1624.5	24.9531
1625	24.4009
1625.5	24.0726
1626	24.1849
1626.5	24.5874
1627	24.9806
1627.5	25.0464
1628	24.7196
1628.5	24.0525
1629	23.235
1629.5	22.4841
1630	21.9827
1630.5	21.8813
1631	22.2547
1631.5	23.1592
1632	24.3375
1632.5	25.4151
1633	25.9103
1633.5	25.7201
1634	24.9136
1634.5	23.853
1635	22.9243
1635.5	22.4605
1636	22.4825
1636.5	22.8876
1637	23.5781
1637.5	24.3562
1638	25.0401
1638.5	25.3279
1639	25.0766
1639.5	24.291
1640	23.2686
1640.5	22.3659
1641	21.9062
1641.5	21.8715
1642	22.0345
1642.5	22.1518
1643	22.2794
1643.5	22.6795
1644	23.6501
1644.5	25.1095
1645	26.5931
1645.5	27.3948
1646	27.2631
1646.5	26.2628
1647	25.0402
1647.5	24.0938
1648	23.7586
1648.5	23.8449
1649	24.1924
1649.5	24.7649
1650	25.6046
1650.5	26.6946
1651	27.671
1651.5	28.0478
1652	27.4593
1652.5	26.2495
1653	24.9516
1653.5	24.2866
1654	24.5263
1654.5	25.6226
1655	26.9088
1655.5	27.8686
1656	28.08
1656.5	27.5772
1657	26.5429
1657.5	25.3536
1658	24.439
1658.5	24.0574
1659	24.2425
1659.5	24.7927
1660	25.4568
1660.5	25.9427
1661	26.065
1661.5	25.6772
1662	24.8872
1662.5	23.8716
1663	23.0535
1663.5	22.8437
1664	23.5764
1664.5	24.958
1665	26.3004
1665.5	26.8701
1666	26.4957
1666.5	25.4662
1667	24.4559
1667.5	24.0279
1668	24.228
1668.5	24.6737
1669	25.0002
1669.5	25.0339
1670	24.8559
1670.5	24.5686
1671	24.144
1671.5	23.5548
1672	22.8822
1672.5	22.4169
1673	22.4157
1673.5	23.0194
1674	24.0103
1674.5	24.9563
1675	25.4631
1675.5	25.4247
1676	24.9176
1676.5	24.1301
1677	23.3697
1677.5	22.8919
1678	22.8204
1678.5	23.0099
1679	23.2261
1679.5	23.235
1680	23.042
1680.5	22.9112
1681	23.1974
1681.5	23.9411
1682	24.8305
1682.5	25.441
1683	25.5675
1683.5	25.4538
1684	25.5936
1684.5	26.3687
1685	27.4277
1685.5	28.1754
1686	27.9024
1686.5	26.6672
1687	24.9099
1687.5	23.5538
1688	23.1188
1688.5	23.5625
1689	24.2311
1689.5	24.5141
1690	24.0056
1690.5	23.0155
1691	22.1497
1691.5	22.1376
1692	22.96
1692.5	24.2431
1693	25.2379
1693.5	25.4858
1694	24.8711
1694.5	23.9611
1695	23.3648
1695.5	23.4512
1696	23.95
1696.5	24.4867
1697	24.681
1697.5	24.5172
1698	24.1493
1698.5	23.7711
1699	23.3666
1699.5	22.8339
1700	22.2215
1700.5	21.7544
1701	21.8585
1701.5	22.692
1702	24.0622
1702.5	25.4058
1703	26.2473
1703.5	26.2987
1704	25.7671
1704.5	25.0876
1705	24.8181
1705.5	25.1192
1706	25.8014
1706.5	26.3806
1707	26.4318
1707.5	25.7322
1708	24.503
1708.5	23.2754
1709	22.6165
1709.5	22.6009
1710	22.9442
1710.5	23.1409
1711	22.889
1711.5	22.236
1712	21.6803
1712.5	21.746
1713	22.64
1713.5	23.9918
1714	25.224
1714.5	25.7057
1715	25.3223
1715.5	24.3241
1716	23.3642
1716.5	22.9557
1717	23.2594
1717.5	24.0021
1718	24.7288
1718.5	25.0683
1719	25.0154
1719.5	24.8533
1720	24.9582
1720.5	25.3168
1721	25.6593
1721.5	25.5402
1722	24.8465
1722.5	23.7756
1723	22.9672
1723.5	22.8757
1724	23.6187
1724.5	24.7399
1725	25.8079
1725.5	26.4835
1726	26.7937
1726.5	26.7943
1727	26.3982
1727.5	25.4632
1728	23.8826
1728.5	22.0128
1729	20.3931
1729.5	19.6591
1730	19.8155
1730.5	20.5184
1731	21.1566
1731.5	21.5457
1732	21.8744
1732.5	22.463
1733	23.2941
1733.5	23.9773
1734	24.0064
1734.5	23.3054
1735	22.4367
1735.5	22.1087
1736	22.6291
1736.5	23.7098
1737	24.6869
1737.5	25.0419
1738	24.7905
1738.5	24.347
1739	24.0056
1739.5	23.6466
1740	22.9891
1740.5	21.8214
1741	20.4027
1741.5	19.1781
1742	18.6699
1742.5	18.9205
1743	19.8835
1743.5	21.2955
1744	22.8951
1744.5	24.2089
1745	24.6645
1745.5	23.6928
1746	21.0904
1746.5	17.6785
1747	14.3528
1747.5	11.9009
1748	10.4336
1748.5	9.81385
1749	9.76102
1749.5	10.4966
1750	12.7224
1750.5	16.352
1751	20.7764
1751.5	24.505
1752	26.3803
1752.5	25.7443
1753	23.5073
1753.5	21.1607
1754	20.301
1754.5	20.9968
1755	22.5728
1755.5	23.7598
1756	23.8031
1756.5	22.6138
1757	21.0432
1757.5	20.1058
1758	20.4561
1758.5	21.643
1759	22.9224
1759.5	23.4768
1760	23.2459
1760.5	22.6368
1761	22.4579
1761.5	23.1304
1762	24.4642
1762.5	25.6256
1763	25.984
1763.5	25.1427
1764	23.556
1764.5	21.81
1765	20.579
1765.5	20.0806
1766	20.2234
1766.5	20.714
1767	21.4038
1767.5	22.3741
1768	23.7443
1768.5	25.4948
1769	27.3288
1769.5	28.6351
1770	28.8609
1770.5	27.8517
1771	26.1592
1771.5	24.5201
1772	23.7041
1772.5	23.916
1773	25.0071
1773.5	26.2831
1774	27.2255
1774.5	27.5466
1775	27.3538
1775.5	26.7073
1776	25.652
1776.5	24.2677
1777	22.6875
1777.5	21.2508
1778	20.2823
1778.5	20.0462
1779	20.3555
1779.5	20.9677
1780	21.5152
1780.5	21.7304
1781	21.4604
1781.5	20.8252
1782	20.1808
1782.5	20.0309
1783	20.5238
1783.5	21.3994
1784	21.9909
1784.5	21.8039
1785	20.8069
1785.5	19.7028
1786	19.3497
1786.5	20.2681
1787	21.7189
1787.5	22.6972
1788	22.3224
1788.5	20.9153
1789	19.2466
1789.5	18.2754
1790	18.1546
1790.5	18.5085
1791	18.689
1791.5	18.6196
1792	18.6269
1792.5	19.0213
1793	19.7349
1793.5	20.4152
1794	20.8242
1794.5	21.0542
1795	21.42
1795.5	21.8776
1796	21.957
1796.5	21.1727
1797	19.6468
1797.5	18.093
1798	17.4658
1798.5	18.1521
1799	19.8178
1799.5	21.4055
1800	22.2687
1800.5	22.4774
1801	22.5474
1801.5	22.8515
1802	23.2962
1802.5	23.5528
1803	23.3177
1803.5	22.809
1804	22.4236
1804.5	22.5146
1805	23.0025
1805.5	23.6782
1806	24.2605
1806.5	24.5888
1807	24.4854
1807.5	23.8903
1808	22.8558
1808.5	21.7449
1809	21.131
1809.5	21.3792
1810	22.3451
1810.5	23.37
1811	23.7498
1811.5	23.2666
1812	22.317
1812.5	21.6368
1813	21.6248
1813.5	22.0195
1814	22.1528
1814.5	21.7251
1815	20.9666
1815.5	20.6495
1816	21.2592
1816.5	22.7975
1817	24.3487
1817.5	24.9845
1818	24.0997
1818.5	22.3292
1819	20.4263
1819.5	19.1468
1820	18.5864
1820.5	18.5304
1821	18.5693
1821.5	18.5516
1822	18.5539
1822.5	18.6874
1823	18.9073
1823.5	19.0656
1824	19.103
1824.5	19.0736
1825	19.0864
1825.5	19.1319
1826	19.0685
1826.5	18.7711
1827	18.3205
1827.5	18.0529
1828	18.2134
1828.5	18.8114
1829	19.5407
1829.5	20.0205
1830	20.0261
1830.5	19.67
1831	19.2385
1831.5	19.0162
1832	19.0982
1832.5	19.4744
1833	20.1822
1833.5	21.1618
1834	22.2674
1834.5	23.0872
1835	23.2356
1835.5	22.4353
1836	21.0137
1836.5	19.6089
1837	18.9732
1837.5	19.1588
1838	19.8407
1838.5	20.4193
1839	20.5748
1839.5	20.3411
1840	20.091
1840.5	20.1014
1841	20.4417
1841.5	20.8759
1842	21.2166
1842.5	21.4133
1843	21.552
1843.5	21.6541
1844	21.6481
1844.5	21.4877
1845	21.2258
1845.5	21.079
1846	21.2088
1846.5	21.6432
1847	22.0734
1847.5	22.2145
1848	21.8687
1848.5	21.1768
1849	20.3519
1849.5	19.6637
1850	19.2297
1850.5	19.0777
1851	19.0659
1851.5	19.0197
1852	18.7131
1852.5	18.1079
1853	17.294
1853.5	16.5751
1854	16.2658
1854.5	16.6258
1855	17.6256
1855.5	18.9944
1856	20.3584
1856.5	21.3393
1857	21.7157
1857.5	21.3869
1858	20.5606
1858.5	19.4668
1859	18.5001
1859.5	17.975
1860	18.1317
1860.5	18.8297
1861	19.697
1861.5	20.1555
1862	19.8391
1862.5	18.7689
1863	17.4136
1863.5	16.3953
1864	16.1572
1864.5	16.7041
1865	17.6761
1865.5	18.7098
1866	19.6509
1866.5	20.6137
1867	21.7771
1867.5	22.9856
1868	23.83
1868.5	23.8728
1869	23.1967
1869.5	22.1749
1870	21.3898
1870.5	21.0409
1871	20.959
1871.5	20.7099
1872	20.1496
1872.5	19.6047
1873	19.6349
1873.5	20.5127
1874	21.8527
1874.5	22.9557
1875	23.2018
1875.5	22.6511
1876	21.7778
1876.5	21.2056
1877	21.1009
1877.5	21.2397
1878	21.1521
1878.5	20.6825
1879	20.0305
1879.5	19.5596
1880	19.3465
1880.5	19.1886
1881	18.7941
1881.5	18.1528
1882	17.6481
1882.5	17.7395
1883	18.6476
1883.5	20.0109
1884	21.0827
1884.5	21.155
1885	20.2042
1885.5	18.7182
1886	17.5098
1886.5	17.1888
1887	17.963
1887.5	19.5693
1888	21.302
1888.5	22.4874
1889	22.6633
1889.5	21.888
1890	20.4823
1890.5	19.1185
1891	18.1987
1891.5	17.9663
1892	18.2068
1892.5	18.6595
1893	18.9984
1893.5	19.0884
1894	18.9632
1894.5	18.8839
1895	19.0935
1895.5	19.7619
1896	20.6293
1896.5	21.3019
1897	21.3223
1897.5	20.6441
1898	19.405
1898.5	17.997
1899	16.7434
1899.5	15.9016
1900	15.5924
1900.5	15.8919
1901	16.8886
1901.5	18.271
1902	19.6091
1902.5	20.3815
1903	20.5161
1903.5	20.2456
1904	20.115
1904.5	20.4192
1905	21.124
1905.5	21.7133
1906	21.7087
1906.5	20.7573
1907	19.1346
1907.5	17.2706
1908	15.7868
1908.5	14.9772
1909	14.9728
1909.5	15.5617
1910	16.5201
1910.5	17.6948
1911	18.9306
1911.5	20.0867
1912	20.884
1912.5	21.1028
1913	20.5784
1913.5	19.4972
1914	18.252
1914.5	17.2416
1915	16.5695
1915.5	16.137
1916	15.8216
1916.5	15.611
1917	15.6128
1917.5	15.9036
1918	16.382
1918.5	16.8886
1919	17.2906
1919.5	17.5862
1920	17.815
1920.5	17.9967
1921	18.12
1921.5	18.2572
1922	18.5643
1922.5	19.1759
1923	20.018
1923.5	20.8387
1924	21.3598
1924.5	21.5458
1925	21.5453
1925.5	21.5438
1926	21.5578
1926.5	21.4642
1927	21.1771
1927.5	20.8696
1928	20.8263
1928.5	21.1188
1929	21.4632
1929.5	21.3076
1930	20.3757
1930.5	18.7985
1931	17.1501
1931.5	16.009
1932	15.5933
1932.5	15.557
1933	15.3601
1933.5	14.6842
1934	13.8808
1934.5	13.5992
1935	14.5246
1935.5	16.3735
1936	18.5088
1936.5	19.9802
1937	20.419
1937.5	19.8969
1938	19.0204
1938.5	18.2761
1939	17.9172
1939.5	17.8752
1940	18.0871
1940.5	18.5694
1941	19.2222
1941.5	19.8044
1942	19.9509
1942.5	19.5917
1943	18.9075
1943.5	18.3176
1944	18.0042
1944.5	17.8703
1945	17.6187
1945.5	17.1612
1946	16.7242
1946.5	16.6124
1947	16.9357
1947.5	17.4226
1948	17.7624
1948.5	17.8899
1949	18.1471
1949.5	18.78
1950	19.6921
1950.5	20.3414
1951	20.2823
1951.5	19.5219
1952	18.6689
1952.5	18.4164
1953	18.991
1953.5	19.9563
1954	20.48
1954.5	20.0702
1955	18.8787
1955.5	17.7579
1956	17.6074
1956.5	18.7825
1957	20.702
1957.5	22.3936
1958	23.0243
1958.5	22.6291
1959	21.797
1959.5	21.3064
1960	21.3434
1960.5	21.5497
1961	21.2156
1961.5	20.1323
1962	18.6065
1962.5	17.4421
1963	17.0891
1963.5	17.5768
1964	18.2764
1964.5	18.7411
1965	18.7868
1965.5	18.5597
1966	18.1226
1966.5	17.4839
1967	16.7701
1967.5	16.33
1968	16.5594
1968.5	17.4958
1969	18.7878
1969.5	19.8027
1970	20.292
1970.5	20.5241
1971	21.001
1971.5	21.8879
1972	22.6833
1972.5	22.7914
1973	21.9127
1973.5	20.5962
1974	19.4885
1974.5	19.112
1975	19.3175
1975.5	19.8411
1976	20.4396
1976.5	21.0434
1977	21.5826
1977.5	21.8654
1978	21.753
1978.5	21.2688
1979	20.784
1979.5	20.5721
1980	20.6424
1980.5	20.6612
1981	20.3845
1981.5	19.9234
1982	19.596
1982.5	19.6367
1983	19.8962
1983.5	20.1128
1984	20.1203
1984.5	20.0798
1985	20.1811
1985.5	20.4239
1986	20.5285
1986.5	20.1686
1987	19.2997
1987.5	18.1838
1988	17.1703
1988.5	16.4303
1989	15.9328
1989.5	15.631
1990	15.5721
1990.5	15.9267
1991	16.7551
1991.5	17.8291
1992	18.7765
1992.5	19.2687
1993	19.2858
1993.5	19.0564
1994	18.9965
1994.5	19.3212
1995	19.949
1995.5	20.4837
1996	20.5037
1996.5	19.8305
1997	18.6904
1997.5	17.5147
1998	16.7538
1998.5	16.5657
1999	16.8783
1999.5	17.3311
2000	17.699
2000.5	17.9027
2001	18.0569
2001.5	18.3237
2002	18.7585
2002.5	19.224
2003	19.3999
2003.5	19.1117
2004	18.4721
2004.5	18.0393
2005	18.3865
2005.5	19.778
2006	21.6589
2006.5	23.0503
2007	22.9725
2007.5	21.488
2008	19.3785
2008.5	17.8393
2009	17.3688
2009.5	17.7124
2010	18.0947
2010.5	18.0679
2011	17.6893
2011.5	17.4
2012	17.4041
2012.5	17.5895
2013	17.6648
2013.5	17.595
2014	17.6471
2014.5	18.0268
2015	18.6352
2015.5	18.9917
2016	18.7871
2016.5	18.0841
2017	17.5253
2017.5	17.6488
2018	18.7611
2018.5	20.3591
2019	21.8915
2019.5	22.8108
2020	23.0309
2020.5	22.5707
2021	21.6059
2021.5	20.3534
2022	19.0783
2022.5	18.0892
2023	17.5501
2023.5	17.4981
2024	17.7199
2024.5	18.0911
2025	18.5696
2025.5	19.1519
2026	19.7689
2026.5	20.2115
2027	20.3244
2027.5	20.0733
2028	19.7413
2028.5	19.5664
2029	19.5726
2029.5	19.411
2030	18.6224
2030.5	17.0407
2031	15.091
2031.5	13.5777
2032	13.0809
2032.5	13.5002
2033	14.0638
2033.5	13.7945
2034	12.219
2034.5	9.72065
2035	7.38265
2035.5	6.31187
2036	6.97397
2036.5	8.98245
2037	11.5587
2037.5	13.7286
2038	15.0393
2038.5	15.479
2039	15.6258
2039.5	16.0063
2040	16.8987
2040.5	18.0412
2041	18.8709
2041.5	18.9271
2042	18.2425
2042.5	17.2476
2043	16.5168
2043.5	16.1957
2044	15.9608
2044.5	15.4512
2045	14.7088
2045.5	14.3183
2046	14.7393
2046.5	16.031
2047	17.3803
2047.5	18.0218
2048	17.5424
2048.5	16.6048
2049	16.0858
2049.5	16.6881
2050	18.1808
2050.5	19.8672
2051	20.8756
2051.5	20.904
2052	20.0178
2052.5	18.8425
2053	17.8482
2053.5	17.4633
2054	17.7844
2054.5	18.8159
2055	20.226
2055.5	21.5218
2056	22.1295
2056.5	21.8529
2057	20.8891
2057.5	19.7915
2058	19.1867
2058.5	19.423
2059	20.4038
2059.5	21.6024
2060	22.4315
2060.5	22.4839
2061	21.8125
2061.5	20.7903
2062	20.0632
2062.5	20.0078
2063	20.6653
2063.5	21.5438
2064	22.1278
2064.5	22.0271
2065	21.2728
2065.5	20.0543
2066	18.8071
2066.5	17.8973
2067	17.7583
2067.5	18.3925
2068	19.607
2068.5	20.8653
2069	21.7183
2069.5	22.0191
2070	22.0669
2070.5	22.1472
2071	22.2031
2071.5	21.8046
2072	20.6508
2072.5	18.898
2073	17.322
2073.5	16.568
2074	16.6978
2074.5	17.0882
2075	17.0944
2075.5	16.6323
2076	16.1393
2076.5	16.1755
2077	16.7196
2077.5	17.4623
2078	18.0766
2078.5	18.6376
2079	19.4146
2079.5	20.4695
2080	21.4475
2080.5	21.7534
2081	21.1986
2081.5	20.0555
2082	18.908
2082.5	18.1419
2083	17.737
2083.5	17.353
2084	16.7748
2084.5	16.0812
2085	15.6307
2085.5	15.6527
2086	16.184
2086.5	16.8595
2087	17.3691
2087.5	17.5483
2088	17.5949
2088.5	17.8185
2089	18.4745
2089.5	19.4831
2090	20.5307
2090.5	21.1827
2091	21.2451
2091.5	20.7397
2092	20.0753
2092.5	19.5701
2093	19.4118
2093.5	19.4928
2094	19.6326
2094.5	19.6594
2095	19.5523
2095.5	19.3659
2096	19.1593
2096.5	18.8783
2097	18.3316
2097.5	17.4392
2098	16.2937
2098.5	15.3296
2099	14.9827
2099.5	15.5635
2100	16.7887
2100.5	18.1747
2101	19.2616
2101.5	20.0322
2102	20.6407
2102.5	21.1137
2103	21.1701
2103.5	20.3895
2104	18.8027
2104.5	17.0328
2105	16.0144
2105.5	16.1774
2106	17.2568
2106.5	18.4487
2107	19.0558
2107.5	18.9371
2108	18.5687
2108.5	18.5463
2109	19.2206
2109.5	20.3273
2110	21.3066
2110.5	21.4568
2111	20.674
2111.5	19.2829
2112	18.0562
2112.5	17.5427
2113	17.8468
2113.5	18.5004
2114	19.0537
2114.5	19.395
2115	19.7658
2115.5	20.2472
2116	20.5011
2116.5	20.1324
2117	19.1277
2117.5	18.1608
2118	17.9312
2118.5	18.6318
2119	19.4997
2119.5	19.7388
2120	19.0097
2120.5	18.0487
2121	17.6002
2121.5	17.9546
2122	18.4475
2122.5	18.3499
2123	17.4696
2123.5	16.4499
2124	16.216
2124.5	17.1551
2125	18.8763
2125.5	20.4321
2126	21.0078
2126.5	20.3546
2127	18.9118
2127.5	17.5561
2128	16.9716
2128.5	17.2708
2129	17.9937
2129.5	18.5019
2130	18.4454
2130.5	17.9323
2131	17.3944
2131.5	17.2196
2132	17.5375
2132.5	18.173
2133	18.8124
2133.5	19.1866
2134	19.2231
2134.5	19.0637
2135	19.014
2135.5	19.313
2136	19.9653
2136.5	20.669
2137	21.0627
2137.5	20.986
2138	20.676
2138.5	20.4987
2139	20.7041
2139.5	21.1448
2140	21.5394
2140.5	21.5937
2141	21.2891
2141.5	20.6693
2142	19.8263
2142.5	18.9129
2143	18.1849
2143.5	17.9881
2144	18.4514
2144.5	19.4304
2145	20.2973
2145.5	20.5624
2146	20.0693
2146.5	19.3591
2147	19.0406
2147.5	19.3978
2148	20.0383
2148.5	20.3031
2149	19.9008
2149.5	19.191
2150	19.0014
2150.5	19.685
2151	20.95
2151.5	21.8697
2152	21.8737
2152.5	20.9847
2153	19.9216
2153.5	19.1711
2154	18.6979
2154.5	18.0049
2155	16.9136
2155.5	15.8687
2156	15.5779
2156.5	16.3643
2157	17.6723
2157.5	18.5406
2158	18.2703
2158.5	17.191
2159	16.139
2159.5	16.0357
2160	16.8837
2160.5	18.2253
2161	19.3656
2161.5	20.0629
2162	20.4532
2162.5	20.8647
2163	21.3569
2163.5	21.6677
2164	21.4561
2164.5	20.6357
2165	19.4406
2165.5	18.4194
2166	17.9729
2166.5	18.1893
2167	18.6962
2167.5	19.0268
2168	18.8835
2168.5	18.3918
2169	17.9693
2169.5	17.9967
2170	18.5113
2170.5	19.174
2171	19.5491
2171.5	19.4357
2172	19.0042
2172.5	18.5571
2173	18.2753
2173.5	18.1154
2174	18.0044
2174.5	17.9772
2175	18.0993
2175.5	18.3455
2176	18.5324
2176.5	18.5525
2177	18.5014
2177.5	18.6499
2178	19.0654
2178.5	19.4992
2179	19.5305
2179.5	19.0282
2180	18.2939
2180.5	17.8733
2181	18.0619
2181.5	18.6905
2182	19.3366
2182.5	19.6888
2183	19.7265
2183.5	19.5338
2184	19.0847
2184.5	18.3671
2185	17.4408
2185.5	16.5696
2186	16.0028
2186.5	15.8543
2187	16.0143
2187.5	16.3391
2188	16.7672
2188.5	17.1905
2189	17.4057
2189.5	17.0708
2190	16.2004
2190.5	15.083
2191	14.3112
2191.5	14.1719
2192	14.6012
2192.5	15.1264
2193	15.4782
2193.5	15.7476
2194	16.3012
2194.5	17.3061
2195	18.5167
2195.5	19.3954
2196	19.5416
2196.5	19.0391
2197	18.3881
2197.5	18.1534
2198	18.532
2198.5	19.2971
2199	19.9019
2199.5	19.9008
2200	19.1639
2200.5	18.0317
2201	17.1213
2201.5	16.9627
2202	17.5797
2202.5	18.505
2203	19.0664
2203.5	19.0063
2204	18.6419
2204.5	18.8006
2205	19.9063
2205.5	21.7149
2206	23.0763
2206.5	23.0593
2207	21.3557
2207.5	19.0913
2208	17.5243
2208.5	17.6028
2209	18.6493
2209.5	19.6464
2210	19.7018
2210.5	19.0812
2211	18.5397
2211.5	18.6961
2212	19.3039
2212.5	19.5687
2213	18.8746
2213.5	17.267
2214	15.3671
2214.5	13.9695
2215	13.6002
2215.5	14.4446
2216	16.1409
2216.5	18.118
2217	19.5484
2217.5	20.0358
2218	19.6428
2218.5	19.1722
2219	19.143
2219.5	19.4583
2220	19.3957
2220.5	18.3985
2221	16.814
2221.5	15.6455
2222	15.9156
2222.5	17.4927
2223	19.5497
2223.5	21.0206
2224	21.6326
2224.5	21.6259
2225	21.4456
2225.5	21.2506
2226	21.0077
2226.5	20.8338
2227	20.9931
2227.5	21.7056
2228	22.6071
2228.5	23.1365
2229	22.7353
2229.5	21.5868
2230	20.1814
2230.5	19.2683
2231	19.2712
2231.5	20.448
2232	22.3898
2232.5	24.3399
2233	25.052
2233.5	24.0097
2234	21.4708
2234.5	18.822
2235	17.3687
2235.5	17.535
2236	18.4049
2236.5	18.9991
2237	19.0489
2237.5	19.2832
2238	20.2137
2238.5	21.5042
2239	22.0668
2239.5	21.2137
2240	19.3852
2240.5	17.749
2241	17.1845
2241.5	17.5019
2242	18.0157
2242.5	18.1368
2243	17.8685
2243.5	17.3256
2244	16.4529
2244.5	15.231
2245	13.9439
2245.5	13.3967
2246	14.1351
2246.5	16.2697
2247	18.8316
2247.5	20.8364
2248	21.3645
2248.5	20.4961
2249	18.554
2249.5	16.2962
2250	14.5392
2250.5	14.0407
2251	14.9952
2251.5	16.9238
2252	18.9475
2252.5	20.2194
2253	20.4317
2253.5	19.6946
2254	18.5205
2254.5	17.2367
2255	16.1096
2255.5	15.3189
2256	15.1271
2256.5	15.6128
2257	16.6363
2257.5	17.8269
2258	18.7127
2258.5	19.0714
2259	19.0415
2259.5	19.0664
2260	19.534
2260.5	20.4703
2261	21.5208
2261.5	22.1283
2262	21.97
2262.5	21.041
2263	19.5841
2263.5	18.0496
2264	16.7519
2264.5	15.9041
2265	15.507
2265.5	15.5506
2266	15.9353
2266.5	16.6109
2267	17.5412
2267.5	18.4738
2268	19.0529
2268.5	18.8469
2269	17.9316
2269.5	16.738
2270	16.0693
2270.5	16.3098
2271	17.364
2271.5	18.432
2272	18.9384
2272.5	18.7444
2273	18.4482
2273.5	18.5661
2274	19.1622
2274.5	19.7164
2275	19.6554
2275.5	18.9354
2276	18.0085
2276.5	17.4523
2277	17.3738
2277.5	17.5576
2278	17.7464
2278.5	17.9518
2279	18.2638
2279.5	18.5375
2280	18.4956
2280.5	18.0366
2281	17.6488
2281.5	17.8616
2282	18.8677
2282.5	19.9109
2283	20.2108
2283.5	19.4929
2284	18.4784
2284.5	18.0552
2285	18.5571
2285.5	19.5034
2286	20.106
2286.5	19.9645
2287	19.1766
2287.5	18.1359
2288	17.3057
2288.5	17.0572
2289	17.6167
2289.5	18.6973
2290	19.6402
2290.5	19.67
2291	18.6321
2291.5	17.0088
2292	15.8195
2292.5	15.6569
2293	16.5808
2293.5	18.0327
2294	19.5195
2294.5	20.5717
2295	20.9149
2295.5	20.3009
2296	19.0618
2296.5	17.7587
2297	17.0591
2297.5	16.9713
2298	17.1315
2298.5	17.1218
2299	17.085
2299.5	17.545
2300	18.6616
2300.5	19.9152
2301	20.3446
2301.5	19.6544
2302	18.2662
2302.5	17.1884
2303	16.9982
2303.5	17.6698
2304	18.5479
2304.5	19.0732
2305	18.9501
2305.5	18.3726
2306	17.6769
2306.5	17.3461
2307	17.644
2307.5	18.5599
2308	19.5771
2308.5	20.04
2309	19.5286
2309.5	18.4209
2310	17.3978
2310.5	17.0264
2311	17.1642
2311.5	17.4334
2312	17.5638
2312.5	17.7342
2313	18.2538
2313.5	19.1676
2314	20.102
2314.5	20.5574
2315	20.3534
2315.5	19.6782
2316	18.8829
2316.5	18.275
2317	17.9668
2317.5	17.9505
2318	18.0829
2318.5	18.1929
2319	18.1059
2319.5	17.7942
2320	17.3409
2320.5	16.9286
2321	16.6581
2321.5	16.5802
2322	16.6707
2322.5	16.9417
2323	17.3625
2323.5	17.81
2324	18.1137
2324.5	18.1777
2325	18.0752
2325.5	18.0364
2326	18.3167
2326.5	19.051
2327	20.15
2327.5	21.2452
2328	21.9533
2328.5	22.0616
2329	21.7323
2329.5	21.2732
2330	20.9288
2330.5	20.6057
2331	19.8962
2331.5	18.5539
2332	16.594
2332.5	14.4577
2333	12.7254
2333.5	11.9502
2334	12.3259
2334.5	13.6227
2335	15.3299
2335.5	16.7103
2336	17.4227
2336.5	17.5548
2337	17.6252
2337.5	17.9668
2338	18.5324
2338.5	19.056
2339	19.4274
2339.5	19.8588
2340	20.5063
2340.5	21.1874
2341	21.4539
2341.5	21.1202
2342	20.5777
2342.5	20.4337
2343	20.816
2343.5	21.0018
2344	20.2997
2344.5	18.5726
2345	16.8899
2345.5	16.282
2346	17.2441
2346.5	18.7904
2347	19.7523
2347.5	19.3637
2348	18.0774
2348.5	16.8113
2349	16.3509
2349.5	16.6805
2350	17.2975
2350.5	17.6206
2351	17.5439
2351.5	17.2963
2352	17.1044
2352.5	16.9224
2353	16.4932
2353.5	15.7493
2354	14.9546
2354.5	14.6286
2355	14.9917
2355.5	15.7934
2356	16.3502
2356.5	16.3087
2357	15.9974
2357.5	16.1231
2358	17.0411
2358.5	18.1633
2359	18.6511
2359.5	17.9032
2360	16.5256
2360.5	15.3914
2361	15.2809
2361.5	16.0062
2362	17.0655
2362.5	17.8474
2363	18.1077
2363.5	17.7126
2364	16.8039
2364.5	15.7275
2365	15.1506
2365.5	15.4459
2366	16.5039
2366.5	17.5505
2367	17.8957
2367.5	17.3828
2368	16.6958
2368.5	16.5519
2369	17.3818
2369.5	18.8074
2370	20.3414
2370.5	21.4982
2371	22.0909
2371.5	21.995
2372	21.2062
2372.5	19.9724
2373	18.6551
2373.5	17.6704
2374	17.1606
2374.5	17.0823
2375	17.1244
2375.5	17.0831
2376	16.8761
2376.5	16.6387
2377	16.5822
2377.5	16.8025
2378	17.0782
2378.5	16.9613
2379	16.2402
2379.5	15.182
2380	14.5875
2380.5	15.0217
2381	16.4986
2381.5	18.2374
2382	19.4014
2382.5	19.5877
2383	19.1902
2383.5	18.731
2384	18.4617
2384.5	18.2484
2385	18.0602
2385.5	18.1932
2386	18.8816
2386.5	20.0078
2387	20.856
2387.5	20.868
2388	19.9719
2388.5	19.0092
2389	18.7188
2389.5	19.3867
2390	20.2064
2390.5	20.3687
2391	19.4555
2391.5	17.917
2392	16.444
2392.5	15.7246
2393	15.9465
2393.5	16.9907
2394	18.1223
2394.5	18.6564
2395	18.0857
2395.5	16.8779
2396	15.8391
2396.5	15.5735
2397	15.7198
2397.5	15.4541
2398	14.4248
2398.5	13.2652
2399	13.3429
2399.5	15.0327
2400	17.6414
2400.5	19.4641
2401	19.5968
2401.5	18.2495
2402	16.95
2402.5	16.6749
2403	17.5263
2403.5	18.401
2404	18.364
2404.5	16.9508
2405	14.9216
2405.5	13.2049
2406	12.6243
2406.5	13.1464
2407	14.4183
2407.5	15.83
2408	17.0976
2408.5	18.028
2409	18.5132
2409.5	18.4888
2410	18.1792
2410.5	18.0914
2411	18.5593
2411.5	19.303
2412	19.6806
2412.5	19.2008
2413	18.3388
2413.5	17.8196
2414	18.0677
2414.5	18.4798
2415	18.303
2415.5	17.2026
2416	15.7971
2416.5	14.9572
2417	15.1507
2417.5	16.0786
2418	17.0661
2418.5	17.5208
2419	17.3453
2419.5	16.8416
2420	16.5488
2420.5	16.831
2421	17.6316
2421.5	18.5027
2422	18.9898
2422.5	19.0643
2423	19.0207
2423.5	19.1344
2424	19.2255
2424.5	18.9869
2425	18.3461
2425.5	17.6899
2426	17.4121
2426.5	17.4914
2427	17.5366
2427.5	17.1502
2428	16.4184
2428.5	15.6564
2429	15.13
2429.5	14.732
2430	14.2902
2430.5	13.7956
2431	13.4906
2431.5	13.7383
2432	14.6509
2432.5	15.9711
2433	17.0595
2433.5	17.2441
2434	16.3298
2434.5	14.8905
2435	13.9909
2435.5	14.4368
2436	16.1052
2436.5	18.0746
2437	19.3211
2437.5	19.5725
2438	19.2475
2438.5	19.054
2439	19.2405
2439.5	19.5708
2440	19.5929
2440.5	19.1922
2441	18.5598
2441.5	18.1427
2442	18.176
2442.5	18.6395
2443	19.1133
2443.5	19.2752
2444	19.1003
2444.5	18.9303
2445	18.9887
2445.5	19.1067
2446	18.9405
2446.5	18.427
2447	18.2258
2447.5	19.0092
2448	20.9356
2448.5	22.6588
2449	22.8108
2449.5	20.8787
2450	18.1485
2450.5	16.282
2451	16.2148
2451.5	17.3445
2452	18.383
2452.5	18.3805
2453	17.3498
2453.5	15.9647
2454	14.9281
2454.5	14.6331
2455	15.2093
2455.5	16.3636
2456	17.5469
2456.5	18.0685
2457	17.7578
2457.5	16.9927
2458	16.54
2458.5	16.6416
2459	17.0402
2459.5	17.4245
2460	17.8728
2460.5	18.643
2461	19.5962
2461.5	20.1354
2462	19.8419
2462.5	19.0167
2463	18.5656
2463.5	18.9129
2464	19.7998
2464.5	20.4316
2465	20.405
2465.5	19.7615
2466	18.8965
2466.5	18.0086
2467	17.159
2467.5	16.468
2468	16.1084
2468.5	16.1507
2469	16.3808
2469.5	16.6529
2470	17.0187
2470.5	17.5802
2471	18.2243
2471.5	18.5341
2472	18.3286
2472.5	17.8191
2473	17.5001
2473.5	17.5118
2474	17.5192
2474.5	17.1951
2475	16.6405
2475.5	16.4441
2476	16.8051
2476.5	17.281
2477	17.1317
2477.5	16.2305
2478	15.2802
2478.5	15.1267
2479	15.9359
2479.5	16.8614
2480	17.0544
2480.5	16.4583
2481	15.9924
2481.5	16.2687
2482	17.1819
2482.5	17.8088
2483	17.6339
2483.5	16.9378
2484	16.5406
2484.5	16.8263
2485	17.3396
2485.5	17.5334
2486	17.2844
2486.5	17.1061
2487	17.3532
2487.5	17.9107
2488	18.2526
2488.5	18.173
2489	18.0854
2489.5	18.4256
2490	19.1763
2490.5	19.6232
2491	19.1703
2491.5	17.6175
2492	15.7558
2492.5	14.3711
2493	13.9554
2493.5	14.2608
2494	15.0415
2494.5	16.1312
2495	17.4481
2495.5	18.7666
2496	19.6249
2496.5	19.7539
2497	19.3365
2497.5	19.0276
2498	19.1353
2498.5	19.3522
2499	19.071
2499.5	17.967
2500	16.5355
2500.5	15.5185
2501	15.3834
2501.5	15.7266
2502	16.0613
2502.5	15.999
2503	15.4657
2503.5	14.3128
2504	12.4255
2504.5	10.1052
2505	8.06658
2505.5	6.91076
2506	6.53365
2506.5	6.3716
2507	6.08536
2507.5	6.12184
2508	7.49975
2508.5	10.4035
2509	14.1257
2509.5	17.287
2510	19.1556
2510.5	19.4111
2511	18.4726
2511.5	16.7275
2512	14.8363
2512.5	13.7223
2513	13.8937
2513.5	14.7237
2514	14.7316
2514.5	12.5474
2515	8.58475
2515.5	4.61537
2516	3.17936
2516.5	4.79591
2517	8.38394
2517.5	11.8113
2518	13.7188
2518.5	13.934
2519	13.5486
2519.5	13.6
2520	14.5325
2520.5	15.7696
2521	16.7811
2521.5	17.3547
2522	17.7407
2522.5	18.0249
2523	17.9769
2523.5	17.4319
2524	16.6054
2524.5	16.1655
2525	16.3958
2525.5	17.0662
2526	17.5087
2526.5	17.4586
2527	17.1679
2527.5	17.0936
2528	17.3132
2528.5	17.5348
2529	17.5847
2529.5	17.5595
2530	17.7166
2530.5	18.1565
2531	18.8969
2531.5	19.7967
2532	20.6385
2532.5	20.8913
2533	20.1649
2533.5	18.3853
2534	16.2968
2534.5	14.7275
2535	14.1497
2535.5	14.0751
2536	14.0781
2536.5	14.0945
2537	14.3588
2537.5	14.9591
2538	15.6604
2538.5	16.3005
2539	17.0688
2539.5	18.1903
2540	19.4556
2540.5	20.177
2541	19.9605
2541.5	18.9411
2542	17.7738
2542.5	16.9604
2543	16.6161
2543.5	16.6682
2544	17.082
2544.5	17.8179
2545	18.465
2545.5	18.5221
2546	17.6649
2546.5	16.3503
2547	15.1447
2547.5	14.6099
2548	14.8705
2548.5	15.9619
2549	17.5888
2549.5	19.1984
2550	19.9676
2550.5	19.4998
2551	17.9435
2551.5	16.0956
2552	14.8341
2552.5	14.5556
2553	14.8389
2553.5	15.0781
2554	14.9246
2554.5	14.5592
2555	14.3261
2555.5	14.5041
2556	14.9253
2556.5	15.3752
2557	15.8373
2557.5	16.4806
2558	17.3206
2558.5	17.8528
2559	17.4905
2559.5	16.0051
2560	14.3905
2560.5	13.6104
2561	14.139
2561.5	15.1371
2562	15.676
2562.5	15.4001
2563	14.9806
2563.5	15.1575
2564	15.9528
2564.5	16.9112
2565	17.6404
2565.5	18.2764
2566	19.0457
2566.5	19.7772
2567	19.9761
2567.5	19.265
2568	17.9156
2568.5	16.6126
2569	16.1061
2569.5	16.5543
2570	17.61
2570.5	18.649
2571	19.1288
2571.5	18.81
2572	17.9043
2572.5	16.9744
2573	16.5084
2573.5	16.5563
2574	16.8406
2574.5	17.0313
2575	17.0145
2575.5	16.8015
2576	16.2677
2576.5	15.257
2577	13.7716
2577.5	12.4447
2578	12.1025
2578.5	13.4179
2579	15.7973
2579.5	18.0455
2580	18.989
2580.5	18.7633
2581	18.0036
2581.5	17.5398
2582	17.6045
2582.5	18.0708
2583	18.6278
2583.5	19.0119
2584	18.7363
2584.5	17.4695
2585	15.3043
2585.5	13.1291
2586	11.9628
2586.5	12.1673
2587	13.1128
2587.5	13.8966
2588	14.0664
2588.5	14.0152
2589	14.2945
2589.5	15.1912
2590	16.3521
2590.5	17.3813
2591	17.9399
2591.5	18.0443
2592	17.8466
2592.5	17.5912
2593	17.3659
2593.5	17.1411
2594	16.9258
2594.5	16.8954
2595	17.3474
2595.5	18.0789
2596	18.5626
2596.5	18.1821
2597	17.0751
2597.5	15.9332
2598	15.5736
2598.5	15.934
2599	16.4193
2599.5	16.5571
2600	16.4907
2600.5	16.6798
2601	17.0461
2601.5	16.9575
2602	15.9086
2602.5	14.3119
2603	13.1801
2603.5	13.2683
2604	14.3868
2604.5	15.5774
2605	16.1524
2605.5	16.1402
2606	16.1089
2606.5	16.4319
2607	17.0343
2607.5	17.4702
2608	17.5782
2608.5	17.4923
2609	17.5045
2609.5	17.6582
2610	17.6968
2610.5	17.4294
2611	16.9339
2611.5	16.5861
2612	16.6223
2612.5	17.0024
2613	17.292
2613.5	17.2016
2614	16.7066
2614.5	16.2185
2615	16.1359
2615.5	16.7406
2616	17.7866
2616.5	18.7353
2617	18.9946
2617.5	18.5089
2618	17.7304
2618.5	17.4421
2619	17.8183
2619.5	18.1206
2620	17.5257
2620.5	15.9467
2621	14.4515
2621.5	14.1676
2622	15.3657
2622.5	16.8644
2623	17.7089
2623.5	17.6466
2624	17.4796
2624.5	17.7569
2625	18.32
2625.5	18.6239
2626	18.4788
2626.5	18.2023
2627	18.062
2627.5	17.9552
2628	17.6352
2628.5	17.2529
2629	17.3815
2629.5	18.1926
2630	19.2346
2630.5	19.4122
2631	18.418
2631.5	16.776
2632	15.7771
2632.5	16.0693
2633	17.4978
2633.5	18.8
2634	19.2041
2634.5	18.523
2635	17.3354
2635.5	16.1438
2636	15.3914
2636.5	15.2226
2637	15.6961
2637.5	16.4482
2638	17.039
2638.5	17.1418
2639	17.0797
2639.5	17.2148
2640	17.4866
2640.5	17.3758
2641	16.4704
2641.5	15.1646
2642	14.2372
2642.5	14.1135
2643	14.2649
2643.5	14.0954
2644	13.467
2644.5	13.091
2645	13.6238
2645.5	15.1382
2646	17.0251
2646.5	18.5333
2647	19.0176
2647.5	18.3926
2648	16.8949
2648.5	15.4883
2649	15.0624
2649.5	16.1674
2650	17.9894
2650.5	19.3336
2651	19.3975
2651.5	18.5051
2652	17.4889
2652.5	17.0215
2653	16.9941
2653.5	17.0706
2654	17.192
2654.5	17.5217
2655	17.9114
2655.5	17.7543
2656	16.516
2656.5	14.5712
2657	12.8251
2657.5	12.2796
2658	12.901
2658.5	14.2015
2659	15.7232
2659.5	17.2206
2660	18.457
2660.5	18.9921
2661	18.7462
2661.5	17.9685
2662	17.2828
2662.5	17.0078
2663	17.2365
2663.5	17.8065
2664	18.688
2664.5	19.6413
2665	20.1369
2665.5	19.6006
2666	18.2332
2666.5	16.8588
2667	16.3225
2667.5	16.693
2668	17.6429
2668.5	18.8018
2669	19.9298
2669.5	20.6702
2670	20.2976
2670.5	18.5074
2671	15.6857
2671.5	13.4872
2672	12.9575
2672.5	14.3022
2673	16.0153
2673.5	16.8203
2674	16.4562
2674.5	15.9641
2675	16.2594
2675.5	17.3223
2676	18.3161
2676.5	18.5184
2677	18.2401
2677.5	18.0653
2678	18.3056
2678.5	18.5432
2679	18.3647
2679.5	17.851
2680	17.4323
2680.5	17.399
2681	17.6614
2681.5	18.0598
2682	18.65
2682.5	19.4995
2683	20.4711
2683.5	21.0398
2684	20.7689
2684.5	19.5406
2685	17.8444
2685.5	16.4533
2686	16.1745
2686.5	16.9844
2687	18.2325
2687.5	19.1232
2688	19.4782
2688.5	19.566
2689	19.6773
2689.5	19.5986
2690	18.92
2690.5	17.6332
2691	16.1261
2691.5	14.7636
2692	13.5868
2692.5	12.7192
2693	12.7795
2693.5	14.2027
2694	16.7876
2694.5	19.2317
2695	20.4583
2695.5	19.9797
2696	18.5306
2696.5	17.0386
2697	16.2362
2697.5	16.2171
2698	16.8997
2698.5	17.9713
2699	18.9756
2699.5	19.632
2700	19.9435
2700.5	20.0625
2701	20.003
2701.5	19.6293
2702	18.817
2702.5	17.5456
2703	16.071
2703.5	14.6717
2704	13.7064
2704.5	13.375
2705	13.8069
2705.5	14.7172
2706	15.6683
2706.5	16.2646
2707	16.5532
2707.5	16.7451
2708	17.0036
2708.5	17.1455
2709	16.8175
2709.5	15.8804
2710	14.6613
2710.5	13.784
2711	13.6954
2711.5	14.3149
2712	15.277
2712.5	16.1255
2713	16.6818
2713.5	17.0456
2714	17.4263
2714.5	17.9348
2715	18.4395
2715.5	18.6324
2716	18.2019
2716.5	17.549
2717	17.2169
2717.5	17.4994
2718	17.9708
2718.5	18.1732
2719	17.9949
2719.5	17.7212
2720	17.4695
2720.5	17.2239
2721	16.9153
2721.5	16.69
2722	16.5889
2722.5	16.4039
2723	16.1195
2723.5	16.2094
2724	17.2491
2724.5	18.934
2725	19.9547
2725.5	19.4946
2726	17.862
2726.5	16.5235
2727	16.4388
2727.5	17.2475
2728	17.7737
2728.5	17.1563
2729	16.0723
2729.5	15.6782
2730	16.4831
2730.5	17.88
2731	18.7268
2731.5	18.7088
2732	18.3388
2732.5	18.2732
2733	18.6064
2733.5	18.8027
2734	18.4518
2734.5	17.5424
2735	16.3468
2735.5	15.1745
2736	14.2476
2736.5	13.7527
2737	13.7529
2737.5	14.025
2738	14.2298
2738.5	14.3969
2739	14.9472
2739.5	16.272
2740	17.9986
2740.5	19.2186
2741	19.4044
2741.5	18.9154
2742	18.7574
2742.5	19.3454
2743	20.0677
2743.5	20.0202
2744	18.9764
2744.5	17.8979
2745	17.8539
2745.5	18.9162
2746	20.0762
2746.5	19.9341
2747	18.1715
2747.5	15.6912
2748	13.804
2748.5	13.3833
2749	14.2906
2749.5	15.66
2750	16.9069
2750.5	17.9451
2751	18.9694
2751.5	19.9028
2752	20.2608
2752.5	19.6047
2753	18.0225
2753.5	16.309
2754	15.3926
2754.5	15.5637
2755	16.4247
2755.5	17.2163
2756	17.4129
2756.5	17.1489
2757	16.8486
2757.5	16.7931
2758	16.8046
2758.5	16.3683
2759	15.265
2759.5	13.8241
2760	12.7309
2760.5	12.5352
2761	13.0104
2761.5	13.6883
2762	14.353
2762.5	15.2207
2763	16.5451
2763.5	18.0163
2764	19.0517
2764.5	19.3551
2765	19.2559
2765.5	19.3992
2766	19.8912
2766.5	20.2658
2767	19.9825
2767.5	18.9843
2768	17.9063
2768.5	17.3433
2769	17.4624
2769.5	17.9734
2770	18.3479
2770.5	18.2517
2771	17.733
2771.5	17.1921
2772	17.2205
2772.5	18.1791
2773	19.6623
2773.5	20.7616
2774	20.6299
2774.5	19.1707
2775	17.4806
2775.5	16.9237
2776	17.9202
2776.5	19.5275
2777	19.9358
2777.5	18.3023
2778	15.8641
2778.5	14.7574
2779	16.0922
2779.5	18.3857
2780	18.3012
2780.5	14.1523
2781	7.39125
2781.5	1.63361
2782	0
2782.5	1.90805
2783	4.59917
2783.5	5.98766
2784	6.20161
2784.5	7.09234
2785	9.73829
2785.5	13.3078
2786	16.1545
2786.5	17.258
2787	16.9467
2787.5	16.4171
2788	16.4161
2788.5	17.0317
2789	17.9187
2789.5	18.5969
2790	18.763
2790.5	18.431
2791	17.9262
2791.5	17.7004
2792	17.9909
2792.5	18.5169
2793	18.8396
2793.5	18.6932
2794	18.1089
2794.5	17.316
2795	16.6144
2795.5	16.3012
2796	16.6343
2796.5	17.6335
2797	18.8804
2797.5	19.6831
2798	19.659
2798.5	18.8904
2799	17.7614
2799.5	16.672
2800	15.9069
2800.5	15.7314
2801	16.3182
2801.5	17.444
2802	18.2838
2802.5	17.9993
2803	16.6522
2803.5	15.2506
2804	15.0401
2804.5	16.5021
2805	18.6314
2805.5	20.0345
2806	20.0409
2806.5	19.021
2807	17.9042
2807.5	17.2175
2808	16.6621
2808.5	15.7387
2809	14.3935
2809.5	13.2447
2810	13.1406
2810.5	14.2333
2811	15.9209
2811.5	17.3059
2812	17.8435
2812.5	17.7124
2813	17.4633
2813.5	17.2679
2814	16.8642
2814.5	16.0077
2815	15.0265
2815.5	14.6871
2816	15.2954
2816.5	16.3118
2817	16.7723
2817.5	16.1883
2818	15.2377
2818.5	14.9528
2819	15.6726
2819.5	16.7862
2820	17.3043
2820.5	16.8577
2821	16.092
2821.5	15.8415
2822	16.441
2822.5	17.502
2823	18.2468
2823.5	18.2479
2824	17.6646
2824.5	16.9453
2825	16.4515
2825.5	16.283
2826	16.3928
2826.5	16.8171
2827	17.571
2827.5	18.3974
2828	18.7593
2828.5	18.2951
2829	17.4086
2829.5	16.8589
2830	17.0779
2830.5	17.7748
2831	18.241
2831.5	18.1936
2832	17.9335
2832.5	17.759
2833	17.6065
2833.5	17.2813
2834	16.9955
2834.5	17.1934
2835	17.7976
2835.5	18.011
2836	17.0033
2836.5	14.9651
2837	13.4416
2837.5	13.7038
2838	15.6437
2838.5	17.8512
2839	18.7587
2839.5	18.0903
2840	17.0301
2840.5	16.7267
2841	17.3483
2841.5	18.1053
2842	18.1442
2842.5	17.6046
2843	17.2122
2843.5	17.3166
2844	17.5458
2844.5	17.3404
2845	16.8183
2845.5	16.7004
2846	17.2324
2846.5	17.7745
2847	17.4413
2847.5	16.1922
2848	15.2253
2848.5	15.6399
2849	17.3426
2849.5	19.157
2850	19.7978
2850.5	18.8156
2851	17.0126
2851.5	15.5511
2852	15.3037
2852.5	16.4572
2853	18.3943
2853.5	19.9336
2854	20.2183
2854.5	19.271
2855	17.7884
2855.5	16.5199
2856	15.7635
2856.5	15.3858
2857	15.268
2857.5	15.4795
2858	16.041
2858.5	16.7603
2859	17.3588
2859.5	17.7904
2860	18.2812
2860.5	19.0429
2861	20.0298
2861.5	20.8784
2862	21.013
2862.5	20.0624
2863	18.1947
2863.5	16.1378
2864	14.8513
2864.5	14.9192
2865	16.0615
2865.5	17.189
2866	17.4084
2866.5	16.5889
2867	15.3333
2867.5	14.4444
2868	14.3502
2868.5	14.8361
2869	15.5362
2869.5	16.2381
2870	16.8626
2870.5	17.2836
2871	17.2843
2871.5	16.8853
2872	16.3934
2872.5	16.0975
2873	15.9188
2873.5	15.489
2874	14.7109
2874.5	14.2147
2875	14.6754
2875.5	16.0521
2876	17.5254
2876.5	18.2673
2877	18.2604
2877.5	18.2534
2878	18.6399
2878.5	19.1402
2879	19.2861
2879.5	19.0185
2880	18.6514
2880.5	18.2671
2881	17.6038
2881.5	16.628
2882	15.8254
2882.5	15.7359
2883	16.1908
2883.5	16.2454
2884	15.324
2884.5	13.8588
2885	12.8814
2885.5	13.0788
2886	14.2444
2886.5	15.5253
2887	16.2449
2887.5	16.2374
2888	15.7643
2888.5	15.3395
2889	15.44
2889.5	16.0521
2890	16.5093
2890.5	16.2104
2891	15.3207
2891.5	14.7049
2892	14.986
2892.5	15.6716
2893	15.673
2893.5	14.873
2894	14.385
2894.5	15.3543
2895	17.6053
2895.5	19.6116
2896	20.0424
2896.5	19.0725
2897	17.6423
2897.5	16.3837
2898	15.3787
2898.5	14.7518
2899	15.0184
2899.5	16.2847
2900	17.7416
2900.5	18.2649
2901	17.5046
2901.5	16.2082
2902	15.3666
2902.5	15.0138
2903	14.4083
2903.5	13.2292
2904	12.1145
2904.5	12.0783
2905	13.4425
2905.5	15.3759
2906	16.6621
2906.5	16.8825
2907	16.4442
2907.5	15.9298
2908	15.5023
2908.5	14.9808
2909	14.4429
2909.5	14.3681
2910	15.0071
2910.5	15.9155
2911	16.2801
2911.5	15.7789
2912	15.0074
2912.5	14.7785
2913	15.0903
2913.5	15.306
2914	14.9979
2914.5	14.4554
2915	14.3122
2915.5	14.7916
2916	15.4832
2916.5	16.0069
2917	16.3053
2917.5	16.4331
2918	16.2873
2918.5	15.7233
2919	14.9498
2919.5	14.5397
2920	14.9368
2920.5	16.1087
2921	17.5603
2921.5	18.6227
2922	18.7769
2922.5	17.9723
2923	16.7299
2923.5	15.7861
2924	15.6447
2924.5	16.2229
2925	16.8955
2925.5	16.9007
2926	15.926
2926.5	14.419
2927	13.2804
2927.5	13.2704
2928	14.3499
2928.5	15.5367
2929	15.5952
2929.5	14.2974
2930	12.7703
2930.5	12.298
2931	13.1786
2931.5	14.6107
2932	15.6187
2932.5	15.9184
2933	15.8483
2933.5	15.6636
2934	15.4106
2934.5	15.3417
2935	15.9009
2935.5	17.0935
2936	18.0459
2936.5	17.6327
2937	15.9759
2937.5	14.4727
2938	14.5314
2938.5	16.2207
2939	18.193
2939.5	18.9405
2940	18.143
2940.5	16.8638
2941	16.0928
2941.5	15.8957
2942	15.6611
2942.5	14.9948
2943	14.2465
2943.5	14.1246
2944	14.7354
2944.5	15.385
2945	15.3702
2945.5	14.6818
2946	13.9538
2946.5	13.7658
2947	14.0821
2947.5	14.3885
2948	14.3864
2948.5	14.2641
2949	14.3809
2949.5	14.8845
2950	15.6129
2950.5	16.2708
2951	16.6513
2951.5	16.7751
2952	16.7944
2952.5	16.7939
2953	16.6613
2953.5	16.1722
2954	15.2686
2954.5	14.2575
2955	13.6766
2955.5	13.7983
2956	14.4539
2956.5	15.2321
2957	15.7802
2957.5	15.9558
2958	15.8092
2958.5	15.521
2959	15.3179
2959.5	15.2883
2960	15.3023
2960.5	15.1681
2961	14.9049
2961.5	14.8167
2962	15.2167
2962.5	16.0364
2963	16.7156
2963.5	16.6646
2964	15.7316
2964.5	14.3318
2965	13.1778
2965.5	12.8009
2966	13.2187
2966.5	14.0194
2967	14.7986
2967.5	15.4815
2968	16.0793
2968.5	16.3682
2969	16.0123
2969.5	15.0607
2970	14.1421
2970.5	13.9342
2971	14.3213
2971.5	14.5741
2972	14.3057
2972.5	13.9365
2973	14.1746
2973.5	15.178
2974	16.409
2974.5	17.2677
2975	17.6734
2975.5	17.8448
2976	17.8584
2976.5	17.7209
2977	17.6327
2977.5	17.9065
2978	18.5865
2978.5	19.3236
2979	19.7392
2979.5	19.7799
2980	19.4498
2980.5	18.5377
2981	16.8801
2981.5	14.9093
2982	13.6775
2982.5	14.0438
2983	15.7387
2983.5	17.3386
2984	17.6917
2984.5	16.7992
2985	15.5232
2985.5	14.5307
2986	13.7024
2986.5	12.6836
2987	11.8219
2987.5	12.1325
2988	13.8722
2988.5	15.8633
2989	16.4468
2989.5	15.1281
2990	13.0729
2990.5	11.9043
2991	12.1841
2991.5	13.2262
2992	14.1999
2992.5	14.9721
2993	15.6968
2993.5	16.3458
2994	16.8412
2994.5	17.2788
2995	17.6323
2995.5	17.381
2996	15.9471
2996.5	13.8576
2997	12.5301
2997.5	12.8266
2998	14.0713
2998.5	14.8144
2999	14.4716
2999.5	13.8492
3000	13.9501
3000.5	14.5892
3001	14.6473
3001.5	13.6423
3002	12.2627
3002.5	11.5298
3003	11.7659
3003.5	12.4999
3004	13.1679
3004.5	13.6491
3005	14.1182
3005.5	14.5827
3006	14.8
3006.5	14.5925
3007	14.0925
3007.5	13.6655
3008	13.6058
3008.5	13.8904
3009	14.2117
3009.5	14.2585
3010	14.0223
3010.5	13.8003
3011	13.8769
3011.5	14.237
3012	14.5351
3012.5	14.3761
3013	13.7069
3013.5	12.9665
3014	12.7754
3014.5	13.3584
3015	14.2233
3015.5	14.7245
3016	14.7522
3016.5	14.8493
3017	15.6138
3017.5	17.0307
3018	18.4347
3018.5	19.0899
3019	18.7583
3019.5	17.8067
3020	16.8703
3020.5	16.3766
3021	16.2867
3021.5	16.0911
3022	15.2319
3022.5	13.7147
3023	12.2409
3023.5	11.5501
3024	11.6403
3024.5	11.8332
3025	11.7822
3025.5	11.8947
3026	12.5711
3026.5	13.3491
3027	13.1789
3027.5	11.6238
3028	9.53848
3028.5	8.35379
3029	8.79685
3029.5	10.4557
3030	12.4839
3030.5	14.3156
3031	15.5007
3031.5	15.559
3032	14.4191
3032.5	12.8854
3033	12.2105
3033.5	12.9257
3034	14.2222
3034.5	14.7126
3035	13.9901
3035.5	12.995
3036	12.9511
3036.5	14.1647
3037	15.7483
3037.5	16.3769
3038	15.3884
3038.5	13.4048
3039	11.9623
3039.5	12.2881
3040	14.1173
3040.5	15.8659
3041	16.3765
3041.5	16.0079
3042	15.9784
3042.5	16.7385
3043	17.3879
3043.5	16.8591
3044	15.3442
3044.5	14.1591
3045	14.2902
3045.5	15.4788
3046	16.8177
3046.5	17.7703
3047	18.1469
3047.5	17.8071
3048	16.8627
3048.5	15.9429
3049	15.6714
3049.5	15.7837
3050	15.2531
3050.5	13.6072
3051	11.7895
3051.5	11.1274
3052	11.7053
3052.5	12.508
3053	12.8284
3053.5	12.9763
3054	13.4839
3054.5	14.1336
3055	14.195
3055.5	13.3996
3056	12.2057
3056.5	11.1286
3057	10.3155
3057.5	9.97771
3058	10.6363
3058.5	12.4166
3059	14.3919
3059.5	15.1691
3060	14.3022
3060.5	12.8179
3061	12.169
3061.5	12.7907
3062	13.8708
3062.5	14.4376
3063	14.3907
3063.5	14.2665
3064	14.3017
3064.5	14.2102
3065	13.7579
3065.5	13.2501
3066	13.2419
3066.5	13.8323
3067	14.4248
3067.5	14.2712
3068	13.2235
3068.5	11.9435
3069	11.4117
3069.5	12.0384
3070	13.2466
3070.5	13.816
3071	12.8661
3071.5	10.7553
3072	8.94867
3072.5	8.75929
3073	10.1527
3073.5	11.9334
3074	13.109
3074.5	13.7832
3075	14.5271
3075.5	15.2135
3076	15.1442
3076.5	14.3313
3077	13.8854
3077.5	14.8215
3078	16.7718
3078.5	18.2754
3079	18.2724
3079.5	16.956
3080	15.1148
3080.5	13.0579
3081	10.5354
3081.5	7.53119
3082	4.66635
3082.5	2.62465
3083	1.54255
3083.5	1.27998
3084	1.97486
3084.5	3.96581
3085	7.10678
3085.5	10.4155
3086	12.6413
3086.5	13.2102
3087	12.5635
3087.5	11.6405
3088	11.1614
3088.5	11.3486
3089	12.0356
3089.5	12.7853
3090	13.1019
3090.5	12.8086
3091	12.31
3091.5	12.2633
3092	12.8683
3092.5	13.6311
3093	13.9635
3093.5	13.8519
3094	13.6786
3094.5	13.4691
3095	12.7506
3095.5	11.4122
3096	10.4113
3096.5	11.0899
3097	13.4578
3097.5	15.9293
3098	16.7566
3098.5	15.6519
3099	13.8388
3099.5	12.6372
3100	12.2712
3100.5	12.1054
3101	11.7513
3101.5	11.6147
3102	12.3566
3102.5	14.0753
3103	16.1563
3103.5	17.7594
3104	18.277
3104.5	17.578
3105	16.1241
3105.5	14.882
3106	14.6813
3106.5	15.3606
3107	15.8085
3107.5	15.2076
3108	14.1318
3108.5	13.9928
3109	15.3107
3109.5	16.9361
3110	17.2978
3110.5	16.2009
3111	14.9954
3111.5	15.0135
3112	16.2275
3112.5	17.5084
3113	17.8561
3113.5	17.0091
3114	15.2363
3114.5	13.1031
3115	11.4047
3115.5	10.883
3116	11.6917
3116.5	13.1832
3117	14.3848
3117.5	14.7587
3118	14.5245
3118.5	14.309
3119	14.5361
3119.5	15.1141
3120	15.63
3120.5	15.7969
3121	15.7129
3121.5	15.7145
3122	16.0131
3122.5	16.53
3123	16.9753
3123.5	17.004
3124	16.3768
3124.5	15.1581
3125	13.814
3125.5	12.9601
3126	12.8516
3126.5	13.1416
3127	13.2551
3127.5	13.0115
3128	12.7939
3128.5	13.0823
3129	13.8864
3129.5	14.6654
3130	14.7569
3130.5	13.8729
3131	12.3184
3131.5	10.7582
3132	9.84314
3132.5	9.94126
3133	11.0638
3133.5	12.8998
3134	14.8829
3134.5	16.3479
3135	16.8113
3135.5	16.2045
3136	14.8378
3136.5	13.1786
3137	11.73
3137.5	11.01
3138	11.3383
3138.5	12.4525
3139	13.5044
3139.5	13.7638
3140	13.4096
3140.5	13.4291
3141	14.5824
3141.5	16.4507
3142	17.7466
3142.5	17.427
3143	15.5739
3143.5	13.3563
3144	12.1562
3144.5	12.5047
3145	13.6435
3145.5	14.1969
3146	13.4979
3146.5	12.284
3147	11.9057
3147.5	12.8018
3148	13.9898
3148.5	14.2481
3149	13.6121
3149.5	13.3199
3150	14.2106
3150.5	15.5555
3151	15.8491
3151.5	14.6618
3152	13.2535
3152.5	13.1014
3153	14.0428
3153.5	14.4367
3154	13.2375
3154.5	11.3665
3155	10.7184
3155.5	11.9377
3156	13.6477
3156.5	14.0932
3157	13.2093
3157.5	12.5933
3158	13.4468
3158.5	15.07
3159	15.7482
3159.5	14.823
3160	13.3422
3160.5	12.6582
3161	12.9613
3161.5	13.5119
3162	13.8451
3162.5	14.098
3163	14.2773
3163.5	13.9776
3164	13.1699
3164.5	12.7091
3165	13.4282
3165.5	14.9085
3166	15.7797
3166.5	15.3259
3167	14.2916
3167.5	13.7425
3168	13.7781
3168.5	13.7305
3169	13.3284
3169.5	13.1103
3170	13.6654
3170.5	14.8761
3171	16.0918
3171.5	16.7872
3172	16.8352
3172.5	16.3445
3173	15.5262
3173.5	14.7203
3174	14.3176
3174.5	14.4966
3175	15.0603
3175.5	15.5949
3176	15.796
3176.5	15.6516
3177	15.382
3177.5	15.2758
3178	15.5354
3178.5	16.1257
3179	16.6716
3179.5	16.6056
3180	15.63
3180.5	14.0969
3181	12.7791
3181.5	12.1395
3182	11.931
3182.5	11.6595
3183	11.3214
3183.5	11.4072
3184	12.1277
3184.5	12.9576
3185	13.1552
3185.5	12.5917
3186	11.9096
3186.5	11.9198
3187	12.933
3187.5	14.5475
3188	15.8949
3188.5	16.1695
3189	15.2072
3189.5	13.6786
3190	12.5706
3190.5	12.3192
3191	12.4644
3191.5	12.2346
3192	11.4629
3192.5	10.8641
3193	11.3723
3193.5	13.1923
3194	15.5027
3194.5	17.1196
3195	17.4656
3195.5	16.8784
3196	16.0506
3196.5	15.3803
3197	14.9442
3197.5	14.793
3198	14.8835
3198.5	14.8301
3199	14.2423
3199.5	13.4533
3200	13.4047
3200.5	14.4102
3201	15.4211
3201.5	15.1347
3202	13.7217
3202.5	12.7951
3203	13.5051
3203.5	15.2038
3204	16.276
3204.5	15.8234
3205	14.1552
3205.5	12.0926
3206	10.4522
3206.5	9.99599
3207	11.0597
3207.5	12.9657
3208	14.3683
3208.5	14.5384
3209	13.9662
3209.5	13.4674
3210	13.0931
3210.5	12.3651
3211	11.3205
3211.5	10.7098
3212	11.0746
3212.5	12.1159
3213	13.1599
3213.5	13.9128
3214	14.4734
3214.5	14.8121
3215	14.6086
3215.5	13.6754
3216	12.359
3216.5	11.4133
3217	11.474
3217.5	12.6044
3218	14.2551
3218.5	15.6602
3219	16.36
3219.5	16.4249
3220	16.2437
3220.5	16.1736
3221	16.3554
3221.5	16.6653
3222	16.7239
3222.5	16.1514
3223	15.1008
3223.5	14.448
3224	15.0411
3224.5	16.613
3225	17.7878
3225.5	17.4844
3226	16.1099
3226.5	15.0034
3227	14.8287
3227.5	14.9937
3228	14.7094
3228.5	14.0862
3229	13.8307
3229.5	14.2089
3230	14.8008
3230.5	15.1692
3231	15.2767
3231.5	15.1767
3232	14.7476
3232.5	13.9931
3233	13.3067
3233.5	13.099
3234	13.2803
3234.5	13.4059
3235	13.2886
3235.5	13.1791
3236	13.279
3236.5	13.3167
3237	12.7884
3237.5	11.5945
3238	10.3744
3238.5	10.1838
3239	11.6905
3239.5	14.4686
3240	17.0834
3240.5	18.1323
3241	17.3781
3241.5	15.7823
3242	14.4007
3242.5	13.4908
3243	12.8447
3243.5	12.6091
3244	13.1871
3244.5	14.2981
3245	14.7817
3245.5	13.811
3246	12.013
3246.5	10.8965
3247	11.1879
3247.5	12.1666
3248	12.7411
3248.5	12.7309
3249	12.761
3249.5	13.2035
3250	13.7201
3250.5	13.8119
3251	13.3782
3251.5	12.637
3252	11.8932
3252.5	11.5797
3253	12.1327
3253.5	13.4344
3254	14.628
3254.5	14.9743
3255	14.8095
3255.5	15.1212
3256	16.0986
3256.5	16.6931
3257	16.0013
3257.5	14.6591
3258	14.2424
3258.5	15.3764
3259	17.015
3259.5	17.6796
3260	16.9873
3260.5	15.7472
3261	14.8945
3261.5	14.681
3262	14.7641
3262.5	14.7172
3263	14.367
3263.5	13.8325
3264	13.3598
3264.5	13.069
3265	12.8282
3265.5	12.4269
3266	11.8868
3266.5	11.5343
3267	11.7227
3267.5	12.5048
3268	13.5929
3268.5	14.5883
3269	15.2022
3269.5	15.2998
3270	14.8745
3270.5	14.102
3271	13.392
3271.5	13.2084
3272	13.686
3272.5	14.4261
3273	14.7542
3273.5	14.2331
3274	12.9804
3274.5	11.6051
3275	10.8599
3275.5	11.1461
3276	12.1441
3276.5	13.0263
3277	13.2793
3277.5	13.268
3278	13.7198
3278.5	14.728
3279	15.7009
3279.5	16.3603
3280	17.2011
3280.5	18.5611
3281	19.7189
3281.5	19.6198
3282	18.3773
3282.5	17.2896
3283	17.2695
3283.5	17.8175
3284	17.7981
3284.5	16.7842
3285	15.334
3285.5	14.2174
3286	13.8025
3286.5	13.9646
3287	14.275
3287.5	14.3658
3288	14.294
3288.5	14.4149
3289	14.7856
3289.5	14.9848
3290	14.7716
3290.5	14.5704
3291	14.8109
3291.5	14.994
3292	14.0993
3292.5	12.0677
3293	10.299
3293.5	10.2844
3294	12.051
3294.5	14.3062
3295	15.8472
3295.5	16.3905
3296	16.1967
3296.5	15.5228
3297	14.6769
3297.5	14.1784
3298	14.4127
3298.5	15.1795
3299	15.856
3299.5	16.0117
3300	15.6674
3300.5	14.9873
3301	14.049
3301.5	13.1204
3302	12.8839
3302.5	13.9113
3303	15.8103
3303.5	17.2049
3304	16.9149
3304.5	15.1612
3305	13.3685
3305.5	12.6857
3306	12.9036
3306.5	13.0051
3307	12.6021
3307.5	12.4342
3308	13.3518
3308.5	15.166
3309	16.8451
3309.5	17.6637
3310	17.7022
3310.5	17.2325
3311	16.2349
3311.5	14.8917
3312	14.0347
3312.5	14.3399
3313	15.1937
3313.5	15.2052
3314	14.1268
3314.5	13.5073
3315	14.7455
3315.5	17.0248
3316	18.1982
3316.5	17.3936
3317	15.8811
3317.5	15.2494
3318	15.5713
3318.5	15.8206
3319	15.4676
3319.5	14.9161
3320	14.6634
3320.5	14.7382
3321	14.9666
3321.5	15.2293
3322	15.3062
3322.5	14.911
3323	14.1668
3323.5	13.7935
3324	14.4792
3324.5	16.0438
3325	17.3834
3325.5	17.3536
3326	15.8152
3326.5	13.9377
3327	13.2414
3327.5	14.2479
3328	16.0306
3328.5	17.2223
3329	17.4105
3329.5	17.3185
3330	17.6734
3330.5	18.2878
3331	18.408
3331.5	17.629
3332	16.1879
3332.5	14.6005
3333	13.3502
3333.5	12.7888
3334	12.9373
3334.5	13.3506
3335	13.471
3335.5	13.1894
3336	12.8659
3336.5	12.8139
3337	13.0326
3337.5	13.4431
3338	13.9745
3338.5	14.3441
3339	14.1587
3339.5	13.4994
3340	13.1306
3340.5	13.7904
3341	15.3596
3341.5	16.9546
3342	17.7393
3342.5	17.4558
3343	16.3732
3343.5	15.101
3344	14.3635
3344.5	14.4531
3345	14.7788
3345.5	14.4292
3346	13.5309
3346.5	13.4352
3347	15.1109
3347.5	17.6633
3348	19.1371
3348.5	18.8018
3349	17.9263
3349.5	17.9663
3350	18.6712
3350.5	18.7254
3351	17.8884
3351.5	17.4349
3352	18.2354
3352.5	19.3487
3353	19.2703
3353.5	18.0602
3354	17.2951
3354.5	17.8489
3355	18.8367
3355.5	18.9648
3356	18.1354
3356.5	17.2128
3357	16.7385
3357.5	16.5002
3358	16.216
3358.5	16.0816
3359	16.513
3359.5	17.6806
3360	19.4479
3360.5	21.5252
3361	23.4943
3361.5	24.8626
3362	25.4308
3362.5	25.6217
3363	26.1344
3363.5	27.2083
3364	28.372
3364.5	29.0987
3365	29.5544
3365.5	30.3751
3366	31.7255
3366.5	32.9872
3367	33.5784
3367.5	33.7438
3368	34.182
3368.5	35.0882
3369	35.9571
3369.5	36.2681
3370	35.9741
3370.5	35.3471
3371	34.8063
3371.5	34.8196
3372	35.4988
3372.5	36.2503
3373	36.3092
3373.5	35.7465
3374	35.4514
3374.5	35.8918
3375	36.4058
3375.5	36.116
3376	35.0952
3376.5	34.0488
3377	33.1036
3377.5	31.7594
3378	29.9248
3378.5	28.3251
3379	27.7087
3379.5	28.0713
3380	28.866
3380.5	29.6385
3381	30.1651
3381.5	30.1773
3382	29.3393
3382.5	27.604
3383	25.4595
3383.5	23.6895
3384	22.8652
3384.5	23.0986
3385	24.0552
3385.5	25.0552
3386	25.2875
3386.5	24.3631
3387	22.9145
3387.5	22.314
3388	23.2865
3388.5	24.8651
3389	25.2278
3389.5	23.7355
3390	21.5654
3390.5	20.1392
3391	19.8145
3391.5	20.2054
3392	21.0402
3392.5	22.1252
3393	22.9834
3393.5	23.2719
3394	23.3144
3394.5	23.5895
3395	23.8444
3395.5	23.3436
3396	21.9912
3396.5	20.3975
3397	19.0369
3397.5	18.035
3398	17.7719
3398.5	18.8167
3399	20.8277
3399.5	22.1602
3400	21.3151
3400.5	18.6831
3401	16.3874
3401.5	16.2917
3402	18.3913
3402.5	21.257
3403	23.3004
3403.5	23.643
3404	22.2791
3404.5	19.8911
3405	17.5318
3405.5	16.1701
3406	16.1884
3406.5	17.0784
3407	17.6
3407.5	16.6539
3408	14.2933
3408.5	11.8934
3409	11.0568
3409.5	12.1479
3410	14.0538
3410.5	15.4691
3411	16.1366
3411.5	16.6094
3412	17.1551
3412.5	17.4495
3413	17.3307
3413.5	17.1575
3414	17.2674
3414.5	17.5568
3415	17.7736
3415.5	17.8523
3416	17.7573
3416.5	17.3545
3417	16.6977
3417.5	16.1135
3418	15.6845
3418.5	15.0222
3419	13.9482
3419.5	13.0125
3420	12.9322
3420.5	13.7128
3421	14.6845
3421.5	15.2279
3422	15.14
3422.5	14.5559
3423	14.029
3423.5	14.4328
3424	16.1354
3424.5	18.321
3425	19.6013
3425.5	19.3842
3426	18.3005
3426.5	17.341
3427	17.0148
3427.5	17.298
3428	17.7756
3428.5	17.7066
3429	16.6102
3429.5	15.0108
3430	14.1312
3430.5	14.5426
3431	15.6207
3431.5	16.6368
3432	17.8306
3432.5	19.7443
3433	21.7322
3433.5	22.1768
3434	20.3524
3434.5	17.3904
3435	15.1913
3435.5	14.6452
3436	15.1508
3436.5	15.6535
3437	15.7813
3437.5	15.8956
3438	16.2753
3438.5	16.6724
3439	16.77
3439.5	16.7052
3440	16.842
3440.5	17.1576
3441	17.2492
3441.5	16.9866
3442	16.7412
3442.5	16.7526
3443	16.7315
3443.5	16.4498
3444	16.2448
3444.5	16.5517
3445	17.2185
3445.5	17.7053
3446	17.7454
3446.5	17.3876
3447	16.6777
3447.5	15.8907
3448	15.7747
3448.5	16.7935
3449	18.2059
3449.5	18.6958
3450	18.0156
3450.5	17.2103
3451	16.9586
3451.5	16.5564
3452	15.3062
3452.5	13.8397
3453	13.2324
3453.5	13.4717
3454	13.7421
3454.5	13.8798
3455	14.4593
3455.5	15.4274
3456	15.8102
3456.5	15.2229
3457	14.3997
3457.5	13.8975
3458	13.3027
3458.5	12.4344
3459	12.3834
3459.5	14.1377
3460	16.5475
3460.5	17.4142
3461	16.4223
3461.5	15.3651
3462	15.4791
3462.5	15.8997
3463	15.3975
3463.5	14.4547
3464	14.4871
3464.5	15.4556
3465	16.0168
3465.5	15.4997
3466	14.6368
3466.5	14.2964
3467	14.3678
3467.5	14.29
3468	14.0912
3468.5	14.3469
3469	15.1688
3469.5	15.7944
3470	15.3162
3470.5	13.7706
3471	12.2537
3471.5	11.7624
3472	12.1052
3472.5	12.2873
3473	11.959
3473.5	11.7011
3474	12.0808
3474.5	12.9325
3475	13.6775
3475.5	13.9539
3476	13.8031
3476.5	13.606
3477	13.8368
3477.5	14.5987
3478	15.3104
3478.5	15.269
3479	14.6011
3479.5	14.1898
3480	14.4271
3480.5	14.535
3481	13.7079
3481.5	12.3122
3482	11.5396
3482.5	11.9913
3483	13.0427
3483.5	13.7116
3484	13.8851
3484.5	14.2673
3485	15.2368
3485.5	16.2568
3486	16.456
3486.5	15.5738
3487	14.174
3487.5	13.1222
3488	12.9586
3488.5	13.6347
3489	14.5021
3489.5	14.6808
3490	13.8156
3490.5	12.4466
3491	11.4555
3491.5	11.2381
3492	11.6834
3492.5	12.6025
3493	13.719
3493.5	14.6522
3494	15.3333
3494.5	16.095
3495	16.8706
3495.5	16.8908
3496	15.9059
3496.5	14.9362
3497	14.9581
3497.5	15.3538
3498	14.7732
3498.5	13.276
3499	12.2744
3499.5	12.2343
3500	12.2823
3500.5	11.8446
3501	11.3804
3501.5	11.2865
3502	11.3876
3502.5	11.9578
3503	13.7646
3503.5	16.505
3504	18.4846
3504.5	18.5461
3505	17.3722
3505.5	16.3482
3506	15.8805
3506.5	15.6995
3507	15.7427
3507.5	16.0172
3508	16.2634
3508.5	16.3112
3509	16.2795
3509.5	16.0205
3510	15.0886
3510.5	13.6447
3511	12.7152
3511.5	13.0739
3512	14.2658
3512.5	15.1375
3513	15.1435
3513.5	14.5548
3514	13.8025
3514.5	12.9922
3515	12.0639
3515.5	11.3608
3516	11.7042
3516.5	13.3272
3517	14.9993
3517.5	15.0593
3518	13.6314
3518.5	12.8396
3519	14.0702
3519.5	15.857
3520	16.1606
3520.5	15.1586
3521	14.6866
3521.5	15.5415
3522	16.6191
3522.5	16.6019
3523	15.3799
3523.5	13.6465
3524	12.2904
3524.5	11.9456
3525	12.3784
3525.5	12.5562
3526	12.1092
3526.5	11.9685
3527	12.8557
3527.5	13.9982
3528	14.2498
3528.5	13.8694
3529	13.9858
3529.5	14.668
3530	15.1465
3530.5	15.2966
3531	15.5874
3531.5	15.7209
3532	14.713
3532.5	12.7733
3533	11.5902
3533.5	12.562
3534	15.3345
3534.5	18.2482
3535	19.6827
3535.5	19.2088
3536	17.6118
3536.5	16.3402
3537	16.2799
3537.5	16.8638
3538	16.6835
3538.5	15.2502
3539	13.3889
3539.5	12.1181
3540	11.7866
3540.5	12.2873
3541	13.4566
3541.5	14.8545
3542	15.7992
3542.5	15.8573
3543	15.0344
3543.5	13.401
3544	11.1285
3544.5	9.25445
3545	9.27584
3545.5	11.4306
3546	13.9355
3546.5	14.8032
3547	14.1403
3547.5	13.7734
3548	14.4476
3548.5	15.1684
3549	14.9225
3549.5	13.9973
3550	13.3292
3550.5	13.2123
3551	13.2732
3551.5	13.1088
3552	12.6643
3552.5	12.2956
3553	12.4036
3553.5	12.7229
3554	12.6257
3554.5	12.3123
3555	12.8758
3555.5	14.4695
3556	15.3333
3556.5	14.3119
3557	12.9816
3557.5	13.5993
3558	15.7368
3558.5	16.701
3559	15.4242
3559.5	13.7559
3560	13.492
3560.5	14.4781
3561	15.5609
3561.5	15.8667
3562	14.9388
3562.5	12.984
3563	11.375
3563.5	11.5464
3564	13.0281
3564.5	13.7287
3565	12.8158
3565.5	11.591
3566	11.4728
3566.5	12.3804
3567	13.3357
3567.5	13.7484
3568	13.6464
3568.5	13.3134
3569	13.138
3569.5	13.3176
3570	13.6318
3570.5	13.8074
3571	13.839
3571.5	13.6529
3572	13.0873
3572.5	12.5619
3573	12.9867
3573.5	14.3059
3574	15.2138
3574.5	14.7931
3575	13.7643
3575.5	13.4455
3576	13.894
3576.5	14.2904
3577	14.1746
3577.5	13.64
3578	12.8987
3578.5	12.3535
3579	12.4911
3579.5	13.1635
3580	13.5388
3580.5	13.2926
3581	13.2481
3581.5	13.915
3582	14.4601
3582.5	14.0157
3583	13.2868
3583.5	13.6975
3584	14.9151
3584.5	15.1875
3585	13.7061
3585.5	11.4881
3586	9.86557
3586.5	9.16356
3587	9.44596
3587.5	10.8732
3588	12.7829
3588.5	13.7623
3589	13.7012
3589.5	14.2385
3590	16.2719
3590.5	18.4307
3591	18.798
3591.5	17.3669
3592	15.4269
3592.5	13.589
3593	11.9917
3593.5	11.2829
3594	12.0093
3594.5	13.3819
3595	14.1824
3595.5	14.211
3596	14.2353
3596.5	14.7255
3597	15.2251
3597.5	14.9551
3598	13.5112
3598.5	11.4235
3599	10.2142
3599.5	11.0775
3600	13.6457
3600.5	16.4221
3601	18.2457
3601.5	18.7692
3602	17.8289
3602.5	15.3385
3603	12.3231
3603.5	10.8105
3604	11.8469
3604.5	13.7757
3605	14.2634
3605.5	13.0175
3606	12.1586
3606.5	13.4108
3607	15.4533
3607.5	15.875
3608	14.2617
3608.5	12.4348
3609	11.7632
3609.5	11.7443
3610	11.8889
3610.5	12.6549
3611	14.0537
3611.5	14.7969
3612	14.2063
3612.5	13.36
3613	13.5232
3613.5	14.3103
3614	14.2364
3614.5	12.8555
3615	11.2491
3615.5	10.8458
3616	11.8297
3616.5	12.4674
3617	11.2483
3617.5	9.20429
3618	9.2488
3618.5	12.4883
3619	16.0298
3619.5	16.8398
3620	15.0178
3620.5	12.9167
3621	12.1204
3621.5	12.5141
3622	13.5141
3622.5	14.2321
3623	13.5547
3623.5	11.7616
3624	10.9115
3624.5	12.364
3625	14.8356
3625.5	15.819
3626	14.8937
3626.5	13.6356
3627	13.2676
3627.5	13.568
3628	13.7646
3628.5	13.5975
3629	13.2328
3629.5	12.9049
3630	12.775
3630.5	12.7833
3631	12.7589
3631.5	12.7573
3632	12.982
3632.5	13.2475
3633	13.1113
3633.5	12.8228
3634	13.2912
3634.5	14.643
3635	15.4548
3635.5	14.6695
3636	13.2037
3636.5	12.6965
3637	13.1664
3637.5	13.1705
3638	12.286
3638.5	11.459
3639	11.3004
3639.5	11.3337
3640	11.2866
3640.5	11.5503
3641	12.1178
3641.5	12.3116
3642	12.0826
3642.5	12.3031
3643	13.4761
3643.5	14.959
3644	15.7591
3644.5	15.5991
3645	14.774
3645.5	13.7261
3646	12.9305
3646.5	12.8192
3647	13.7013
3647.5	15.5247
3648	17.4192
3648.5	17.816
3649	15.9163
3649.5	12.7246
3650	10.2838
3650.5	9.69078
3651	10.406
3651.5	11.6446
3652	12.9672
3652.5	13.795
3653	13.5345
3653.5	12.4448
3654	11.707
3654.5	12.1704
3655	13.0878
3655.5	13.093
3656	11.9511
3656.5	10.9715
3657	11.4189
3657.5	12.8475
3658	13.9815
3658.5	14.309
3659	14.1724
3659.5	13.5887
3660	12.3753
3660.5	11.3655
3661	11.9982
3661.5	13.9021
3662	15.0679
3662.5	14.3744
3663	12.8843
3663.5	12.0066
3664	11.4934
3664.5	10.5208
3665	9.41789
3665.5	9.33353
3666	10.4144
3666.5	11.5511
3667	11.6276
3667.5	10.7616
3668	10.1145
3668.5	10.5031
3669	11.6628
3669.5	12.6827
3670	13.1453
3670.5	13.2924
3671	13.336
3671.5	13.2379
3672	13.1929
3672.5	13.6164
3673	14.515
3673.5	15.2679
3674	15.2688
3674.5	14.4256
3675	13.0981
3675.5	12.0298
3676	11.9511
3676.5	12.8094
3677	13.6982
3677.5	13.8374
3678	13.418
3678.5	12.7862
3679	11.7965
3679.5	10.631
3680	10.336
3680.5	11.2935
3681	12.2409
3681.5	11.7688
3682	10.5159
3682.5	10.1764
3683	11.35
3683.5	13.3401
3684	15.0787
3684.5	15.4539
3685	13.6476
3685.5	10.6378
3686	9.22589
3686.5	10.5235
3687	12.4835
3687.5	12.7194
3688	12.0838
3688.5	12.6938
3689	14.3105
3689.5	14.6885
3690	13.2692
3690.5	11.9127
3691	12.24
3691.5	13.7842
3692	14.8239
3692.5	14.6847
3693	14.0625
3693.5	13.8066
3694	13.6544
3694.5	12.9609
3695	12.0128
3695.5	11.8341
3696	12.4257
3696.5	12.7625
3697	12.4533
3697.5	12.3673
3698	13.0138
3698.5	13.7186
3699	13.7958
3699.5	13.4963
3700	13.2626
