#Imported=	16.12.2021 13:55:30
50	9.96673
50.5	10.0635
51	10.1453
51.5	10.3379
52	10.7173
52.5	11.3008
53	11.9253
53.5	12.3815
54	12.4238
54.5	12.0304
55	11.2468
55.5	10.246
56	9.3914
56.5	8.95111
57	9.09187
57.5	9.60709
58	10.2814
58.5	10.8203
59	11.0747
59.5	11.1313
60	11.3579
60.5	12.0745
61	13.4621
61.5	15.6146
62	18.1378
62.5	20.5944
63	22.5253
63.5	23.9118
64	24.8981
64.5	25.7585
65	26.815
65.5	28.2452
66	30.0293
66.5	31.9469
67	33.8729
67.5	35.7604
68	37.6569
68.5	39.6235
69	41.6299
69.5	43.4983
70	45.0625
70.5	46.17
71	46.9323
71.5	47.5884
72	48.5484
72.5	49.9731
73	51.7326
73.5	53.4765
74	54.7241
74.5	55.1462
75	54.4595
75.5	53.0571
76	51.5355
76.5	50.4433
77	50.1208
77.5	50.58
78	51.6917
78.5	53.0112
79	54.1376
79.5	54.8408
80	55.0728
80.5	54.9163
81	54.4148
81.5	53.6138
82	52.5485
82.5	51.2077
83	49.6465
83.5	48.0049
84	46.4779
84.5	45.3333
85	44.7506
85.5	44.7891
86	45.3277
86.5	46.0834
87	46.7713
87.5	47.0883
88	46.8906
88.5	46.2108
89	45.2654
89.5	44.3049
90	43.4891
90.5	42.8757
91	42.3579
91.5	41.7792
92	41.0566
92.5	40.2982
93	39.7174
93.5	39.6282
94	40.1551
94.5	41.357
95	42.9664
95.5	44.519
96	45.6867
96.5	46.1959
97	46.1314
97.5	45.6323
98	44.9563
98.5	44.3807
99	44.0045
99.5	43.8801
100	43.9453
100.5	44.1756
101	44.5889
101.5	45.1682
102	45.9067
102.5	46.8282
103	47.907
103.5	49.1617
104	50.6684
104.5	52.4265
105	54.3993
105.5	56.4807
106	58.4858
106.5	60.2636
107	61.6138
107.5	62.5445
108	63.0978
108.5	63.4102
109	63.707
109.5	64.1558
110	64.9909
110.5	66.2953
111	68.1305
111.5	70.4819
112	73.0286
112.5	75.527
113	77.7197
113.5	79.5549
114	81.1188
114.5	82.6536
115	84.4646
115.5	86.6742
116	89.3583
116.5	92.4112
117	95.7721
117.5	99.5305
118	103.818
118.5	108.7
119	114.242
119.5	120.308
120	126.814
120.5	133.95
121	142.145
121.5	152.108
122	164.88
122.5	181.009
123	200.847
123.5	225.664
124	256.416
124.5	294.418
125	342.383
125.5	399.691
126	463.531
126.5	529.324
127	589.236
127.5	635.776
128	658.079
128.5	651.138
129	619.793
129.5	567.361
130	502.266
130.5	433.762
131	368.94
131.5	313.43
132	267.765
132.5	231.368
133	202.778
133.5	179.725
134	161.498
134.5	147.462
135	136.701
135.5	128.635
136	122.612
136.5	117.988
137	114.663
137.5	112.666
138	111.774
138.5	111.798
139	112.059
139.5	111.918
140	111.012
140.5	109.31
141	107.315
141.5	105.614
142	104.945
142.5	105.294
143	106.381
143.5	107.698
144	108.706
144.5	109.095
145	108.721
145.5	107.873
146	106.831
146.5	105.788
147	104.777
147.5	103.74
148	102.573
148.5	101.262
149	99.8673
149.5	98.5576
150	97.4367
150.5	96.5355
151	95.8231
151.5	95.1429
152	94.3732
152.5	93.3699
153	92.1793
153.5	90.8691
154	89.509
154.5	88.1563
155	86.8186
155.5	85.4797
156	84.1391
156.5	82.8509
157	81.7645
157.5	80.9969
158	80.6551
158.5	80.9064
159	81.6957
159.5	82.991
160	84.7352
160.5	86.6995
161	88.7142
161.5	90.5641
162	92.0807
162.5	93.157
163	93.6542
163.5	93.6617
164	93.3334
164.5	92.7424
165	92.0052
165.5	91.2081
166	90.4745
166.5	90.004
167	90.0438
167.5	90.8618
168	92.4141
168.5	94.4511
169	96.5671
169.5	98.2298
170	99.0961
170.5	98.9103
171	98.1605
171.5	97.4434
172	97.3768
172.5	98.3343
173	100.297
173.5	103.125
174	106.369
174.5	109.614
175	112.674
175.5	115.549
176	118.314
176.5	120.99
177	123.515
177.5	125.76
178	127.56
178.5	128.933
179	130.071
179.5	131.203
180	132.599
180.5	134.4
181	136.693
181.5	139.464
182	142.533
182.5	145.849
183	149.399
183.5	153.16
184	157.144
184.5	161.332
185	165.648
185.5	170.052
186	174.573
186.5	179.286
187	184.331
187.5	189.882
188	195.936
188.5	202.494
189	209.499
189.5	216.741
190	224.195
190.5	231.962
191	240.153
191.5	248.949
192	258.584
192.5	268.972
193	279.96
193.5	291.332
194	302.836
194.5	314.402
195	326.113
195.5	338.12
196	350.626
196.5	363.923
197	377.801
197.5	392.092
198	406.548
198.5	420.869
199	434.867
199.5	448.325
200	461.27
200.5	473.727
201	485.667
201.5	497.186
202	508.258
202.5	518.662
203	528.259
203.5	536.733
204	543.152
204.5	547.456
205	549.506
205.5	549.017
206	546.682
206.5	543.03
207	538.448
207.5	533.366
208	527.808
208.5	521.492
209	514.306
209.5	506.266
210	497.449
210.5	488.206
211	478.722
211.5	468.79
212	457.966
212.5	445.845
213	432.005
213.5	416.827
214	401.036
214.5	385.613
215	371.461
215.5	358.9
216	347.613
216.5	336.639
217	325.185
217.5	312.712
218	299.372
218.5	285.815
219	273.033
219.5	261.991
220	252.785
220.5	245.416
221	239.342
221.5	233.928
222	228.76
222.5	223.54
223	218.154
223.5	212.538
224	206.638
224.5	200.425
225	193.882
225.5	187.142
226	180.473
226.5	174.222
227	168.766
227.5	164.147
228	160.267
228.5	156.863
229	153.6
229.5	150.289
230	146.884
230.5	143.506
231	140.387
231.5	137.72
232	135.44
232.5	133.411
233	131.378
233.5	129.118
234	126.505
234.5	123.541
235	120.445
235.5	117.434
236	114.666
236.5	112.095
237	109.613
237.5	107.065
238	104.396
238.5	101.703
239	99.3525
239.5	97.6817
240	96.8975
240.5	97.0557
241	97.6509
241.5	98.1686
242	97.9042
242.5	96.6061
243	94.2567
243.5	91.3643
244	88.7786
244.5	87.0547
245	86.6936
245.5	87.3104
246	88.4253
246.5	89.2535
247	89.1456
247.5	87.8765
248	85.5687
248.5	82.9409
249	80.5545
249.5	79.05
250	78.5303
250.5	78.903
251	79.9234
251.5	81.0017
252	81.772
252.5	81.9312
253	81.507
253.5	80.5954
254	79.325
254.5	77.9716
255	76.7674
255.5	76.0564
256	75.9774
256.5	76.5929
257	77.9633
257.5	79.8313
258	81.9142
258.5	83.8979
259	85.5633
259.5	86.9161
260	88.2648
260.5	90.123
261	92.9471
261.5	97.3033
262	103.231
262.5	110.417
263	118.335
263.5	125.897
264	132.028
264.5	135.578
265	136.053
265.5	133.574
266	128.189
266.5	120.707
267	112.071
267.5	102.964
268	94.0141
268.5	85.5009
269	77.6859
269.5	70.8446
270	65.2093
270.5	61.2359
271	59.115
271.5	58.5294
272	59.0732
272.5	59.805
273	60.0288
273.5	59.3639
274	57.8562
274.5	55.955
275	54.1087
275.5	52.7047
276	51.79
276.5	51.2106
277	50.6729
277.5	50.0108
278	49.2067
278.5	48.3633
279	47.6155
279.5	47.0593
280	46.7399
280.5	46.6099
281	46.6347
281.5	46.7771
282	46.9616
282.5	47.0984
283	47.0505
283.5	46.7516
284	46.1727
284.5	45.361
285	44.4954
285.5	43.72
286	43.1662
286.5	42.874
287	42.9203
287.5	43.4759
288	44.5668
288.5	46.2259
289	48.3684
289.5	50.5083
290	52.1727
290.5	52.7857
291	52.3559
291.5	51.0317
292	49.176
292.5	47.4205
293	46.1433
293.5	45.6503
294	45.6022
294.5	45.659
295	45.4417
295.5	44.8118
296	43.7867
296.5	42.495
297	41.2179
297.5	40.153
298	39.5443
298.5	39.3614
299	39.5396
299.5	39.9734
300	40.4153
300.5	40.6516
301	40.425
301.5	39.7169
302	38.6457
302.5	37.5354
303	36.825
303.5	36.7676
304	37.5349
304.5	38.8564
305	40.3711
305.5	41.655
306	42.4333
306.5	42.6649
307	42.4227
307.5	42.0081
308	41.5698
308.5	41.1264
309	40.6173
309.5	40.0038
310	39.3318
310.5	38.78
311	38.5458
311.5	38.854
312	39.6111
312.5	40.589
313	41.5365
313.5	42.2401
314	42.6373
314.5	42.7167
315	42.547
315.5	42.1856
316	41.5988
316.5	40.8209
317	39.9734
317.5	39.2514
318	38.8742
318.5	38.9092
319	39.3162
319.5	39.8443
320	40.1899
320.5	40.0954
321	39.5698
321.5	38.8739
322	38.2741
322.5	37.9982
323	38.0636
323.5	38.4067
324	38.8808
324.5	39.3563
325	39.799
325.5	40.2413
326	40.7093
326.5	41.1834
327	41.6012
327.5	41.9162
328	42.0987
328.5	42.1334
329	42.0297
329.5	41.7322
330	41.1071
330.5	40.1785
331	39.0289
331.5	37.9136
332	37.1508
332.5	37.0132
333	37.7078
333.5	38.9698
334	40.4644
334.5	41.6226
335	42.0857
335.5	41.755
336	40.7128
336.5	39.4497
337	38.3562
337.5	37.868
338	38.019
338.5	38.7108
339	39.6851
339.5	40.5297
340	41.0584
340.5	41.2307
341	41.299
341.5	41.4826
342	41.9951
342.5	42.7651
343	43.617
343.5	44.2579
344	44.5506
344.5	44.5884
345	44.686
345.5	45.1375
346	46.041
346.5	47.3031
347	48.5425
347.5	49.4752
348	49.9702
348.5	50.3759
349	51.2609
349.5	53.3467
350	56.7524
350.5	61.339
351	67.0323
351.5	73.6938
352	81.6104
352.5	91.783
353	104.771
353.5	120.577
354	138.274
354.5	154.963
355	167.827
355.5	173.37
356	170.504
356.5	160.038
357	143.223
357.5	123.553
358	104.128
358.5	87.534
359	74.9036
359.5	65.582
360	59.0949
360.5	54.5114
361	51.1453
361.5	48.7884
362	47.1791
362.5	45.9908
363	44.8987
363.5	43.5715
364	41.952
364.5	40.2585
365	38.8609
365.5	37.9749
366	37.6698
366.5	37.7544
367	37.9388
367.5	38.0779
368	38.2378
368.5	38.6501
369	39.5647
369.5	40.9493
370	42.4448
370.5	43.6067
371	43.9987
371.5	43.5861
372	42.4928
372.5	41.0862
373	39.7863
373.5	38.8374
374	38.326
374.5	38.0649
375	37.963
375.5	38.0092
376	38.232
376.5	38.6852
377	39.3588
377.5	40.0863
378	40.6744
378.5	40.8927
379	40.7237
379.5	40.2849
380	39.8377
380.5	39.6385
381	39.8406
381.5	40.5058
382	41.4047
382.5	42.2995
383	42.8664
383.5	42.9819
384	42.639
384.5	42.0314
385	41.5727
385.5	41.5741
386	42.3975
386.5	43.93
387	45.9947
387.5	48.2571
388	50.2833
388.5	51.8403
389	52.8827
389.5	53.9825
390	55.9446
390.5	60.1448
391	67.1102
391.5	77.053
392	89.8667
392.5	103.752
393	116.893
393.5	126.664
394	131.744
394.5	131.527
395	125.732
395.5	116.859
396	106.799
396.5	97.2947
397	89.3151
397.5	82.9758
398	78.0526
398.5	73.767
399	69.6664
399.5	65.7196
400	62.2997
400.5	59.8887
401	58.9807
401.5	59.4441
402	60.8389
402.5	62.5891
403	63.9709
403.5	64.5193
404	63.8455
404.5	62.0216
405	59.3481
405.5	56.1334
406	52.8833
406.5	49.971
407	47.7417
407.5	46.3479
408	45.7276
408.5	45.7998
409	46.2691
409.5	46.8108
410	47.168
410.5	47.2069
411	46.9814
411.5	46.6361
412	46.3479
412.5	46.1874
413	46.1381
413.5	46.102
414	45.9888
414.5	45.7615
415	45.4675
415.5	45.2099
416	45.0968
416.5	45.2255
417	45.6168
417.5	46.3019
418	47.289
418.5	48.4639
419	49.6391
419.5	50.4686
420	50.6795
420.5	50.0662
421	48.6758
421.5	47.0077
422	45.6172
422.5	45.1256
423	45.4661
423.5	46.3372
424	47.1818
424.5	47.6015
425	47.5595
425.5	47.4267
426	47.7564
426.5	48.91
427	50.9267
427.5	53.1636
428	54.9222
428.5	55.5682
429	55.3587
429.5	54.7697
430	54.5237
430.5	54.9969
431	56.182
431.5	57.7169
432	58.987
432.5	59.6329
433	59.4538
433.5	58.8452
434	58.1845
434.5	57.8689
435	57.9697
435.5	58.45
436	59.2425
436.5	60.1727
437	61.1474
437.5	62.0769
438	62.9122
438.5	63.6483
439	64.3373
439.5	65.1037
440	66.0506
440.5	67.25
441	68.6379
441.5	70.173
442	71.921
442.5	74.0032
443	76.5853
443.5	79.9001
444	83.8453
444.5	88.2015
445	92.6786
445.5	97.013
446	101.204
446.5	105.55
447	110.485
447.5	116.36
448	123.575
448.5	132.033
449	141.405
449.5	151.247
450	160.861
450.5	169.699
451	177.282
451.5	183.775
452	189.927
452.5	196.999
453	206.273
453.5	218.461
454	234.297
454.5	253.602
455	275.853
455.5	301.377
456	330.769
456.5	364.832
457	405.648
457.5	454.867
458	513.018
458.5	581.435
459	660.858
459.5	751.301
460	855.491
460.5	975.875
461	1112.04
461.5	1264.55
462	1429.8
462.5	1599.26
463	1762.14
463.5	1903.43
464	2011.46
464.5	2072.57
465	2078.51
465.5	2035.99
466	1947.88
466.5	1822.03
467	1674.76
467.5	1516.56
468	1358.35
468.5	1207.93
469	1070.51
469.5	950.225
470	845.239
470.5	755.484
471	679.76
471.5	613.574
472	555.352
472.5	504.512
473	459.416
473.5	420.164
474	387.552
474.5	360.26
475	337.535
475.5	318.339
476	300.526
476.5	282.975
477	265.127
477.5	247.46
478	230.877
478.5	216.813
479	205.493
479.5	196.9
480	190.818
480.5	185.92
481	181.467
481.5	176.942
482	172.248
482.5	167.523
483	162.957
483.5	158.531
484	154.087
484.5	149.427
485	144.598
485.5	139.814
486	135.491
486.5	131.835
487	128.849
487.5	126.359
488	123.923
488.5	121.268
489	118.286
489.5	115.205
490	112.314
490.5	109.942
491	108.056
491.5	106.498
492	105.09
492.5	103.681
493	102.252
493.5	100.847
494	99.4737
494.5	98.0614
495	96.4528
495.5	94.5547
496	92.4119
496.5	90.21
497	88.2542
497.5	86.7242
498	85.6324
498.5	84.7157
499	83.686
499.5	82.3432
500	80.7585
500.5	79.1962
501	77.992
501.5	77.3113
502	77.0179
502.5	76.803
503	76.2768
503.5	75.3018
504	74.0084
504.5	72.8788
505	72.3089
505.5	72.5091
506	73.2777
506.5	74.1415
507	74.6561
507.5	74.5785
508	74.0711
508.5	73.4656
509	73.2055
509.5	73.501
510	74.3825
510.5	75.6212
511	76.8475
511.5	77.7511
512	78.1088
512.5	77.9025
513	77.067
513.5	75.55
514	73.4713
514.5	70.9222
515	68.136
515.5	65.4825
516	63.333
516.5	62.0784
517	61.6977
517.5	62.0526
518	62.7224
518.5	63.092
519	62.7239
519.5	61.3999
520	59.508
520.5	57.4952
521	55.9191
521.5	54.9682
522	54.5709
522.5	54.41
523	54.0794
523.5	53.4178
524	52.4974
524.5	51.6525
525	51.1239
525.5	51.0334
526	51.1198
526.5	51.1366
527	50.9372
527.5	50.6888
528	50.6206
528.5	50.9627
529	51.5399
529.5	52.0217
530	51.8751
530.5	50.9882
531	49.5575
531.5	48.1856
532	47.5633
532.5	48.0396
533	49.6124
533.5	51.3787
534	52.4288
534.5	51.861
535	49.8486
535.5	47.0226
536	44.4532
536.5	43.098
537	43.3337
537.5	45.152
538	47.6258
538.5	49.9109
539	51.2719
539.5	51.6534
540	51.384
540.5	50.8866
541	50.4601
541.5	50.0036
542	49.104
542.5	47.5095
543	45.3527
543.5	43.1506
544	41.6848
544.5	41.4621
545	42.7741
545.5	45.1285
546	47.7498
546.5	49.8424
547	50.9214
547.5	51.0185
548	50.3611
548.5	49.4412
549	48.6207
549.5	48.0754
550	47.7547
550.5	47.5342
551	47.3493
551.5	47.2031
552	47.1432
552.5	47.226
553	47.4369
553.5	47.6643
554	47.7207
554.5	47.3689
555	46.489
555.5	44.9968
556	43.0052
556.5	40.831
557	38.8057
557.5	37.2696
558	36.3128
558.5	35.9033
559	35.8874
559.5	36.0517
560	36.3223
560.5	36.7189
561	37.2803
561.5	38.0294
562	38.8908
562.5	39.6871
563	40.2444
563.5	40.43
564	40.3329
564.5	40.0963
565	39.9295
565.5	39.9478
566	40.1437
566.5	40.3647
567	40.4133
567.5	40.1651
568	39.5642
568.5	38.7555
569	37.8658
569.5	37.0331
570	36.3306
570.5	35.8019
571	35.5285
571.5	35.5263
572	35.8374
572.5	36.497
573	37.3338
573.5	38.1734
574	38.761
574.5	39.0047
575	38.9046
575.5	38.5622
576	38.185
576.5	37.8652
577	37.6315
577.5	37.4338
578	37.2559
578.5	37.1649
579	37.2662
579.5	37.6593
580	38.4423
580.5	39.4937
581	40.6638
581.5	41.7494
582	42.5928
582.5	43.1087
583	43.2012
583.5	42.9352
584	42.3834
584.5	41.6404
585	40.8676
585.5	40.1599
586	39.5598
586.5	39.0193
587	38.4913
587.5	37.999
588	37.6592
588.5	37.6082
589	37.9686
589.5	38.6012
590	39.2243
590.5	39.4728
591	39.188
591.5	38.5203
592	37.8498
592.5	37.6341
593	38.0372
593.5	38.9378
594	39.8176
594.5	40.2777
595	40.1784
595.5	39.8254
596	39.6516
596.5	39.9581
597	40.6289
597.5	41.2285
598	41.2657
598.5	40.5566
599	39.4257
599.5	38.4371
600	38.178
600.5	38.7477
601	39.901
601.5	41.0099
602	41.5679
602.5	41.3583
603	40.6018
603.5	39.7895
604	39.2697
604.5	39.1235
605	39.1284
605.5	39.0328
606	38.6425
606.5	37.9831
607	37.1472
607.5	36.2811
608	35.5148
608.5	34.9725
609	34.8285
609.5	35.152
610	35.985
610.5	37.1944
611	38.3905
611.5	39.1838
612	39.2082
612.5	38.5777
613	37.571
613.5	36.699
614	36.3469
614.5	36.6243
615	37.4104
615.5	38.299
616	39.0205
616.5	39.3999
617	39.5504
617.5	39.6175
618	39.7474
618.5	39.9447
619	40.1031
619.5	39.9949
620	39.5224
620.5	38.6852
621	37.6273
621.5	36.6935
622	36.1592
622.5	36.3153
623	36.9974
623.5	37.956
624	38.7797
624.5	39.1631
625	39.0455
625.5	38.5611
626	38.0957
626.5	37.9116
627	38.1819
627.5	38.7252
628	39.2923
628.5	39.5696
629	39.4426
629.5	38.9596
630	38.29
630.5	37.7188
631	37.4326
631.5	37.5586
632	37.961
632.5	38.4185
633	38.6213
633.5	38.3739
634	37.6703
634.5	36.6743
635	35.7912
635.5	35.3645
636	35.6666
636.5	36.5126
637	37.5364
637.5	38.3128
638	38.5928
638.5	38.4208
639	37.9952
639.5	37.6248
640	37.4631
640.5	37.514
641	37.6282
641.5	37.6855
642	37.6646
642.5	37.6474
643	37.6949
643.5	37.7545
644	37.6303
644.5	37.1442
645	36.1994
645.5	34.9876
646	33.8874
646.5	33.3068
647	33.4599
647.5	34.1707
648	35.1149
648.5	35.8664
649	36.2433
649.5	36.2702
650	36.1745
650.5	36.1781
651	36.3461
651.5	36.5479
652	36.5718
652.5	36.2668
653	35.6649
653.5	35.0291
654	34.6507
654.5	34.756
655	35.2296
655.5	35.7912
656	35.9767
656.5	35.5208
657	34.3612
657.5	32.761
658	31.2845
658.5	30.4186
659	30.5486
659.5	31.46
660	32.8159
660.5	34.1008
661	34.9621
661.5	35.342
662	35.4211
662.5	35.5592
663	35.9579
663.5	36.6469
664	37.3513
664.5	37.7743
665	37.5621
665.5	36.7444
666	35.4408
666.5	33.8913
667	32.4428
667.5	31.3159
668	30.7761
668.5	30.8092
669	31.4137
669.5	32.5763
670	33.9831
670.5	35.3449
671	36.2332
671.5	36.4677
672	36.0377
672.5	35.1152
673	34.1973
673.5	33.6498
674	33.7663
674.5	34.3525
675	35.0805
675.5	35.5331
676	35.547
676.5	35.2052
677	34.7643
677.5	34.5247
678	34.5892
678.5	34.8855
679	35.1439
679.5	35.1722
680	34.892
680.5	34.4887
681	34.1998
681.5	34.2616
682	34.6801
682.5	35.3013
683	35.8859
683.5	36.2194
684	36.2425
684.5	36.001
685	35.7063
685.5	35.5691
686	35.8054
686.5	36.4971
687	37.598
687.5	39.0283
688	40.5825
688.5	42.0661
689	43.3147
689.5	44.2765
690	45.0277
690.5	45.707
691	46.5191
691.5	47.6255
692	49.2019
692.5	51.3321
693	53.9486
693.5	56.9444
694	60.0174
694.5	62.7888
695	64.8188
695.5	65.7545
696	65.6095
696.5	64.4354
697	62.5153
697.5	60.2477
698	57.8452
698.5	55.413
699	52.9652
699.5	50.5288
700	48.2542
700.5	46.348
701	45.0423
701.5	44.426
702	44.1872
702.5	43.9054
703	43.057
703.5	41.5098
704	39.4317
704.5	37.3886
705	35.9681
705.5	35.4814
706	35.8179
706.5	36.2729
707	36.228
707.5	35.2486
708	33.729
708.5	32.2785
709	31.7078
709.5	32.2017
710	33.5866
710.5	35.336
711	36.8174
711.5	37.7583
712	38.1056
712.5	38.1498
713	38.0061
713.5	37.5856
714	36.8016
714.5	35.6326
715	34.2636
715.5	33.1204
716	32.5083
716.5	32.6352
717	33.1633
717.5	33.7548
718	34.0663
718.5	34.0704
719	33.8905
719.5	33.6864
720	33.5022
720.5	33.2502
721	32.8068
721.5	32.2638
722	31.8608
722.5	31.9868
723	32.7113
723.5	33.8232
724	34.7998
724.5	35.0975
725	34.4897
725.5	33.0288
726	31.3406
726.5	30.0049
727	29.5462
727.5	29.9491
728	30.9062
728.5	32.0116
729	32.8668
729.5	33.3086
730	33.2968
730.5	33.0259
731	32.7162
731.5	32.5828
732	32.7375
732.5	33.1516
733	33.7064
733.5	34.1816
734	34.4225
734.5	34.3536
735	34.0896
735.5	33.8134
736	33.6648
736.5	33.6321
737	33.561
737.5	33.2413
738	32.5757
738.5	31.6837
739	30.8029
739.5	30.2071
740	29.9719
740.5	30.0195
741	30.1056
741.5	30.0475
742	29.838
742.5	29.6894
743	29.8474
743.5	30.4655
744	31.4341
744.5	32.4056
745	33.0365
745.5	33.1338
746	32.8777
746.5	32.5772
747	32.6021
747.5	33.0433
748	33.7732
748.5	34.4356
749	34.7252
749.5	34.5118
750	33.9045
750.5	33.2409
751	32.7738
751.5	32.6359
752	32.6907
752.5	32.7647
753	32.7024
753.5	32.5357
754	32.3992
754.5	32.4974
755	32.8837
755.5	33.5156
756	34.2411
756.5	34.8598
757	35.2396
757.5	35.2529
758	34.9308
758.5	34.2815
759	33.3291
759.5	32.2725
760	31.3188
760.5	30.7843
761	30.7437
761.5	31.141
762	31.7397
762.5	32.1662
763	32.234
763.5	31.934
764	31.6117
764.5	31.5651
765	32.0288
765.5	32.783
766	33.5012
766.5	33.7635
767	33.5157
767.5	32.9387
768	32.4004
768.5	32.1915
769	32.3281
769.5	32.5733
770	32.5411
770.5	32.0133
771	30.9304
771.5	29.6243
772	28.4448
772.5	27.7717
773	27.719
773.5	28.2463
774	29.2813
774.5	30.5772
775	31.9465
775.5	33.266
776	34.5409
776.5	35.8893
777	37.5032
777.5	39.4068
778	41.3657
778.5	42.7909
779	43.0115
779.5	41.6655
780	38.5868
780.5	34.4408
781	30.1376
781.5	26.549
782	24.1322
782.5	22.7934
783	22.3601
783.5	22.5687
784	23.3518
784.5	24.9311
785	27.3924
785.5	30.4751
786	33.7018
786.5	36.3862
787	38.1201
787.5	38.6974
788	38.3428
788.5	37.5355
789	36.6247
789.5	35.8721
790	35.3702
790.5	35.1995
791	35.4554
791.5	36.1768
792	37.4525
792.5	39.2842
793	41.4769
793.5	43.7976
794	45.8513
794.5	47.2823
795	47.756
795.5	47.1344
796	45.8485
796.5	44.4623
797	43.7368
797.5	43.9828
798	45.115
798.5	46.5137
799	47.3649
799.5	47.1806
800	45.9518
800.5	44.4621
801	43.4743
801.5	43.6697
802	44.8534
802.5	46.5896
803	48.2771
803.5	49.6444
804	50.8568
804.5	52.4498
805	54.775
805.5	57.8788
806	61.4514
806.5	64.8454
807	67.6583
807.5	69.6321
808	71.0694
808.5	72.17
809	72.8807
809.5	72.9545
810	71.9483
810.5	69.1719
811	64.8807
811.5	59.4995
812	53.8142
812.5	48.7681
813	44.9034
813.5	42.6329
814	41.488
814.5	41.0209
815	40.8061
815.5	40.5156
816	40.0793
816.5	39.538
817	38.9923
817.5	38.4828
818	37.9986
818.5	37.4873
819	36.9052
819.5	36.2105
820	35.4193
820.5	34.5711
821	33.7333
821.5	32.9823
822	32.3627
822.5	31.9071
823	31.5889
823.5	31.4017
824	31.435
824.5	31.807
825	32.6107
825.5	33.9073
826	35.476
826.5	36.9601
827	37.8893
827.5	37.9554
828	37.1555
828.5	35.6175
829	33.7789
829.5	32.0603
830	30.7986
830.5	30.1119
831	29.8905
831.5	29.9829
832	30.1553
832.5	30.25
833	30.2155
833.5	30.1289
834	30.1235
834.5	30.3202
835	30.7391
835.5	31.271
836	31.7844
836.5	32.1803
837	32.4866
837.5	32.8017
838	33.2343
838.5	33.7734
839	34.3047
839.5	34.6358
840	34.6795
840.5	34.4447
841	34.0789
841.5	33.773
842	33.6321
842.5	33.6527
843	33.7156
843.5	33.7174
844	33.5973
844.5	33.4019
845	33.2147
845.5	33.1602
846	33.3063
846.5	33.684
847	34.2332
847.5	34.7339
848	34.9162
848.5	34.4289
849	33.2743
849.5	31.6116
850	29.8938
850.5	28.6631
851	28.2641
851.5	28.8479
852	29.9224
852.5	31.0267
853	31.6615
853.5	31.7623
854	31.4716
854.5	31.0776
855	30.8228
855.5	30.7176
856	30.5735
856.5	30.17
857	29.4243
857.5	28.4301
858	27.5436
858.5	27.0614
859	27.2576
859.5	27.919
860	28.7159
860.5	29.152
861	28.9924
861.5	28.307
862	27.4911
862.5	27.1415
863	27.6241
863.5	29.0923
864	31.0028
864.5	32.7594
865	33.7445
865.5	33.904
866	33.5229
866.5	33.039
867	32.7822
867.5	32.7137
868	32.5029
868.5	31.8237
869	30.6466
869.5	29.258
870	28.2144
870.5	27.8846
871	28.4329
871.5	29.4866
872	30.567
872.5	31.2574
873	31.4519
873.5	31.3108
874	31.0635
874.5	30.93
875	30.9918
875.5	31.2907
876	31.8249
876.5	32.5759
877	33.5004
877.5	34.3989
878	34.9946
878.5	34.9453
879	34.1029
879.5	32.6521
880	30.9219
880.5	29.4111
881	28.4405
881.5	28.1593
882	28.4126
882.5	28.8715
883	29.3067
883.5	29.6333
884	29.9473
884.5	30.3929
885	31.0392
885.5	31.7717
886	32.3932
886.5	32.7029
887	32.7046
887.5	32.5076
888	32.3015
888.5	32.1754
889	32.0493
889.5	31.7011
890	31.0109
890.5	30.0129
891	28.9914
891.5	28.3133
892	28.238
892.5	28.83
893	29.7548
893.5	30.6915
894	31.324
894.5	31.5945
895	31.5406
895.5	31.2368
896	30.7943
896.5	30.2541
897	29.6919
897.5	29.2455
898	29.0515
898.5	29.2109
899	29.5406
899.5	29.7829
900	29.5663
900.5	28.848
901	27.7998
901.5	26.911
902	26.6522
902.5	27.2511
903	28.6971
903.5	30.3279
904	31.5754
904.5	31.8322
905	31.2293
905.5	30.1298
906	29.1448
906.5	28.7176
907	28.9151
907.5	29.5197
908	30.0633
908.5	30.3362
909	30.4166
909.5	30.6879
910	31.4314
910.5	32.7124
911	34.0546
911.5	34.9103
912	34.694
912.5	33.5027
913	31.7729
913.5	30.1676
914	29.2183
914.5	29.0445
915	29.5187
915.5	30.1876
916	30.7444
916.5	31.0362
917	31.1201
917.5	31.076
918	30.8932
918.5	30.52
919	29.9361
919.5	29.2025
920	28.5276
920.5	28.098
921	28.0297
921.5	28.198
922	28.3667
922.5	28.3136
923	28.0082
923.5	27.6386
924	27.509
924.5	27.8475
925	28.6107
925.5	29.5809
926	30.3845
926.5	30.8034
927	30.779
927.5	30.4756
928	30.1083
928.5	29.7839
929	29.5126
929.5	29.2792
930	29.1498
930.5	29.2504
931	29.5879
931.5	29.9865
932	30.0133
932.5	29.3366
933	27.8471
933.5	25.9619
934	24.4649
934.5	24.074
935	25.1207
935.5	27.0396
936	29.0675
936.5	30.3228
937	30.5475
937.5	29.8639
938	28.7282
938.5	27.6372
939	26.7824
939.5	26.1878
940	25.7874
940.5	25.652
941	25.9509
941.5	26.6403
942	27.5504
942.5	28.32
943	28.6949
943.5	28.6359
944	28.3318
944.5	28.1155
945	28.1402
945.5	28.3781
946	28.5914
946.5	28.6215
947	28.3858
947.5	28.0051
948	27.5864
948.5	27.254
949	27.0957
949.5	27.2041
950	27.7112
950.5	28.4831
951	29.2957
951.5	29.7244
952	29.561
952.5	28.8298
953	27.8162
953.5	26.9976
954	26.5864
954.5	26.5136
955	26.3479
955.5	25.7842
956	24.7402
956.5	23.6448
957	22.967
957.5	23.1627
958	24.0791
958.5	25.3338
959	26.4149
959.5	27.0022
960	27.0719
960.5	26.7414
961	26.2917
961.5	25.8938
962	25.6626
962.5	25.6261
963	25.7778
963.5	26.1102
964	26.5357
964.5	26.9632
965	27.3185
965.5	27.5923
966	27.8154
966.5	28
967	28.1085
967.5	28.0623
968	27.7422
968.5	27.1237
969	26.2891
969.5	25.3906
970	24.6686
970.5	24.319
971	24.5308
971.5	25.2851
972	26.3552
972.5	27.4304
973	28.1686
973.5	28.4527
974	28.3365
974.5	28.0843
975	27.9078
975.5	27.7894
976	27.4514
976.5	26.6255
977	25.2032
977.5	23.5168
978	22.1434
978.5	21.5818
979	21.9675
979.5	22.8683
980	23.7832
980.5	24.296
981	24.454
981.5	24.5582
982	25.0008
982.5	25.8327
983	26.8075
983.5	27.4079
984	27.3113
984.5	26.4383
985	25.055
985.5	23.7024
986	22.7861
986.5	22.5777
987	22.9102
987.5	23.5534
988	24.1796
988.5	24.5578
989	24.6314
989.5	24.5435
990	24.6274
990.5	25.1792
991	26.3885
991.5	27.9007
992	29.2211
992.5	29.6118
993	28.8953
993.5	27.2237
994	25.2011
994.5	23.7007
995	23.2386
995.5	24.0876
996	25.5778
996.5	27.0866
997	27.8986
997.5	27.8961
998	27.2336
998.5	26.2686
999	25.4537
999.5	24.9863
1000	24.9317
1000.5	25.066
1001	25.1909
1001.5	25.1024
1002	24.772
1002.5	24.281
1003	23.8346
1003.5	23.6569
1004	23.8489
1004.5	24.3983
1005	25.0202
1005.5	25.4271
1006	25.3057
1006.5	24.6483
1007	23.6168
1007.5	22.5113
1008	21.7063
1008.5	21.4357
1009	21.8629
1009.5	22.7648
1010	23.7845
1010.5	24.459
1011	24.5039
1011.5	23.962
1012	23.1445
1012.5	22.6054
1013	22.6847
1013.5	23.4616
1014	24.5105
1014.5	25.3416
1015	25.6382
1015.5	25.5987
1016	25.6655
1016.5	26.2328
1017	27.251
1017.5	28.2586
1018	28.629
1018.5	28.02
1019	26.6635
1019.5	25.0853
1020	23.9699
1020.5	23.6202
1021	24.0339
1021.5	24.8256
1022	25.5794
1022.5	26.0854
1023	26.3856
1023.5	26.6833
1024	27.1532
1024.5	27.838
1025	28.5882
1025.5	29.1608
1026	29.27
1026.5	28.8431
1027	27.8949
1027.5	26.6365
1028	25.3957
1028.5	24.4258
1029	23.8768
1029.5	23.6606
1030	23.6726
1030.5	23.8074
1031	24.01
1031.5	24.2939
1032	24.6546
1032.5	25.0042
1033	25.2149
1033.5	25.1373
1034	24.7817
1034.5	24.2212
1035	23.6302
1035.5	23.2073
1036	23.1073
1036.5	23.4377
1037	24.0593
1037.5	24.7971
1038	25.3659
1038.5	25.5862
1039	25.4183
1039.5	24.9979
1040	24.6603
1040.5	24.6403
1041	25.0874
1041.5	25.787
1042	26.5063
1042.5	26.9648
1043	27.0961
1043.5	26.9185
1044	26.4681
1044.5	25.8818
1045	25.2571
1045.5	24.7866
1046	24.659
1046.5	24.9859
1047	25.7729
1047.5	26.6805
1048	27.394
1048.5	27.6084
1049	27.4082
1049.5	27.0113
1050	26.7005
1050.5	26.5972
1051	26.6312
1051.5	26.6172
1052	26.4247
1052.5	26.062
1053	25.6229
1053.5	25.2204
1054	24.8814
1054.5	24.6018
1055	24.4102
1055.5	24.4159
1056	24.8014
1056.5	25.5602
1057	26.5242
1057.5	27.4013
1058	27.9453
1058.5	28.134
1059	28.1204
1059.5	28.1889
1060	28.4713
1060.5	28.8983
1061	29.2009
1061.5	29.1863
1062	28.8447
1062.5	28.5089
1063	28.5874
1063.5	29.4523
1064	31.061
1064.5	32.9976
1065	34.7148
1065.5	35.7659
1066	36.0732
1066.5	35.7001
1067	34.9152
1067.5	33.9674
1068	32.9933
1068.5	32.1384
1069	31.5708
1069.5	31.5314
1070	32.1135
1070.5	33.0376
1071	33.7605
1071.5	33.5457
1072	32.1042
1072.5	29.5347
1073	26.6442
1073.5	24.4578
1074	23.6789
1074.5	24.3911
1075	25.8337
1075.5	27.2439
1076	28.0001
1076.5	28.1483
1077	28.0459
1077.5	28.2056
1078	28.8133
1078.5	29.7588
1079	30.7112
1079.5	31.4277
1080	31.8844
1080.5	32.2139
1081	32.5268
1081.5	32.7054
1082	32.4056
1082.5	31.4846
1083	30.0064
1083.5	28.3951
1084	27.2556
1084.5	27.005
1085	27.8491
1085.5	29.2767
1086	30.7709
1086.5	31.704
1087	31.8653
1087.5	31.2466
1088	29.9476
1088.5	28.3443
1089	26.6416
1089.5	25.0356
1090	23.6392
1090.5	22.5351
1091	21.8648
1091.5	21.5995
1092	21.7497
1092.5	22.383
1093	23.3871
1093.5	24.6813
1094	26.1349
1094.5	27.5129
1095	28.6223
1095.5	29.2073
1096	29.2236
1096.5	28.6398
1097	27.3603
1097.5	25.5681
1098	23.5351
1098.5	21.7666
1099	20.8293
1099.5	21.1259
1100	22.9691
1100.5	25.795
1101	28.8317
1101.5	31.0867
1102	31.9843
1102.5	31.4991
1103	29.9307
1103.5	28.1215
1104	26.7089
1104.5	26.1434
1105	26.3315
1105.5	26.8985
1106	27.4469
1106.5	27.694
1107	27.603
1107.5	27.2524
1108	26.8066
1108.5	26.323
1109	25.7122
1109.5	24.8548
1110	23.7689
1110.5	22.6772
1111	21.998
1111.5	22.0098
1112	22.7803
1112.5	23.844
1113	24.5592
1113.5	24.4546
1114	23.6084
1114.5	22.6034
1115	22.1365
1115.5	22.6468
1116	23.9289
1116.5	25.4827
1117	26.6363
1117.5	27.0919
1118	26.8593
1118.5	26.2768
1119	25.719
1119.5	25.368
1120	25.2122
1120.5	25.1382
1121	25.0957
1121.5	25.0935
1122	25.1579
1122.5	25.3028
1123	25.4964
1123.5	25.6573
1124	25.6737
1124.5	25.402
1125	24.8287
1125.5	24.042
1126	23.3548
1126.5	23.1435
1127	23.644
1127.5	24.7597
1128	25.9084
1128.5	26.5225
1129	26.1623
1129.5	25.1591
1130	24.0938
1130.5	23.7767
1131	24.427
1131.5	25.8228
1132	27.2639
1132.5	28.0347
1133	27.8344
1133.5	26.741
1134	25.4781
1134.5	24.4845
1135	23.9902
1135.5	23.7142
1136	23.3479
1136.5	22.6176
1137	21.6696
1137.5	20.8104
1138	20.5397
1138.5	20.9778
1139	22.0269
1139.5	23.3548
1140	24.4702
1140.5	25.1484
1141	25.3829
1141.5	25.4978
1142	25.7164
1142.5	26.1139
1143	26.4834
1143.5	26.5802
1144	26.1894
1144.5	25.4948
1145	24.8348
1145.5	24.71
1146	25.3335
1146.5	26.6479
1147	28.3408
1147.5	29.8698
1148	30.9009
1148.5	31.237
1149	31.1206
1149.5	30.8913
1150	30.896
1150.5	31.25
1151	31.8261
1151.5	32.368
1152	32.6888
1152.5	32.8635
1153	33.2598
1153.5	34.3018
1154	36.1232
1154.5	38.6456
1155	41.4281
1155.5	44.1234
1156	46.653
1156.5	49.2802
1157	52.3303
1157.5	56.0324
1158	60.1912
1158.5	64.3557
1159	68.025
1159.5	70.887
1160	73.0129
1160.5	74.4213
1161	75.1106
1161.5	75.0123
1162	73.8645
1162.5	71.5927
1163	68.4597
1163.5	64.7415
1164	60.8204
1164.5	56.9538
1165	53.2325
1165.5	49.6762
1166	46.314
1166.5	43.3035
1167	40.8593
1167.5	39.0144
1168	37.7336
1168.5	36.7814
1169	35.8153
1169.5	34.6003
1170	33.0505
1170.5	31.3412
1171	29.7222
1171.5	28.51
1172	27.7924
1172.5	27.5436
1173	27.6096
1173.5	27.7314
1174	27.757
1174.5	27.6352
1175	27.4829
1175.5	27.4567
1176	27.718
1176.5	28.2175
1177	28.8064
1177.5	29.2006
1178	29.2431
1178.5	28.9161
1179	28.3094
1179.5	27.6148
1180	26.8887
1180.5	26.0872
1181	25.1921
1181.5	24.2846
1182	23.6343
1182.5	23.4177
1183	23.6389
1183.5	23.9972
1184	24.006
1184.5	23.4618
1185	22.5158
1185.5	21.8147
1186	21.86
1186.5	22.9457
1187	24.4431
1187.5	25.6173
1188	25.6231
1188.5	24.5458
1189	22.9352
1189.5	21.7935
1190	21.7054
1190.5	22.6689
1191	24.2465
1191.5	25.62
1192	26.3181
1192.5	26.1169
1193	25.3961
1193.5	24.5509
1194	23.9023
1194.5	23.4931
1195	23.1834
1195.5	22.8019
1196	22.3276
1196.5	21.8839
1197	21.6777
1197.5	21.7637
1198	22.0023
1198.5	22.0952
1199	21.8056
1199.5	21.1804
1200	20.5963
1200.5	20.645
1201	21.5866
1201.5	23.3388
1202	25.1877
1202.5	26.3773
1203	26.279
1203.5	24.9937
1204	23.1628
1204.5	21.5791
1205	20.8684
1205.5	21.104
1206	22.0521
1206.5	23.1939
1207	24.1975
1207.5	24.9335
1208	25.409
1208.5	25.6294
1209	25.4454
1209.5	24.6936
1210	23.4179
1210.5	21.84
1211	20.5127
1211.5	19.9446
1212	20.4553
1212.5	21.9191
1213	23.7372
1213.5	25.2871
1214	26.032
1214.5	25.9604
1215	25.288
1215.5	24.4687
1216	23.8766
1216.5	23.6468
1217	23.661
1217.5	23.7017
1218	23.6671
1218.5	23.5741
1219	23.5256
1219.5	23.6138
1220	23.9125
1220.5	24.4192
1221	25.1532
1221.5	26.094
1222	27.0379
1222.5	27.6875
1223	27.6346
1223.5	26.8534
1224	25.5271
1224.5	24.1728
1225	23.3338
1225.5	23.255
1226	23.8413
1226.5	24.5056
1227	24.845
1227.5	24.7663
1228	24.6896
1228.5	25.0164
1229	26.0397
1229.5	27.4187
1230	28.7208
1230.5	29.4362
1231	29.5854
1231.5	29.3933
1232	29.1914
1232.5	29.0791
1233	28.8813
1233.5	28.2559
1234	27.1786
1234.5	25.8476
1235	24.697
1235.5	24.0437
1236	23.9348
1236.5	24.1938
1237	24.402
1237.5	24.3325
1238	23.9162
1238.5	23.3477
1239	22.813
1239.5	22.4914
1240	22.4248
1240.5	22.59
1241	22.9377
1241.5	23.3286
1242	23.6291
1242.5	23.6891
1243	23.4661
1243.5	22.9835
1244	22.2935
1244.5	21.5464
1245	20.8932
1245.5	20.53
1246	20.5581
1246.5	20.9538
1247	21.5566
1247.5	22.0414
1248	22.2007
1248.5	21.9832
1249	21.6451
1249.5	21.4979
1250	21.7567
1250.5	22.2911
1251	22.7584
1251.5	22.79
1252	22.3743
1252.5	21.8527
1253	21.6491
1253.5	21.9672
1254	22.5871
1254.5	23.0548
1255	22.9169
1255.5	22.1413
1256	21.0236
1256.5	20.2227
1257	20.1843
1257.5	21.0997
1258	22.7027
1258.5	24.4089
1259	25.6374
1259.5	25.9338
1260	25.352
1260.5	24.186
1261	23.1115
1261.5	22.7171
1262	23.2581
1262.5	24.5049
1263	25.7969
1263.5	26.5583
1264	26.4549
1264.5	25.7618
1265	24.887
1265.5	24.2893
1266	24.0786
1266.5	24.1067
1267	24.12
1267.5	23.9621
1268	23.6056
1268.5	23.0958
1269	22.5283
1269.5	21.9737
1270	21.5539
1270.5	21.3729
1271	21.4832
1271.5	21.8462
1272	22.2598
1272.5	22.5701
1273	22.676
1273.5	22.6605
1274	22.6377
1274.5	22.7667
1275	23.1326
1275.5	23.7727
1276	24.6749
1276.5	25.612
1277	26.3306
1277.5	26.5118
1278	26.2793
1278.5	25.9553
1279	26.1227
1279.5	26.975
1280	28.2942
1280.5	29.7299
1281	31.3683
1281.5	34.0256
1282	39.5415
1282.5	48.3674
1283	59.7195
1283.5	70.6759
1284	77.1241
1284.5	76.71
1285	68.2828
1285.5	55.5135
1286	42.1344
1286.5	31.9073
1287	25.931
1287.5	23.4725
1288	23.1607
1288.5	23.2553
1289	23.2074
1289.5	23.1236
1290	23.1528
1290.5	23.1623
1291	22.8296
1291.5	22.0937
1292	21.2324
1292.5	20.7391
1293	20.8113
1293.5	21.1616
1294	21.2624
1294.5	20.7411
1295	19.6693
1295.5	18.4098
1296	17.4431
1296.5	16.9543
1297	16.9207
1297.5	17.1023
1298	17.4046
1298.5	17.9175
1299	18.7119
1299.5	19.6906
1300	20.6183
1300.5	21.2386
1301	21.5165
1301.5	21.6003
1302	21.7327
1302.5	21.9583
1303	22.1008
1303.5	21.8745
1304	21.1869
1304.5	20.1427
1305	19.1343
1305.5	18.5904
1306	18.8171
1306.5	19.8318
1307	21.2949
1307.5	22.7751
1308	23.695
1308.5	23.7382
1309	22.7995
1309.5	21.2284
1310	19.7532
1310.5	18.9156
1311	18.8757
1311.5	19.2031
1312	19.4415
1312.5	19.3064
1313	19.0126
1313.5	18.9482
1314	19.4221
1314.5	20.1066
1315	20.499
1315.5	20.1087
1316	19.0956
1316.5	17.8933
1317	17.1206
1317.5	16.9744
1318	17.3298
1318.5	17.8147
1319	18.1988
1319.5	18.5204
1320	18.9141
1320.5	19.3489
1321	19.6125
1321.5	19.3415
1322	18.5442
1322.5	17.503
1323	16.8069
1323.5	16.8125
1324	17.5849
1324.5	18.9163
1325	20.2108
1325.5	21.0721
1326	21.1529
1326.5	20.69
1327	19.993
1327.5	19.4222
1328	19.1692
1328.5	19.2353
1329	19.4858
1329.5	19.6668
1330	19.6236
1330.5	19.2903
1331	18.827
1331.5	18.3934
1332	18.1796
1332.5	18.2566
1333	18.623
1333.5	19.233
1334	19.8995
1334.5	20.4361
1335	20.629
1335.5	20.4258
1336	19.8822
1336.5	19.1458
1337	18.4977
1337.5	18.1588
1338	18.3375
1338.5	18.9442
1339	19.7695
1339.5	20.6001
1340	21.2877
1340.5	21.8202
1341	22.2304
1341.5	22.5455
1342	22.7033
1342.5	22.5755
1343	22.1571
1343.5	21.5749
1344	21.0097
1344.5	20.5884
1345	20.2697
1345.5	19.9048
1346	19.3704
1346.5	18.7497
1347	18.2634
1347.5	18.1152
1348	18.2891
1348.5	18.6066
1349	18.7569
1349.5	18.5542
1350	17.9824
1350.5	17.2909
1351	16.7831
1351.5	16.7398
1352	17.3034
1352.5	18.327
1353	19.527
1353.5	20.3906
1354	20.5632
1354.5	19.9542
1355	18.9007
1355.5	18.0281
1356	17.8642
1356.5	18.6089
1357	19.8181
1357.5	20.8496
1358	21.0901
1358.5	20.5567
1359	19.5591
1359.5	18.661
1360	18.2341
1360.5	18.3464
1361	18.7874
1361.5	19.2154
1362	19.5286
1362.5	19.8387
1363	20.3179
1363.5	21.0215
1364	21.8116
1364.5	22.4134
1365	22.6184
1365.5	22.383
1366	21.9389
1366.5	21.4581
1367	21.0605
1367.5	20.737
1368	20.4578
1368.5	20.2451
1369	20.1543
1369.5	20.2272
1370	20.4456
1370.5	20.6481
1371	20.6816
1371.5	20.3825
1372	19.8547
1372.5	19.3162
1373	19.1651
1373.5	19.5651
1374	20.4804
1374.5	21.6214
1375	22.4957
1375.5	22.8194
1376	22.4723
1376.5	21.8777
1377	21.326
1377.5	21.0054
1378	20.9129
1378.5	21.0881
1379	21.7429
1379.5	22.8958
1380	24.2638
1380.5	25.2071
1381	25.3496
1381.5	24.8762
1382	24.5079
1382.5	24.8836
1383	25.8722
1383.5	26.6859
1384	27.2591
1384.5	29.2115
1385	36.505
1385.5	51.712
1386	74.0662
1386.5	98.5788
1387	115.646
1387.5	119.218
1388	106.229
1388.5	82.8066
1389	57.5712
1389.5	38.4198
1390	28.5291
1390.5	25.635
1391	25.7011
1391.5	25.2596
1392	23.5102
1392.5	21.183
1393	19.4461
1393.5	18.6923
1394	18.8119
1394.5	19.425
1395	20.3691
1395.5	21.5629
1396	22.6643
1396.5	23.2426
1397	22.957
1397.5	21.9267
1398	20.7198
1398.5	19.7395
1399	19.1629
1399.5	18.9107
1400	18.9518
1400.5	19.3018
1401	19.8782
1401.5	20.4475
1402	20.6561
1402.5	20.3773
1403	19.7139
1403.5	19.035
1404	18.663
1404.5	18.669
1405	18.8593
1405.5	19.0453
1406	19.2736
1406.5	19.8153
1407	20.8458
1407.5	22.3561
1408	23.9483
1408.5	25.0831
1409	25.4023
1409.5	24.7931
1410	23.7074
1410.5	22.5805
1411	21.8363
1411.5	21.4505
1412	21.1665
1412.5	20.639
1413	19.7966
1413.5	18.8016
1414	18.0405
1414.5	17.7614
1415	17.9423
1415.5	18.3358
1416	18.6138
1416.5	18.65
1417	18.4661
1417.5	18.2568
1418	18.1309
1418.5	18.1071
1419	18.1195
1419.5	18.1706
1420	18.3947
1420.5	18.9246
1421	19.841
1421.5	21.0366
1422	22.0447
1422.5	22.4249
1423	21.6723
1423.5	20.0046
1424	17.8915
1424.5	16.1835
1425	15.4708
1425.5	15.8168
1426	16.9886
1426.5	18.3345
1427	19.4749
1427.5	20.2352
1428	20.7326
1428.5	21.0486
1429	21.0618
1429.5	20.6595
1430	19.8441
1430.5	18.8013
1431	17.9694
1431.5	17.6861
1432	18.122
1432.5	19.014
1433	19.96
1433.5	20.478
1434	20.2889
1434.5	19.4307
1435	18.2296
1435.5	17.216
1436	16.7159
1436.5	16.8396
1437	17.2658
1437.5	17.5487
1438	17.328
1438.5	16.6468
1439	15.8137
1439.5	15.2204
1440	15.1807
1440.5	15.7606
1441	16.94
1441.5	18.3693
1442	19.6419
1442.5	20.3275
1443	20.171
1443.5	19.3162
1444	18.1071
1444.5	17.1259
1445	16.674
1445.5	16.8028
1446	17.3026
1446.5	17.9269
1447	18.619
1447.5	19.4275
1448	20.2846
1448.5	20.9424
1449	21.0291
1449.5	20.456
1450	19.3759
1450.5	18.3015
1451	17.677
1451.5	17.5917
1452	17.7772
1452.5	17.8389
1453	17.6325
1453.5	17.3616
1454	17.3912
1454.5	17.835
1455	18.4196
1455.5	18.6501
1456	18.2162
1456.5	17.1985
1457	16.239
1457.5	15.8469
1458	16.1848
1458.5	16.7576
1459	17.0747
1459.5	16.8316
1460	16.413
1460.5	16.3609
1461	17.0716
1461.5	18.1613
1462	19.0348
1462.5	18.9635
1463	18.0187
1463.5	16.7101
1464	15.8125
1464.5	15.6208
1465	16.0364
1465.5	16.7179
1466	17.2862
1466.5	17.6887
1467	18.0392
1467.5	18.4255
1468	18.8053
1468.5	19.0525
1469	19.1285
1469.5	19.0628
1470	18.8764
1470.5	18.5763
1471	18.1714
1471.5	17.7862
1472	17.6544
1472.5	17.9172
1473	18.4777
1473.5	18.9389
1474	19.0048
1474.5	18.5689
1475	17.9904
1475.5	17.6516
1476	17.7337
1476.5	17.9863
1477	18.1256
1477.5	18.031
1478	17.9476
1478.5	18.1926
1479	18.8866
1479.5	19.7006
1480	20.2219
1480.5	20.0949
1481	19.3893
1481.5	18.4075
1482	17.4443
1482.5	16.6218
1483	15.9244
1483.5	15.3804
1484	15.1081
1484.5	15.2522
1485	15.8893
1485.5	16.8193
1486	17.692
1486.5	18.082
1487	17.6971
1487.5	16.5931
1488	15.0824
1488.5	13.6922
1489	12.8166
1489.5	12.6964
1490	13.2484
1490.5	14.1586
1491	15.1693
1491.5	16.0972
1492	16.8298
1492.5	17.2241
1493	17.1961
1493.5	16.9282
1494	16.804
1494.5	17.2236
1495	18.1609
1495.5	19.2059
1496	19.5587
1496.5	18.831
1497	17.2373
1497.5	15.5629
1498	14.589
1498.5	14.6782
1499	15.6139
1499.5	16.6307
1500	17.2238
1500.5	17.1942
1501	16.7923
1501.5	16.2992
1502	16.0532
1502.5	16.1857
1503	16.6787
1503.5	17.3012
1504	17.6539
1504.5	17.4176
1505	16.4712
1505.5	15.3754
1506	14.6491
1506.5	14.7297
1507	15.3876
1507.5	16.2266
1508	16.7682
1508.5	16.9987
1509	17.1049
1509.5	17.2948
1510	17.5329
1510.5	17.6243
1511	17.3625
1511.5	16.9147
1512	16.5125
1512.5	16.4141
1513	16.5743
1513.5	16.8418
1514	17.0336
1514.5	17.1424
1515	17.2515
1515.5	17.4693
1516	17.7965
1516.5	18.1813
1517	18.5517
1517.5	18.8632
1518	19.0784
1518.5	19.1101
1519	18.9092
1519.5	18.4597
1520	17.7859
1520.5	17.0142
1521	16.2667
1521.5	15.7255
1522	15.5326
1522.5	15.7112
1523	16.1509
1523.5	16.5221
1524	16.5429
1524.5	16.0336
1525	15.2681
1525.5	14.697
1526	14.6636
1526.5	15.2979
1527	16.271
1527.5	17.1339
1528	17.6034
1528.5	17.5689
1529	16.9977
1529.5	16.0253
1530	14.9793
1530.5	14.2943
1531	14.39
1531.5	15.3894
1532	16.8988
1532.5	18.3281
1533	19.3048
1533.5	19.8125
1534	20.0129
1534.5	20.0395
1535	19.7453
1535.5	19.0731
1536	18.1815
1536.5	17.3804
1537	17.141
1537.5	17.5525
1538	18.4852
1538.5	19.5308
1539	20.3589
1539.5	20.6009
1540	20.1822
1540.5	19.1478
1541	17.7321
1541.5	16.3646
1542	15.5692
1542.5	15.7343
1543	16.6474
1543.5	17.8727
1544	18.8625
1544.5	19.3867
1545	19.5435
1545.5	19.7081
1546	19.9634
1546.5	20.0515
1547	19.6724
1547.5	18.6628
1548	17.559
1548.5	17.0347
1549	17.6728
1549.5	19.1574
1550	20.8442
1550.5	21.5651
1551	20.9564
1551.5	19.1694
1552	17.0561
1552.5	15.4279
1553	15.0263
1553.5	15.6646
1554	16.7707
1554.5	17.6894
1555	18.0918
1555.5	17.9699
1556	17.6936
1556.5	17.5582
1557	17.5126
1557.5	17.1871
1558	16.2796
1558.5	14.6924
1559	13.1668
1559.5	12.4922
1560	13.2614
1560.5	15.1477
1561	17.4092
1561.5	18.778
1562	18.8137
1562.5	17.6112
1563	16.0373
1563.5	14.7867
1564	14.3857
1564.5	14.5944
1565	15.0719
1565.5	15.6145
1566	16.2632
1566.5	17.1901
1567	18.4013
1567.5	19.6067
1568	20.3832
1568.5	20.5969
1569	20.3499
1569.5	20.0517
1570	20.1066
1570.5	20.5868
1571	21.202
1571.5	21.6012
1572	21.4916
1572.5	20.954
1573	20.2992
1573.5	19.8366
1574	19.6189
1574.5	19.5518
1575	19.42
1575.5	19.0952
1576	18.5903
1576.5	18.024
1577	17.4881
1577.5	17.0499
1578	16.7216
1578.5	16.5152
1579	16.4536
1579.5	16.5432
1580	16.8231
1580.5	17.3302
1581	18.0636
1581.5	18.931
1582	19.6852
1582.5	20.0991
1583	19.958
1583.5	19.4283
1584	18.8469
1584.5	18.6631
1585	18.9537
1585.5	19.5855
1586	20.2001
1586.5	20.579
1587	20.7367
1587.5	20.9077
1588	21.1421
1588.5	21.2424
1589	20.9389
1589.5	20.071
1590	18.9953
1590.5	18.2305
1591	18.1538
1591.5	18.5927
1592	19.0864
1592.5	18.9764
1593	18.279
1593.5	17.3476
1594	16.7038
1594.5	16.5295
1595	16.7173
1595.5	16.9106
1596	17.0602
1596.5	17.495
1597	18.5398
1597.5	20.2069
1598	21.9822
1598.5	22.9986
1599	22.7876
1599.5	21.5897
1600	20.1342
1600.5	19.1122
1601	18.728
1601.5	18.605
1602	18.215
1602.5	17.5826
1603	17.1135
1603.5	17.4359
1604	18.62
1604.5	20.1038
1605	20.8636
1605.5	20.4688
1606	18.9659
1606.5	17.2484
1607	16.1557
1607.5	16.24
1608	17.0928
1608.5	18.3267
1609	19.6093
1609.5	20.8799
1610	22.1669
1610.5	23.2968
1611	23.979
1611.5	23.8765
1612	23.1458
1612.5	22.1016
1613	21.2385
1613.5	20.7523
1614	20.5721
1614.5	20.5236
1615	20.5452
1615.5	20.694
1616	20.9464
1616.5	21.0805
1617	20.7456
1617.5	19.9671
1618	19.06
1618.5	18.6866
1619	19.2542
1619.5	20.6429
1620	21.9803
1620.5	22.5916
1621	22.0554
1621.5	20.8609
1622	19.6914
1622.5	19.221
1623	19.3186
1623.5	19.6094
1624	19.6446
1624.5	19.3413
1625	18.91
1625.5	18.7464
1626	18.9745
1626.5	19.5606
1627	20.3003
1627.5	21.0926
1628	21.8885
1628.5	22.6341
1629	23.1973
1629.5	23.4282
1630	23.2714
1630.5	22.6946
1631	21.827
1631.5	20.7594
1632	19.6395
1632.5	18.6686
1633	18.092
1633.5	18.1049
1634	18.6272
1634.5	19.3858
1635	19.921
1635.5	20.0921
1636	20.0275
1636.5	20.1076
1637	20.577
1637.5	21.3647
1638	21.9749
1638.5	21.9245
1639	21.0836
1639.5	19.7516
1640	18.4701
1640.5	17.8137
1641	18.0053
1641.5	18.815
1642	19.659
1642.5	20.026
1643	19.5705
1643.5	18.4411
1644	17.0829
1644.5	16.178
1645	16.0049
1645.5	16.5896
1646	17.4231
1646.5	18.0612
1647	18.1505
1647.5	17.8705
1648	17.5233
1648.5	17.3831
1649	17.4835
1649.5	17.7249
1650	17.9343
1650.5	18.068
1651	18.1991
1651.5	18.3868
1652	18.6086
1652.5	18.7471
1653	18.7079
1653.5	18.4618
1654	18.1898
1654.5	18.0808
1655	18.3225
1655.5	18.8701
1656	19.5856
1656.5	20.201
1657	20.5325
1657.5	20.5325
1658	20.2704
1658.5	19.8181
1659	19.1486
1659.5	18.2489
1660	17.2078
1660.5	16.3986
1661	16.1946
1661.5	16.8223
1662	18.1191
1662.5	19.5131
1663	20.3432
1663.5	20.3138
1664	19.748
1664.5	19.1985
1665	19.1329
1665.5	19.6571
1666	20.5341
1666.5	21.2896
1667	21.6121
1667.5	21.4289
1668	20.8424
1668.5	19.9214
1669	18.8043
1669.5	17.6249
1670	16.6155
1670.5	15.9101
1671	15.535
1671.5	15.3591
1672	15.1865
1672.5	14.9157
1673	14.6472
1673.5	14.5878
1674	14.9139
1674.5	15.515
1675	16.1845
1675.5	16.6737
1676	16.965
1676.5	17.2553
1677	17.8682
1677.5	18.8423
1678	19.9724
1678.5	20.8099
1679	21.0572
1679.5	20.5522
1680	19.6705
1680.5	18.746
1681	17.9627
1681.5	17.2841
1682	16.6694
1682.5	16.2089
1683	16.0985
1683.5	16.5174
1684	17.1686
1684.5	17.6543
1685	17.5497
1685.5	16.9176
1686	16.0685
1686.5	15.5526
1687	15.5909
1687.5	16.1296
1688	16.9148
1688.5	17.8114
1689	18.7852
1689.5	19.7239
1690	20.3131
1690.5	20.022
1691	18.7818
1691.5	16.8094
1692	14.834
1692.5	13.4855
1693	13.2045
1693.5	13.7038
1694	14.4109
1694.5	14.7708
1695	14.6413
1695.5	14.1051
1696	13.4773
1696.5	13.0845
1697	13.2441
1697.5	13.9862
1698	15.1032
1698.5	16.2256
1699	16.9419
1699.5	17.0207
1700	16.4412
1700.5	15.5363
1701	14.6278
1701.5	13.9266
1702	13.4745
1702.5	13.3249
1703	13.489
1703.5	13.9542
1704	14.5882
1704.5	15.0556
1705	15.1299
1705.5	14.8406
1706	14.5507
1706.5	14.728
1707	15.6304
1707.5	17.0607
1708	18.384
1708.5	18.9871
1709	18.6456
1709.5	17.5324
1710	16.283
1710.5	15.4635
1711	15.4373
1711.5	16.0305
1712	16.8524
1712.5	17.5188
1713	17.9401
1713.5	18.2627
1714	18.7568
1714.5	19.528
1715	20.3121
1715.5	20.6404
1716	20.1021
1716.5	18.7266
1717	16.9401
1717.5	15.3754
1718	14.517
1718.5	14.4651
1719	14.8755
1719.5	15.2438
1720	15.3125
1720.5	15.1241
1721	14.9578
1721.5	15.1339
1722	15.7599
1722.5	16.6355
1723	17.3459
1723.5	17.5665
1724	17.1569
1724.5	16.2347
1725	15.1873
1725.5	14.3951
1726	14.0985
1726.5	14.1846
1727	14.4527
1727.5	14.6902
1728	14.8596
1728.5	15.0576
1729	15.3793
1729.5	15.7996
1730	16.0979
1730.5	16.1094
1731	15.7965
1731.5	15.4023
1732	15.2152
1732.5	15.5218
1733	16.2298
1733.5	17.0665
1734	17.607
1734.5	17.6939
1735	17.3424
1735.5	16.8104
1736	16.3495
1736.5	16.1139
1737	16.016
1737.5	15.8652
1738	15.4801
1738.5	14.9105
1739	14.3236
1739.5	13.9963
1740	14.0573
1740.5	14.5055
1741	15.0633
1741.5	15.4646
1742	15.5688
1742.5	15.5263
1743	15.5302
1743.5	15.724
1744	15.9948
1744.5	16.0882
1745	15.7672
1745.5	15.1417
1746	14.4911
1746.5	14.1077
1747	14.0421
1747.5	14.1447
1748	14.1765
1748.5	14.0976
1749	14.1471
1749.5	14.5345
1750	15.2991
1750.5	16.1735
1751	16.8765
1751.5	17.2063
1752	17.2491
1752.5	17.1038
1753	16.759
1753.5	16.1693
1754	15.3778
1754.5	14.7073
1755	14.5047
1755.5	15
1756	15.8695
1756.5	16.5543
1757	16.4697
1757.5	15.7694
1758	14.8432
1758.5	14.2192
1759	14.0546
1759.5	14.2443
1760	14.4745
1760.5	14.5833
1761	14.5889
1761.5	14.5854
1762	14.5833
1762.5	14.5629
1763	14.5735
1763.5	14.7323
1764	15.1191
1764.5	15.5891
1765	15.8011
1765.5	15.5
1766	14.7175
1766.5	13.6919
1767	12.8067
1767.5	12.2883
1768	12.2527
1768.5	12.6477
1769	13.4553
1769.5	14.4864
1770	15.4326
1770.5	15.8703
1771	15.6753
1771.5	15.0872
1772	14.7643
1772.5	15.246
1773	16.5989
1773.5	18.0163
1774	18.6526
1774.5	17.969
1775	16.3851
1775.5	14.7374
1776	13.9769
1776.5	14.2481
1777	15.1522
1777.5	15.877
1778	16.0541
1778.5	15.7022
1779	15.1437
1779.5	14.5881
1780	14.0381
1780.5	13.4008
1781	12.7109
1781.5	12.2183
1782	12.0722
1782.5	12.2539
1783	12.5826
1783.5	12.9637
1784	13.5328
1784.5	14.4991
1785	15.7977
1785.5	16.8538
1786	16.9542
1786.5	15.8503
1787	13.9858
1787.5	12.3914
1788	11.8777
1788.5	12.5451
1789	13.7022
1789.5	14.4785
1790	14.5336
1790.5	14.2295
1791	14.1463
1791.5	14.4542
1792	14.9171
1792.5	15.0552
1793	14.7309
1793.5	14.159
1794	13.8781
1794.5	14.1165
1795	14.7647
1795.5	15.3691
1796	15.6081
1796.5	15.3166
1797	14.716
1797.5	14.1198
1798	13.9527
1798.5	14.4319
1799	15.5237
1799.5	16.7165
1800	17.4781
1800.5	17.2765
1801	16.3063
1801.5	15.0156
1802	14.1114
1802.5	13.9056
1803	14.3385
1803.5	14.8568
1804	15.0718
1804.5	14.7422
1805	13.9574
1805.5	12.8629
1806	11.7033
1806.5	10.8222
1807	10.5994
1807.5	11.2738
1808	12.4855
1808.5	13.6414
1809	14.145
1809.5	13.8992
1810	13.2062
1810.5	12.6913
1811	12.6723
1811.5	13.0968
1812	13.6014
1812.5	13.9961
1813	14.3569
1813.5	14.7741
1814	15.1288
1814.5	15.104
1815	14.5097
1815.5	13.452
1816	12.4725
1816.5	12.0121
1817	12.0338
1817.5	12.036
1818	11.5649
1818.5	10.6734
1819	9.8349
1819.5	9.71966
1820	10.4172
1820.5	11.5696
1821	12.4144
1821.5	12.5765
1822	12.262
1822.5	12.1729
1823	12.7776
1823.5	14.1668
1824	15.7075
1824.5	16.7325
1825	16.6491
1825.5	15.7107
1826	14.4281
1826.5	13.4851
1827	13.0645
1827.5	13.0523
1828	13.1124
1828.5	13.0999
1829	13.1044
1829.5	13.3181
1830	13.7711
1830.5	14.1772
1831	14.113
1831.5	13.3576
1832	12.1616
1832.5	11.0703
1833	10.6655
1833.5	11.0851
1834	12.0501
1834.5	12.9871
1835	13.4044
1835.5	13.1381
1836	12.4679
1836.5	11.8517
1837	11.5899
1837.5	11.6948
1838	11.9797
1838.5	12.2451
1839	12.427
1839.5	12.6017
1840	12.9043
1840.5	13.332
1841	13.741
1841.5	13.8886
1842	13.6472
1842.5	12.9492
1843	11.951
1843.5	10.871
1844	10.0229
1844.5	9.61998
1845	9.76679
1845.5	10.3667
1846	11.0746
1846.5	11.6244
1847	11.9471
1847.5	12.1832
1848	12.5187
1848.5	12.9744
1849	13.4085
1849.5	13.6023
1850	13.5653
1850.5	13.4678
1851	13.5256
1851.5	13.6657
1852	13.5965
1852.5	13.0754
1853	12.1954
1853.5	11.3932
1854	11.164
1854.5	11.7084
1855	12.7942
1855.5	13.8209
1856	14.257
1856.5	13.9501
1857	13.1131
1857.5	12.0557
1858	11.1835
1858.5	10.7778
1859	11.11
1859.5	12.0442
1860	13.3089
1860.5	14.3723
1861	14.8582
1861.5	14.6794
1862	14.2058
1862.5	13.7838
1863	13.5713
1863.5	13.3629
1864	12.9054
1864.5	12.0854
1865	11.186
1865.5	10.6313
1866	10.7648
1866.5	11.4818
1867	12.3599
1867.5	12.8491
1868	12.7034
1868.5	11.9462
1869	11.0849
1869.5	10.6176
1870	10.9569
1870.5	11.9874
1871	13.3282
1871.5	14.3175
1872	14.574
1872.5	14.0345
1873	13.1594
1873.5	12.325
1874	11.8097
1874.5	11.6112
1875	11.7118
1875.5	12.0995
1876	12.7114
1876.5	13.3522
1877	13.6243
1877.5	13.2696
1878	12.3914
1878.5	11.6487
1879	11.5947
1879.5	12.4016
1880	13.5231
1880.5	14.2504
1881	14.1418
1881.5	13.4003
1882	12.546
1882.5	12.0265
1883	11.8351
1883.5	11.6682
1884	11.411
1884.5	11.2854
1885	11.6826
1885.5	12.6506
1886	13.9247
1886.5	14.9395
1887	15.3769
1887.5	15.1272
1888	14.5097
1888.5	13.7163
1889	12.8175
1889.5	11.8337
1890	10.8654
1890.5	10.1585
1891	9.89239
1891.5	10.1739
1892	10.7688
1892.5	11.378
1893	11.6197
1893.5	11.3571
1894	10.6335
1894.5	9.83486
1895	9.45567
1895.5	9.88645
1896	10.9951
1896.5	12.3028
1897	13.1165
1897.5	13.1169
1898	12.3786
1898.5	11.3932
1899	10.7205
1899.5	10.6946
1900	11.2652
1900.5	12.1112
1901	12.8343
1901.5	13.1225
1902	12.8629
1902.5	12.0973
1903	11.2203
1903.5	10.6423
1904	10.7146
1904.5	11.3352
1905	12.1375
1905.5	12.5406
1906	12.2771
1906.5	11.3957
1907	10.5161
1907.5	10.1747
1908	10.6966
1908.5	11.7686
1909	12.8981
1909.5	13.5073
1910	13.4543
1910.5	12.9242
1911	12.4832
1911.5	12.4876
1912	12.9853
1912.5	13.4809
1913	13.493
1913.5	12.8566
1914	12.0345
1914.5	11.6255
1915	11.9582
1915.5	12.8046
1916	13.604
1916.5	13.8457
1917	13.4294
1917.5	12.6352
1918	11.9391
1918.5	11.6061
1919	11.5897
1919.5	11.6296
1920	11.5032
1920.5	11.2521
1921	11.0968
1921.5	11.3576
1922	12.0031
1922.5	12.7204
1923	12.8427
1923.5	12.0057
1924	10.2596
1924.5	8.48662
1925	7.62539
1925.5	8.39268
1926	10.1952
1926.5	11.9731
1927	12.5815
1927.5	12.0603
1928	10.9994
1928.5	10.278
1929	10.1484
1929.5	10.3881
1930	10.5648
1930.5	10.653
1931	11.0337
1931.5	11.9388
1932	13.1617
1932.5	13.9632
1933	13.8504
1933.5	12.9121
1934	12.037
1934.5	11.9025
1935	12.6794
1935.5	13.585
1936	13.8406
1936.5	12.9695
1937	11.5576
1937.5	10.4045
1938	10.1635
1938.5	10.5988
1939	11.0366
1939.5	10.9018
1940	10.4849
1940.5	11.0771
1941	13.701
1941.5	18.4826
1942	24.168
1942.5	28.713
1943	30.419
1943.5	28.8614
1944	25.0641
1944.5	20.3034
1945	15.8664
1945.5	12.2363
1946	9.65343
1946.5	8.01621
1947	7.41426
1947.5	7.77752
1948	8.59009
1948.5	9.30698
1949	9.58054
1949.5	9.53331
1950	9.57793
1950.5	10.0527
1951	10.9651
1951.5	11.9967
1952	12.7679
1952.5	13.0956
1953	13.102
1953.5	13.0396
1954	13.0584
1954.5	13.0683
1955	12.8707
1955.5	12.3031
1956	11.559
1956.5	10.9114
1957	10.5845
1957.5	10.454
1958	10.2351
1958.5	9.74963
1959	9.21152
1959.5	9.17942
1960	9.96013
1960.5	11.3464
1961	12.503
1961.5	12.6799
1962	11.6652
1962.5	10.1788
1963	9.19591
1963.5	9.28047
1964	9.97072
1964.5	10.5287
1965	10.3314
1965.5	9.63618
1966	8.96223
1966.5	8.79494
1967	9.00155
1967.5	9.16889
1968	8.95488
1968.5	8.51166
1969	8.3393
1969.5	8.80137
1970	9.82169
1970.5	10.9169
1971	11.6161
1971.5	11.853
1972	11.9899
1972.5	12.3605
1973	13.007
1973.5	13.546
1974	13.6159
1974.5	13.0237
1975	12.1785
1975.5	11.5654
1976	11.6174
1976.5	12.1936
1977	12.8584
1977.5	12.9925
1978	12.3945
1978.5	11.2649
1979	10.3377
1979.5	10.1669
1980	10.9153
1980.5	11.923
1981	12.5148
1981.5	12.2965
1982	11.6079
1982.5	11.0301
1983	10.9256
1983.5	11.0569
1984	10.7872
1984.5	9.8071
1985	8.36097
1985.5	7.23813
1986	6.9719
1986.5	7.603
1987	8.50902
1987.5	9.09866
1988	9.09193
1988.5	8.75872
1989	8.4222
1989.5	8.34252
1990	8.63557
1990.5	9.48965
1991	11.0773
1991.5	13.174
1992	15.2322
1992.5	16.4203
1993	16.3142
1993.5	14.7976
1994	12.6058
1994.5	10.3947
1995	8.79434
1995.5	7.99867
1996	8.1119
1996.5	9.02028
1997	10.3999
1997.5	11.8453
1998	12.9192
1998.5	13.4823
1999	13.5503
1999.5	13.3147
2000	12.7539
2000.5	11.7254
2001	10.2954
2001.5	8.78375
2002	7.84117
2002.5	7.89629
2003	9.15598
2003.5	11.0252
2004	12.8267
2004.5	13.8024
2005	13.7799
2005.5	12.8665
2006	11.5894
2006.5	10.4984
2007	9.98823
2007.5	10.003
2008	10.2201
2008.5	10.2517
2009	10.0713
2009.5	9.94485
2010	10.2954
2010.5	11.1596
2011	12.2578
2011.5	13.0387
2012	13.2393
2012.5	12.863
2013	12.2721
2013.5	11.6719
2014	11.0954
2014.5	10.5325
2015	10.1453
2015.5	10.2751
2016	10.9906
2016.5	12.0026
2017	12.5761
2017.5	12.2512
2018	10.9461
2018.5	9.39023
2019	8.19063
2019.5	7.65252
2020	7.54141
2020.5	7.65695
2021	7.96031
2021.5	8.50078
2022	9.17647
2022.5	9.57805
2023	9.40985
2023.5	8.7312
2024	8.19249
2024.5	8.36267
2025	9.29785
2025.5	10.3121
2026	10.5672
2026.5	9.80943
2027	8.58877
2027.5	7.93516
2028	8.42609
2028.5	9.93563
2029	11.689
2029.5	12.9117
2030	13.2623
2030.5	12.9519
2031	12.3677
2031.5	11.7459
2032	11.2354
2032.5	10.9793
2033	11.2297
2033.5	11.9394
2034	12.8388
2034.5	13.3583
2035	13.1924
2035.5	12.37
2036	11.4143
2036.5	10.7302
2037	10.4042
2037.5	10.0611
2038	9.43235
2038.5	8.6241
2039	8.14528
2039.5	8.44763
2040	9.49811
2040.5	10.7592
2041	11.6518
2041.5	12.0292
2042	12.1746
2042.5	12.5318
2043	13.2037
2043.5	13.9789
2044	14.4776
2044.5	14.5492
2045	14.1717
2045.5	13.4581
2046	12.5149
2046.5	11.4712
2047	10.593
2047.5	10.113
2048	10.1305
2048.5	10.3103
2049	10.2239
2049.5	9.55673
2050	8.5004
2050.5	7.56641
2051	7.35331
2051.5	8.07176
2052	9.6688
2052.5	11.5445
2053	13.1971
2053.5	14.1315
2054	14.2431
2054.5	13.538
2055	12.3232
2055.5	10.9531
2056	9.73555
2056.5	8.84601
2057	8.37889
2057.5	8.50741
2058	9.20739
2058.5	10.3836
2059	11.6352
2059.5	12.5273
2060	12.7691
2060.5	12.5406
2061	12.2074
2061.5	12.0887
2062	12.1427
2062.5	12.1792
2063	12.0634
2063.5	11.9337
2064	12.0043
2064.5	12.3062
2065	12.5921
2065.5	12.5103
2066	12.0046
2066.5	11.3221
2067	10.9308
2067.5	11.0657
2068	11.6972
2068.5	12.4703
2069	12.9897
2069.5	12.9812
2070	12.5459
2070.5	12.0533
2071	12.0486
2071.5	12.7229
2072	13.8353
2072.5	14.6148
2073	14.4276
2073.5	13.0772
2074	11.2066
2074.5	9.71197
2075	9.27744
2075.5	9.73165
2076	10.5279
2076.5	11.0064
2077	10.915
2077.5	10.2891
2078	9.43049
2078.5	8.73198
2079	8.55946
2079.5	8.99506
2080	9.7079
2080.5	10.015
2081	9.42855
2081.5	8.03553
2082	6.64235
2082.5	6.15315
2083	6.95745
2083.5	8.49326
2084	9.81841
2084.5	10.2881
2085	10.1863
2085.5	10.1673
2086	10.8098
2086.5	11.8278
2087	12.6139
2087.5	12.5533
2088	11.7775
2088.5	10.7782
2089	10.1842
2089.5	10.1389
2090	10.4256
2090.5	10.5672
2091	10.3245
2091.5	9.69583
2092	8.96272
2092.5	8.35386
2093	8.00899
2093.5	7.91289
2094	8.06456
2094.5	8.45638
2095	9.09164
2095.5	9.94699
2096	10.828
2096.5	11.5358
2097	11.9137
2097.5	12.053
2098	12.1306
2098.5	12.3172
2099	12.5728
2099.5	12.6694
2100	12.3837
2100.5	11.6692
2101	10.6463
2101.5	9.59447
2102	8.71673
2102.5	8.20931
2103	8.20266
2103.5	8.8919
2104	10.1885
2104.5	11.7174
2105	12.7964
2105.5	12.9569
2106	12.1717
2106.5	11.0194
2107	10.3477
2107.5	10.7344
2108	12.0632
2108.5	13.633
2109	14.5639
2109.5	14.373
2110	13.133
2110.5	11.298
2111	9.59359
2111.5	8.47505
2112	8.14709
2112.5	8.44397
2113	9.22118
2113.5	10.2582
2114	11.3608
2114.5	12.2262
2115	12.5455
2115.5	12.1247
2116	11.0082
2116.5	9.6789
2117	8.61839
2117.5	8.15125
2118	8.1746
2118.5	8.43291
2119	8.65077
2119.5	8.80742
2120	9.07545
2120.5	9.57376
2121	10.2388
2121.5	10.7359
2122	10.7428
2122.5	10.0814
2123	9.06263
2123.5	8.24434
2124	8.28177
2124.5	9.21783
2125	10.6447
2125.5	11.7657
2126	12.1402
2126.5	11.8414
2127	11.5142
2127.5	11.6554
2128	12.3214
2128.5	12.943
2129	13.0317
2129.5	12.3663
2130	11.4086
2130.5	10.5865
2131	10.1604
2131.5	10.0157
2132	10.0233
2132.5	10.1314
2133	10.3391
2133.5	10.5525
2134	10.5741
2134.5	10.3295
2135	9.9819
2135.5	9.83845
2136	10.0503
2136.5	10.4805
2137	10.8938
2137.5	11.2205
2138	11.5963
2138.5	12.0691
2139	12.4071
2139.5	12.3071
2140	11.7454
2140.5	11.1846
2141	11.1284
2141.5	11.6487
2142	12.0599
2142.5	11.6639
2143	10.1761
2143.5	8.39938
2144	7.24214
2144.5	7.38576
2145	8.36559
2145.5	9.49833
2146	10.1403
2146.5	10.27
2147	10.1256
2147.5	10.0165
2148	10.0267
2148.5	10.118
2149	10.1773
2149.5	10.1049
2150	9.8088
2150.5	9.36227
2151	8.93773
2151.5	8.71078
2152	8.58392
2152.5	8.18752
2153	7.22771
2153.5	5.85048
2154	4.76702
2154.5	4.70483
2155	5.97881
2155.5	8.16251
2156	10.3369
2156.5	11.7091
2157	12.0004
2157.5	11.448
2158	10.4104
2158.5	9.34026
2159	8.47922
2159.5	8.06243
2160	8.24314
2160.5	9.31915
2161	11.543
2161.5	14.7507
2162	18.373
2162.5	21.1576
2163	22.074
2163.5	20.2784
2164	16.7514
2164.5	12.7663
2165	9.90016
2165.5	8.63358
2166	8.75636
2166.5	9.34585
2167	9.80032
2167.5	9.97029
2168	10.1279
2168.5	10.4588
2169	10.9383
2169.5	11.3542
2170	11.5607
2170.5	11.5745
2171	11.5373
2171.5	11.5732
2172	11.6801
2172.5	11.72
2173	11.3875
2173.5	10.5276
2174	9.18805
2174.5	7.84057
2175	7.09639
2175.5	7.39119
2176	8.46729
2176.5	9.62395
2177	10.1768
2177.5	10.1591
2178	10.0662
2178.5	10.4699
2179	11.2038
2179.5	11.6685
2180	11.2837
2180.5	10.3235
2181	9.59512
2181.5	9.82746
2182	10.8856
2182.5	11.9321
2183	12.1193
2183.5	11.3055
2184	10.094
2184.5	9.25433
2185	9.10839
2185.5	9.35778
2186	9.56701
2186.5	9.53582
2187	9.47485
2187.5	9.64232
2188	10.1777
2188.5	10.8655
2189	11.4413
2189.5	11.6559
2190	11.4799
2190.5	10.9455
2191	10.2234
2191.5	9.47936
2192	8.87663
2192.5	8.46495
2193	8.22142
2193.5	8.10054
2194	8.11013
2194.5	8.37078
2195	8.98307
2195.5	9.83427
2196	10.615
2196.5	10.9566
2197	10.7497
2197.5	10.1351
2198	9.49294
2198.5	8.97863
2199	8.46709
2199.5	7.73693
2200	6.71021
2200.5	5.64825
2201	4.88037
2201.5	4.71252
2202	5.09843
2202.5	5.92593
2203	7.03807
2203.5	8.18703
2204	9.1106
2204.5	9.57549
2205	9.64586
2205.5	9.58979
2206	9.75897
2206.5	10.2046
2207	10.6726
2207.5	10.8407
2208	10.6368
2208.5	10.2975
2209	10.1005
2209.5	10.1189
2210	10.1673
2210.5	10.0849
2211	9.85754
2211.5	9.64799
2212	9.55529
2212.5	9.5673
2213	9.58673
2213.5	9.58104
2214	9.58304
2214.5	9.60763
2215	9.61431
2215.5	9.56315
2216	9.50131
2216.5	9.58284
2217	9.88674
2217.5	10.3498
2218	10.6906
2218.5	10.6334
2219	10.0106
2219.5	8.98938
2220	7.92838
2220.5	7.22447
2221	7.00322
2221.5	7.14634
2222	7.39493
2222.5	7.56219
2223	7.67008
2223.5	7.88319
2224	8.26677
2224.5	8.73095
2225	9.05696
2225.5	9.1566
2226	9.10753
2226.5	9.13342
2227	9.33311
2227.5	9.61654
2228	9.77569
2228.5	9.65339
2229	9.23386
2229.5	8.60139
2230	7.83134
2230.5	7.09262
2231	6.61821
2231.5	6.77246
2232	7.54074
2232.5	8.63926
2233	9.42887
2233.5	9.554
2234	9.08433
2234.5	8.6624
2235	8.72303
2235.5	9.24908
2236	9.56489
2236.5	9.11787
2237	7.80286
2237.5	6.3434
2238	5.57609
2238.5	6.02705
2239	7.4151
2239.5	9.11803
2240	10.4025
2240.5	11.0145
2241	11.0065
2241.5	10.7791
2242	10.5423
2242.5	10.3462
2243	10.1281
2243.5	9.8681
2244	9.65841
2244.5	9.60568
2245	9.78524
2245.5	10.0853
2246	10.3219
2246.5	10.2125
2247	9.66141
2247.5	8.76426
2248	8.01224
2248.5	7.92105
2249	8.84228
2249.5	10.345
2250	11.6977
2250.5	12.08
2251	11.5759
2251.5	10.5907
2252	9.63617
2252.5	8.85873
2253	8.30975
2253.5	8.3518
2254	9.52732
2254.5	12.3736
2255	16.2332
2255.5	20.0473
2256	22.6091
2256.5	23.7908
2257	23.8328
2257.5	22.9941
2258	21.1812
2258.5	18.0603
2259	14.101
2259.5	10.2823
2260	7.86246
2260.5	7.03385
2261	7.44433
2261.5	8.41742
2262	9.48297
2262.5	10.4535
2263	11.0673
2263.5	11.0655
2264	10.3257
2264.5	9.39102
2265	8.86755
2265.5	9.1204
2266	9.71569
2266.5	10.1332
2267	10.1097
2267.5	9.92476
2268	9.95172
2268.5	10.2524
2269	10.563
2269.5	10.545
2270	10.2081
2270.5	9.74108
2271	9.37714
2271.5	9.16611
2272	9.07732
2272.5	9.06269
2273	9.08204
2273.5	9.03963
2274	8.79737
2274.5	8.30312
2275	7.64305
2275.5	7.05026
2276	6.68103
2276.5	6.58314
2277	6.71304
2277.5	7.12651
2278	7.88789
2278.5	8.93201
2279	9.99223
2279.5	10.6718
2280	10.7433
2280.5	10.2328
2281	9.54736
2281.5	9.0737
2282	9.07252
2282.5	9.46431
2283	9.97947
2283.5	10.1863
2284	9.82683
2284.5	8.81939
2285	7.60805
2285.5	6.68357
2286	6.50614
2286.5	7.01907
2287	7.93241
2287.5	8.71295
2288	9.02289
2288.5	8.6604
2289	7.85904
2289.5	6.9594
2290	6.45801
2290.5	6.55457
2291	7.15241
2291.5	7.77002
2292	8.06311
2292.5	8.06029
2293	8.23792
2293.5	8.88716
2294	9.8618
2294.5	10.5032
2295	10.366
2295.5	9.52358
2296	8.60136
2296.5	8.11454
2297	8.13699
2297.5	8.37992
2298	8.56205
2298.5	8.61275
2299	8.59584
2299.5	8.60305
2300	8.73928
2300.5	9.13415
2301	9.79046
2301.5	10.4236
2302	10.5929
2302.5	10.1355
2303	9.34078
2303.5	8.75374
2304	8.60143
2304.5	8.69883
2305	8.66137
2305.5	8.42605
2306	8.18372
2306.5	8.07503
2307	7.95165
2307.5	7.65215
2308	7.47788
2308.5	7.9341
2309	9.24547
2309.5	10.5935
2310	10.9861
2310.5	9.99328
2311	8.51791
2311.5	7.91032
2312	8.8523
2312.5	10.718
2313	12.0901
2313.5	12.0147
2314	10.5645
2314.5	8.75298
2315	7.67677
2315.5	7.83917
2316	8.83964
2316.5	9.84513
2317	10.0912
2317.5	9.51162
2318	8.54856
2318.5	7.82045
2319	7.54522
2319.5	7.60609
2320	7.76759
2320.5	8.01111
2321	8.48366
2321.5	9.15693
2322	9.77213
2322.5	10.0427
2323	10.095
2323.5	10.2097
2324	10.4885
2324.5	10.5803
2325	10.1319
2325.5	9.43177
2326	9.3907
2326.5	10.9754
2327	13.9605
2327.5	17.3127
2328	19.4776
2328.5	19.7465
2329	18.0095
2329.5	14.8194
2330	11.2204
2330.5	8.24724
2331	6.79371
2331.5	6.95995
2332	8.30268
2332.5	9.67161
2333	10.4402
2333.5	10.5822
2334	10.6499
2334.5	10.9048
2335	11.1263
2335.5	11.0206
2336	10.5741
2336.5	10.1803
2337	10.0683
2337.5	10.1097
2338	9.91629
2338.5	9.37309
2339	8.80516
2339.5	8.61113
2340	8.86058
2340.5	9.08065
2341	8.84196
2341.5	8.10456
2342	7.54691
2342.5	7.76108
2343	8.94498
2343.5	10.4017
2344	11.3843
2344.5	11.4254
2345	10.7956
2345.5	9.95203
2346	9.25695
2346.5	8.68233
2347	8.05873
2347.5	7.39849
2348	6.90805
2348.5	6.84358
2349	7.14328
2349.5	7.60687
2350	8.00408
2350.5	8.29137
2351	8.4934
2351.5	8.62176
2352	8.64851
2352.5	8.58148
2353	8.52872
2353.5	8.56485
2354	8.64318
2354.5	8.64481
2355	8.54921
2355.5	8.60327
2356	9.10943
2356.5	10.2817
2357	11.6532
2357.5	12.5722
2358	12.3194
2358.5	11.0037
2359	9.15377
2359.5	7.69843
2360	7.0956
2360.5	7.38246
2361	8.03504
2361.5	8.69285
2362	9.22763
2362.5	9.70146
2363	10.066
2363.5	10.1138
2364	9.79575
2364.5	9.24408
2365	8.78462
2365.5	8.5744
2366	8.57946
2366.5	8.57903
2367	8.45233
2367.5	8.20376
2368	7.97313
2368.5	7.92252
2369	8.2012
2369.5	8.78904
2370	9.49896
2370.5	9.92735
2371	9.82903
2371.5	9.14079
2372	8.24741
2372.5	7.48006
2373	7.09194
2373.5	7.07959
2374	7.40184
2374.5	7.87004
2375	8.21054
2375.5	8.06577
2376	7.43826
2376.5	6.70648
2377	6.59373
2377.5	7.30426
2378	8.51767
2378.5	9.36064
2379	9.31487
2379.5	8.35457
2380	7.15036
2380.5	6.21166
2381	5.70005
2381.5	5.30029
2382	4.88819
2382.5	4.87435
2383	5.93208
2383.5	8.57129
2384	12.3732
2384.5	16.2421
2385	18.8208
2385.5	19.5001
2386	18.4196
2386.5	16.1535
2387	13.6255
2387.5	11.4286
2388	10.0998
2388.5	9.81892
2389	10.572
2389.5	11.5791
2390	12.0434
2390.5	11.3275
2391	9.8763
2391.5	8.47631
2392	8.01481
2392.5	8.50059
2393	9.46084
2393.5	10.1078
2394	10.1387
2394.5	9.67254
2395	9.22663
2395.5	9.06287
2396	9.1436
2396.5	9.18251
2397	9.03641
2397.5	8.79043
2398	8.60803
2398.5	8.49553
2399	8.25891
2399.5	7.83153
2400	7.49326
2400.5	7.74
2401	8.71721
2401.5	9.90948
2402	10.4985
2402.5	10.0334
2403	8.90529
2403.5	7.91279
2404	7.63746
2404.5	7.86494
2405	8.07656
2405.5	7.83398
2406	7.3138
2406.5	6.8825
2407	6.86133
2407.5	7.24902
2408	8.01116
2408.5	9.0182
2409	10.0285
2409.5	10.5359
2410	10.1364
2410.5	8.80904
2411	7.13841
2411.5	6.04579
2412	6.10918
2412.5	7.06948
2413	8.22269
2413.5	9.07551
2414	9.68822
2414.5	10.3148
2415	10.9173
2415.5	11.0122
2416	10.1799
2416.5	8.6001
2417	7.19411
2417.5	6.81757
2418	7.42739
2418.5	8.2652
2419	8.51997
2419.5	8.15667
2420	7.67422
2420.5	7.70381
2421	8.2143
2421.5	8.78686
2422	8.8938
2422.5	8.52827
2423	8.08347
2423.5	8.0658
2424	8.57564
2424.5	9.29327
2425	9.54362
2425.5	8.85843
2426	7.25004
2426.5	5.52676
2427	4.65269
2427.5	5.16137
2428	6.48319
2428.5	7.41738
2429	7.097
2429.5	5.67538
2430	4.19692
2430.5	3.66145
2431	4.25283
2431.5	5.23837
2432	5.90394
2432.5	6.22488
2433	6.91398
2433.5	8.30579
2434	10.0233
2434.5	11.1522
2435	11.2349
2435.5	10.4243
2436	9.31251
2436.5	8.14658
2437	6.98095
2437.5	6.06546
2438	6.07759
2438.5	7.21191
2439	8.90353
2439.5	9.93056
2440	9.75293
2440.5	8.76152
2441	8.13534
2441.5	8.44278
2442	9.42149
2442.5	10.1445
2443	10.2291
2443.5	9.85585
2444	9.42769
2444.5	8.94253
2445	8.16338
2445.5	7.17562
2446	6.40883
2446.5	6.41228
2447	7.20173
2447.5	8.39216
2448	9.24118
2448.5	9.34398
2449	8.52074
2449.5	7.28676
2450	6.28017
2450.5	6.24774
2451	7.2202
2451.5	8.69307
2452	9.61338
2452.5	9.4891
2453	8.54746
2453.5	7.73655
2454	7.61891
2454.5	8.21439
2455	8.93942
2455.5	9.40872
2456	9.61988
2456.5	9.8075
2457	10.0625
2457.5	10.2228
2458	10.1659
2458.5	9.87881
2459	9.45372
2459.5	8.84334
2460	7.97641
2460.5	7.08499
2461	6.69801
2461.5	7.31523
2462	8.68687
2462.5	10.0547
2463	10.6306
2463.5	10.2879
2464	9.48264
2464.5	8.86041
2465	8.60907
2465.5	8.47894
2466	8.23117
2466.5	7.94899
2467	7.91769
2467.5	8.19255
2468	8.52722
2468.5	8.55844
2469	8.19123
2469.5	7.71273
2470	7.57221
2470.5	8.06461
2471	8.9633
2471.5	9.78557
2472	10.0195
2472.5	9.58854
2473	8.75779
2473.5	8.00835
2474	7.63275
2474.5	7.61769
2475	7.65624
2475.5	7.52709
2476	7.25483
2476.5	7.12031
2477	7.32461
2477.5	7.87533
2478	8.37886
2478.5	8.42936
2479	7.72428
2479.5	6.59128
2480	5.56619
2480.5	5.27202
2481	5.88583
2481.5	7.30008
2482	8.88606
2482.5	10.0867
2483	10.38
2483.5	9.89637
2484	8.99058
2484.5	8.15607
2485	7.59394
2485.5	7.2153
2486	6.73401
2486.5	6.05477
2487	5.35194
2487.5	4.98934
2488	5.14225
2488.5	5.74383
2489	6.44772
2489.5	6.96207
2490	7.11069
2490.5	6.96147
2491	6.69666
2491.5	6.61541
2492	6.89144
2492.5	7.57402
2493	8.38009
2493.5	8.97229
2494	8.98835
2494.5	8.48982
2495	7.89866
2495.5	8.05102
2496	9.35893
2496.5	11.5311
2497	13.2893
2497.5	13.5978
2498	12.0289
2498.5	9.68043
2499	7.75325
2499.5	7.05127
2500	7.21554
2500.5	7.5774
2501	7.7826
2501.5	8.00246
2502	8.54596
2502.5	9.25949
2503	9.68023
2503.5	9.17023
2504	7.69516
2504.5	5.63223
2505	3.77937
2505.5	2.67051
2506	2.52429
2506.5	2.87221
2507	3.31317
2507.5	3.8197
2508	4.75076
2508.5	6.28465
2509	7.93909
2509.5	8.95641
2510	8.83514
2510.5	8.00363
2511	7.18526
2511.5	6.96809
2512	7.20264
2512.5	7.63696
2513	8.08504
2513.5	8.37892
2514	8.19776
2514.5	7.3145
2515	6.089
2515.5	5.46394
2516	6.02077
2516.5	7.40876
2517	8.50264
2517.5	8.54995
2518	7.66816
2518.5	6.78628
2519	6.54521
2519.5	6.87405
2520	7.11509
2520.5	6.96504
2521	6.52367
2521.5	6.17381
2522	6.08577
2522.5	6.23539
2523	6.48212
2523.5	6.75635
2524	6.98693
2524.5	7.08275
2525	6.92694
2525.5	6.53439
2526	6.0231
2526.5	5.64523
2527	5.64942
2527.5	6.19854
2528	7.25094
2528.5	8.42605
2529	9.19242
2529.5	9.07132
2530	8.02215
2530.5	6.36187
2531	4.8936
2531.5	4.13184
2532	4.31107
2532.5	5.0437
2533	5.95663
2533.5	6.78353
2534	7.50529
2534.5	8.06018
2535	8.21387
2535.5	7.78539
2536	6.82588
2536.5	5.91056
2537	5.50538
2537.5	5.73809
2538	6.17206
2538.5	6.45983
2539	6.58876
2539.5	6.7462
2540	7.00825
2540.5	7.1932
2541	7.16323
2541.5	7.06436
2542	7.21262
2542.5	7.72491
2543	8.31521
2543.5	8.56102
2544	8.1684
2544.5	7.3622
2545	6.62357
2545.5	6.46224
2546	6.83389
2546.5	7.38338
2547	7.51278
2547.5	7.02922
2548	6.1552
2548.5	5.5368
2549	5.49012
2549.5	6.00044
2550	6.69251
2550.5	7.35073
2551	7.85388
2551.5	8.07234
2552	7.81062
2552.5	7.15226
2553	6.62644
2553.5	6.87248
2554	7.88372
2554.5	8.92462
2555	8.78875
2555.5	7.32985
2556	5.23892
2556.5	3.79002
2557	3.62495
2557.5	4.76874
2558	6.51704
2558.5	8.11249
2559	8.94677
2559.5	8.86702
2560	8.02982
2560.5	6.89826
2561	6.12274
2561.5	6.08463
2562	6.68878
2562.5	7.39725
2563	7.82697
2563.5	8.00626
2564	8.22427
2564.5	8.69493
2565	9.12293
2565.5	9.01444
2566	8.09518
2566.5	6.90021
2567	6.18065
2567.5	6.35766
2568	6.9287
2568.5	6.92377
2569	6.02672
2569.5	4.87799
2570	4.65703
2570.5	5.6304
2571	7.25174
2571.5	8.39349
2572	8.64495
2572.5	8.29956
2573	7.87905
2573.5	7.46568
2574	6.90167
2574.5	6.31296
2575	6.11234
2575.5	6.61566
2576	7.41216
2576.5	7.97405
2577	8.09372
2577.5	8.14857
2578	8.59697
2578.5	9.30708
2579	9.75741
2579.5	9.50145
2580	8.91662
2580.5	8.60155
2581	9.01396
2581.5	9.79805
2582	10.2695
2582.5	10.0075
2583	9.27257
2583.5	8.67939
2584	8.64454
2584.5	9.00179
2585	9.04822
2585.5	8.36759
2586	7.05118
2586.5	5.77244
2587	5.1015
2587.5	5.28277
2588	5.95535
2588.5	6.76448
2589	7.61928
2589.5	8.57358
2590	9.53738
2590.5	10.0346
2591	9.59052
2591.5	8.04801
2592	6.02089
2592.5	4.44875
2593	4.31692
2593.5	5.6435
2594	7.69664
2594.5	9.09336
2595	9.13681
2595.5	7.93228
2596	6.52866
2596.5	5.94764
2597	6.7079
2597.5	8.16964
2598	9.50003
2598.5	10.0632
2599	9.98681
2599.5	9.6171
2600	9.316
2600.5	9.13151
2601	8.96237
2601.5	8.7299
2602	8.43652
2602.5	8.03095
2603	7.38301
2603.5	6.47443
2604	5.62067
2604.5	5.33001
2605	5.90331
2605.5	7.03988
2606	7.9271
2606.5	7.91747
2607	7.18836
2607.5	6.3164
2608	5.78695
2608.5	5.58625
2609	5.62481
2609.5	6.06336
2610	6.94345
2610.5	7.8681
2611	7.88214
2611.5	6.63792
2612	4.74999
2612.5	3.81692
2613	4.45475
2613.5	6.16019
2614	7.54589
2614.5	8.04791
2615	8.0883
2615.5	8.29882
2616	8.55986
2616.5	8.25841
2617	7.30639
2617.5	6.27895
2618	5.91216
2618.5	6.14022
2619	6.3239
2619.5	6.10497
2620	5.73918
2620.5	5.92936
2621	6.93312
2621.5	8.39741
2622	9.47124
2622.5	9.62767
2623	8.73186
2623.5	7.62101
2624	7.12722
2624.5	7.5141
2625	7.99946
2625.5	7.62903
2626	6.20615
2626.5	4.61387
2627	4.01121
2627.5	4.36736
2628	4.94401
2628.5	5.04598
2629	5.01902
2629.5	5.63848
2630	7.13337
2630.5	8.76575
2631	9.63448
2631.5	9.41147
2632	8.37094
2632.5	6.95157
2633	5.69454
2633.5	5.01261
2634	5.23093
2634.5	5.98063
2635	6.54147
2635.5	6.34422
2636	5.74474
2636.5	5.54099
2637	6.12808
2637.5	7.20048
2638	8.12589
2638.5	8.76269
2639	9.262
2639.5	9.55993
2640	9.29824
2640.5	8.18618
2641	6.77091
2641.5	5.76155
2642	5.45929
2642.5	5.27721
2643	4.71339
2643.5	3.91658
2644	3.70741
2644.5	4.61826
2645	6.23423
2645.5	7.55682
2646	7.59626
2646.5	6.46345
2647	4.98259
2647.5	4.24424
2648	4.58512
2648.5	5.67049
2649	6.46482
2649.5	6.44449
2650	5.8674
2650.5	5.67167
2651	6.23741
2651.5	6.97858
2652	6.70094
2652.5	5.19269
2653	3.60457
2653.5	3.43527
2654	5.2008
2654.5	7.48363
2655	8.59777
2655.5	7.89187
2656	6.5147
2656.5	5.61874
2657	5.56738
2657.5	5.36471
2658	4.4645
2658.5	3.31194
2659	2.86513
2659.5	3.63525
2660	4.88169
2660.5	5.68365
2661	5.58092
2661.5	5.03116
2662	4.56473
2662.5	4.59922
2663	5.14764
2663.5	6.21872
2664	7.58788
2664.5	8.76184
2665	9.10931
2665.5	8.6411
2666	7.82891
2666.5	7.26947
2667	7.08919
2667.5	7.0882
2668	7.09923
2668.5	7.2894
2669	7.8894
2669.5	8.76476
2670	9.45283
2670.5	9.48731
2671	9.00122
2671.5	8.40612
2672	8.25875
2672.5	8.73515
2673	9.6748
2673.5	10.5216
2674	10.8115
2674.5	10.2596
2675	9.13527
2675.5	7.96167
2676	7.2684
2676.5	7.06842
2677	7.10139
2677.5	6.93676
2678	6.44205
2678.5	5.85113
2679	5.64742
2679.5	6.05143
2680	6.94342
2680.5	7.65435
2681	7.71972
2681.5	7.07096
2682	6.33437
2682.5	6.0922
2683	6.57213
2683.5	7.26555
2684	7.63444
2684.5	7.55283
2685	7.37287
2685.5	7.57697
2686	7.99699
2686.5	8.13054
2687	7.5653
2687.5	6.79304
2688	6.78025
2688.5	7.99739
2689	9.6782
2689.5	10.4837
2690	9.79334
2690.5	8.3274
2691	7.71807
2691.5	8.45448
2692	9.86011
2692.5	10.4199
2693	9.59908
2693.5	8.08618
2694	7.19366
2694.5	7.35631
2695	8.16317
2695.5	8.58128
2696	8.25787
2696.5	7.51739
2697	7.00929
2697.5	7.07967
2698	7.56952
2698.5	8.00829
2699	7.92844
2699.5	7.10773
2700	5.66593
2700.5	4.20814
2701	3.54705
2701.5	4.07788
2702	5.4131
2702.5	6.47908
2703	6.51291
2703.5	5.91049
2704	5.60254
2704.5	6.33323
2705	7.66889
2705.5	8.76084
2706	9.08041
2706.5	9.0654
2707	9.25653
2707.5	9.79507
2708	10.1893
2708.5	9.92291
2709	8.95222
2709.5	7.56463
2710	6.18962
2710.5	5.23486
2711	4.96624
2711.5	5.38687
2712	5.92274
2712.5	5.86922
2713	5.1071
2713.5	4.27552
2714	4.25156
2714.5	5.12475
2715	6.22168
2715.5	6.81694
2716	6.96169
2716.5	7.44913
2717	8.25096
2717.5	8.6019
2718	8.04607
2718.5	7.13859
2719	6.68881
2719.5	7.0178
2720	7.37943
2720.5	7.20793
2721	6.54172
2721.5	5.99087
2722	5.86313
2722.5	5.9731
2723	6.03019
2723.5	6.00771
2724	6.16963
2724.5	6.63096
2725	7.09108
2725.5	7.53364
2726	7.97354
2726.5	8.39528
2727	8.6788
2727.5	8.73574
2728	8.68791
2728.5	8.72879
2729	8.76234
2729.5	8.48555
2730	7.84475
2730.5	7.49304
2731	8.11546
2731.5	9.57378
2732	10.7315
2732.5	10.2339
2733	8.28363
2733.5	6.24398
2734	5.49282
2734.5	6.32383
2735	7.60092
2735.5	8.2861
2736	8.18205
2736.5	7.75733
2737	7.54895
2737.5	7.66522
2738	8.02084
2738.5	8.49497
2739	8.85473
2739.5	8.75213
2740	8.0808
2740.5	7.1877
2741	6.75798
2741.5	7.34058
2742	8.68441
2742.5	10.0815
2743	10.8017
2743.5	10.4647
2744	9.36501
2744.5	8.15096
2745	7.37459
2745.5	7.23061
2746	7.46777
2746.5	7.68508
2747	7.79584
2747.5	7.98393
2748	8.41339
2748.5	8.92537
2749	9.23101
2749.5	9.2733
2750	9.24273
2750.5	9.3005
2751	9.30117
2751.5	9.04346
2752	8.57274
2752.5	8.15581
2753	7.93594
2753.5	7.72375
2754	7.40135
2754.5	7.23485
2755	7.75515
2755.5	9.02058
2756	10.2986
2756.5	10.7045
2757	9.90731
2757.5	8.45858
2758	7.29988
2758.5	6.80381
2759	6.73827
2759.5	6.67238
2760	6.41569
2760.5	6.06464
2761	5.64873
2761.5	5.09748
2762	4.494
2762.5	4.28853
2763	4.84678
2763.5	5.92116
2764	6.62179
2764.5	6.02527
2765	4.42005
2765.5	3.18551
2766	3.59218
2766.5	5.71733
2767	8.10924
2767.5	9.05326
2768	8.19708
2768.5	6.49504
2769	5.34502
2769.5	5.48863
2770	6.43305
2770.5	7.38989
2771	7.84196
2771.5	7.74968
2772	7.44777
2772.5	7.26382
2773	7.27657
2773.5	7.31132
2774	7.09241
2774.5	6.61023
2775	6.19345
2775.5	6.11514
2776	6.23405
2776.5	5.98064
2777	5.06217
2777.5	3.96145
2778	3.53757
2778.5	4.27918
2779	5.75794
2779.5	6.86364
2780	6.96415
2780.5	6.25608
2781	5.52993
2781.5	5.61196
2782	6.61815
2782.5	8.05511
2783	9.16103
2783.5	9.30889
2784	8.40916
2784.5	7.13551
2785	6.3024
2785.5	6.34784
2786	7.05203
2786.5	7.70612
2787	7.83322
2787.5	7.5443
2788	7.26586
2788.5	7.29981
2789	7.55164
2789.5	7.73394
2790	7.76002
2790.5	7.74354
2791	7.78158
2791.5	7.78013
2792	7.61488
2792.5	7.36369
2793	7.25144
2793.5	7.4194
2794	7.78147
2794.5	8.19283
2795	8.67194
2795.5	9.2449
2796	9.68498
2796.5	9.50069
2797	8.54886
2797.5	7.27388
2798	6.38689
2798.5	6.30221
2799	6.86876
2799.5	7.67185
2800	8.56325
2800.5	9.46909
2801	10.0642
2801.5	9.78666
2802	8.59543
2802.5	7.12554
2803	6.13334
2803.5	5.82892
2804	5.73581
2804.5	5.36515
2805	4.86025
2805.5	4.66819
2806	4.98063
2806.5	5.50288
2807	5.77667
2807.5	5.65745
2808	5.24229
2808.5	4.71996
2809	4.38291
2809.5	4.64527
2810	5.67702
2810.5	7.15088
2811	8.37572
2811.5	8.82073
2812	8.62212
2812.5	8.34365
2813	8.23831
2813.5	8.13512
2814	7.78385
2814.5	7.25547
2815	6.84195
2815.5	6.60357
2816	6.38404
2816.5	6.15301
2817	6.25688
2817.5	6.99528
2818	8.06158
2818.5	8.67611
2819	8.25147
2819.5	7.03521
2820	6.11482
2820.5	6.32658
2821	7.58948
2821.5	9.06837
2822	9.83325
2822.5	9.53658
2823	8.63317
2823.5	7.75092
2824	7.28867
2824.5	7.24611
2825	7.27239
2825.5	6.95592
2826	6.22629
2826.5	5.46081
2827	5.26707
2827.5	6.01977
2828	7.41026
2828.5	8.69998
2829	9.44304
2829.5	9.71182
2830	9.81759
2830.5	9.81441
2831	9.46633
2831.5	8.75533
2832	8.062
2832.5	7.76743
2833	7.71311
2833.5	7.27787
2834	6.3542
2834.5	5.70767
2835	6.30267
2835.5	8.21735
2836	10.1619
2836.5	10.6329
2837	9.49023
2837.5	7.94593
2838	7.43394
2838.5	8.30579
2839	9.3849
2839.5	9.32678
2840	7.8699
2840.5	5.89911
2841	4.65444
2841.5	4.76256
2842	5.6239
2842.5	6.26639
2843	6.12569
2843.5	5.38613
2844	4.75625
2844.5	4.84455
2845	5.54414
2845.5	6.31481
2846	6.70279
2846.5	6.72842
2847	6.87326
2847.5	7.5771
2848	8.74083
2848.5	9.83031
2849	10.2591
2849.5	9.79713
2850	8.7659
2850.5	7.91106
2851	7.82956
2851.5	8.64298
2852	9.85228
2852.5	10.5142
2853	9.80971
2853.5	7.86082
2854	5.60238
2854.5	4.18882
2855	4.19586
2855.5	5.19732
2856	6.07028
2856.5	6.11974
2857	5.55952
2857.5	5.16953
2858	5.54365
2858.5	6.53549
2859	7.40208
2859.5	7.72252
2860	7.77082
2860.5	8.17227
2861	9.21073
2861.5	10.4052
2862	10.9517
2862.5	10.6271
2863	9.94479
2863.5	9.61689
2864	9.84051
2864.5	10.0672
2865	9.65184
2865.5	8.58544
2866	7.42277
2866.5	6.74241
2867	6.67654
2867.5	6.91601
2868	7.14232
2868.5	7.33038
2869	7.56087
2869.5	7.77033
2870	7.71191
2870.5	7.18889
2871	6.40306
2871.5	5.82498
2872	5.85334
2872.5	6.46869
2873	7.17915
2873.5	7.37386
2874	7.02035
2874.5	6.67373
2875	6.91351
2875.5	7.6933
2876	8.22862
2876.5	7.61699
2877	5.98174
2877.5	4.32392
2878	3.69664
2878.5	4.41585
2879	5.93871
2879.5	7.36356
2880	8.12674
2880.5	8.1661
2881	7.72138
2881.5	7.21656
2882	7.11664
2882.5	7.67318
2883	8.56293
2883.5	9.15868
2884	9.03623
2884.5	8.24806
2885	7.14674
2885.5	5.99924
2886	4.88849
2886.5	4.01962
2887	3.83189
2887.5	4.63558
2888	6.15652
2888.5	7.50967
2889	7.79739
2889.5	6.96864
2890	5.72254
2890.5	4.95753
2891	5.17662
2891.5	6.23584
2892	7.49511
2892.5	8.31172
2893	8.48267
2893.5	8.23861
2894	7.95253
2894.5	7.77007
2895	7.49775
2895.5	6.96712
2896	6.448
2896.5	6.45715
2897	7.19593
2897.5	8.22148
2898	8.78436
2898.5	8.61187
2899	8.25015
2899.5	8.28391
2900	8.68231
2900.5	8.87863
2901	8.45222
2901.5	7.62097
2902	6.94948
2902.5	6.61815
2903	6.40826
2903.5	6.137
2904	5.87879
2904.5	5.71198
2905	5.41198
2905.5	4.73467
2906	3.86977
2906.5	3.31808
2907	3.33863
2907.5	3.6485
2908	3.7776
2908.5	3.72142
2909	3.91396
2909.5	4.5885
2910	5.44762
2910.5	5.91958
2911	5.67722
2911.5	4.92575
2912	4.30333
2912.5	4.39544
2913	5.39046
2913.5	6.87457
2914	8.01773
2914.5	8.19186
2915	7.60561
2915.5	7.14831
2916	7.32371
2916.5	7.83836
2917	8.04836
2917.5	7.71971
2918	7.1934
2918.5	6.79089
2919	6.39192
2919.5	5.8933
2920	5.60147
2920.5	5.90829
2921	6.63184
2921.5	6.96627
2922	6.48652
2922.5	5.95732
2923	6.54937
2923.5	8.51419
2924	10.6794
2924.5	11.3962
2925	10.0672
2925.5	7.8937
2926	6.48996
2926.5	6.35623
2927	6.70043
2927.5	6.4252
2928	5.23804
2928.5	3.85
2929	3.15616
2929.5	3.36938
2930	4.18014
2930.5	5.23135
2931	6.29622
2931.5	7.12204
2932	7.37044
2932.5	6.96418
2933	6.30289
2933.5	5.85573
2934	5.70086
2934.5	5.51762
2935	5.0508
2935.5	4.48577
2936	4.27461
2936.5	4.58894
2937	5.2403
2937.5	5.96328
2938	6.63089
2938.5	7.21051
2939	7.63971
2939.5	7.83822
2940	7.81414
2940.5	7.59928
2941	7.16343
2941.5	6.45465
2942	5.52857
2942.5	4.59935
2943	3.95503
2943.5	3.76441
2944	3.95398
2944.5	4.20076
2945	4.09065
2945.5	3.48542
2946	2.81188
2946.5	2.86004
2947	3.99238
2947.5	5.52127
2948	6.36012
2948.5	6.01902
2949	5.04372
2949.5	4.45321
2950	4.79661
2950.5	5.77395
2951	6.66123
2951.5	7.02923
2952	6.8447
2952.5	6.33689
2953	5.86129
2953.5	5.70217
2954	5.77732
2954.5	5.58635
2955	4.86246
2955.5	4.10955
2956	4.22148
2956.5	5.45149
2957	6.88891
2957.5	7.22353
2958	6.14472
2958.5	4.91653
2959	4.98043
2959.5	6.54242
2960	8.58986
2960.5	9.94691
2961	10.1613
2961.5	9.47218
2962	8.25551
2962.5	6.81667
2963	5.55189
2963.5	4.96581
2964	5.33769
2964.5	6.43697
2965	7.62084
2965.5	8.22196
2966	7.91045
2966.5	6.96509
2967	6.02549
2967.5	5.6096
2968	5.67153
2968.5	5.66447
2969	5.19726
2969.5	4.6278
2970	4.82208
2970.5	5.99643
2971	7.29047
2971.5	7.65395
2972	6.92421
2972.5	5.89223
2973	5.34067
2973.5	5.25056
2974	5.10112
2974.5	4.81721
2975	4.90763
2975.5	5.65298
2976	6.63294
2976.5	7.18879
2977	7.21473
2977.5	7.27297
2978	7.87649
2978.5	8.76733
2979	9.19166
2979.5	8.7845
2980	7.88862
2980.5	7.12981
2981	6.78836
2981.5	6.64489
2982	6.39
2982.5	6.08026
2983	6.06697
2983.5	6.47907
2984	7.01341
2984.5	7.23279
2985	7.02792
2985.5	6.715
2986	6.64261
2986.5	6.73827
2987	6.54438
2987.5	5.84797
2988	5.02588
2988.5	4.71957
2989	5.17668
2989.5	5.97249
2990	6.44331
2990.5	6.37764
2991	6.15734
2991.5	6.1598
2992	6.26531
2992.5	6.24309
2993	6.31612
2993.5	7.00663
2994	8.30315
2994.5	9.25811
2995	8.82172
2995.5	7.183
2996	5.91109
2996.5	6.12311
2997	7.3145
2997.5	7.99346
2998	7.36012
2998.5	6.10358
2999	5.52294
2999.5	6.1172
3000	7.19327
3000.5	7.75973
3001	7.46802
3001.5	6.63213
3002	5.88071
3002.5	5.79495
3003	6.53549
3003.5	7.58638
3004	8.04492
3004.5	7.49054
3005	6.63989
3005.5	6.53878
3006	7.39872
3006.5	8.40913
3007	8.68985
3007.5	8.19928
3008	7.5739
3008.5	7.28239
3009	7.24083
3009.5	7.22521
3010	7.25511
3010.5	7.33722
3011	7.22368
3011.5	6.68584
3012	5.88823
3012.5	5.2346
3013	4.84129
3013.5	4.39139
3014	3.62071
3014.5	2.77638
3015	2.30176
3015.5	2.35563
3016	2.80156
3016.5	3.54366
3017	4.64106
3017.5	6.04956
3018	7.41828
3018.5	8.26666
3019	8.34117
3019.5	7.75816
3020	6.81553
3020.5	5.88634
3021	5.3089
3021.5	5.21047
3022	5.42122
3022.5	5.66458
3023	5.85238
3023.5	6.09109
3024	6.35969
3024.5	6.40095
3025	6.09609
3025.5	5.75385
3026	5.83342
3026.5	6.35068
3027	6.7294
3027.5	6.34907
3028	5.24208
3028.5	4.20689
3029	4.19505
3029.5	5.43184
3030	7.29936
3030.5	8.80879
3031	9.28661
3031.5	8.78836
3032	8.00335
3032.5	7.76548
3033	8.48811
3033.5	9.83234
3034	10.7855
3034.5	10.3813
3035	8.57199
3035.5	6.42992
3036	5.36013
3036.5	5.88938
3037	7.24016
3037.5	8.16616
3038	8.10718
3038.5	7.37443
3039	6.36743
3039.5	5.10604
3040	3.79107
3040.5	3.20677
3041	4.01124
3041.5	5.81055
3042	7.42584
3042.5	8.13683
3043	8.25708
3043.5	8.30625
3044	8.07084
3044.5	7.01865
3045	5.51092
3045.5	4.7641
3046	5.37701
3046.5	6.68041
3047	7.68211
3047.5	8.20588
3048	8.66547
3048.5	8.99916
3049	8.50425
3049.5	6.92083
3050	5.17876
3050.5	4.58047
3051	5.25548
3051.5	6.1763
3052	6.41855
3052.5	5.98996
3053	5.46504
3053.5	5.20521
3054	5.1727
3054.5	5.29903
3055	5.68061
3055.5	6.31921
3056	6.84672
3056.5	6.70833
3057	5.72771
3057.5	4.37928
3058	3.57125
3058.5	4.04342
3059	5.80897
3059.5	8.09226
3060	9.8394
3060.5	10.3705
3061	9.65011
3061.5	8.11397
3062	6.42605
3062.5	5.36024
3063	5.47314
3063.5	6.67473
3064	8.12069
3064.5	8.84171
3065	8.6283
3065.5	8.19068
3066	8.31667
3066.5	8.93721
3067	9.20604
3067.5	8.5361
3068	7.35331
3068.5	6.63237
3069	6.6897
3069.5	6.94841
3070	6.83263
3070.5	6.51771
3071	6.5885
3071.5	7.15374
3072	7.65672
3072.5	7.59217
3073	7.07785
3073.5	6.52923
3074	6.06192
3074.5	5.59917
3075	5.4247
3075.5	5.98285
3076	7.05261
3076.5	7.71452
3077	7.42658
3077.5	6.75969
3078	6.65649
3078.5	7.20229
3079	7.67294
3079.5	7.75617
3080	8.04559
3080.5	8.97891
3081	9.84793
3081.5	9.56078
3082	8.29942
3082.5	7.36924
3083	7.50562
3083.5	8.07425
3084	8.10907
3084.5	7.57202
3085	7.18303
3085.5	7.37809
3086	7.94142
3086.5	8.48332
3087	8.74091
3087.5	8.45715
3088	7.59789
3088.5	6.88571
3089	7.36448
3089.5	8.95429
3090	10.1372
3090.5	9.61392
3091	7.97221
3091.5	7.02725
3092	7.53881
3092.5	8.27853
3093	7.66438
3093.5	5.80658
3094	4.39583
3094.5	4.74336
3095	6.43476
3095.5	7.93674
3096	8.1329
3096.5	7.23588
3097	6.34128
3097.5	6.50848
3098	7.92651
3098.5	9.73239
3099	10.7596
3099.5	10.5875
3100	9.79638
3100.5	9.21556
3101	9.12054
3101.5	9.24683
3102	9.31252
3102.5	9.24284
3103	9.03472
3103.5	8.76859
3104	8.7343
3104.5	9.14029
3105	9.68662
3105.5	9.79116
3106	9.38727
3106.5	9.18286
3107	9.85682
3107.5	11.1775
3108	12.2225
3108.5	12.4032
3109	11.9666
3109.5	11.4682
3110	11.087
3110.5	10.6351
3111	9.99321
3111.5	9.25628
3112	8.57681
3112.5	8.16784
3113	8.41384
3113.5	9.61417
3114	11.4834
3114.5	13.1147
3115	13.6525
3115.5	12.9971
3116	11.7874
3116.5	10.7696
3117	10.29
3117.5	10.3113
3118	10.6686
3118.5	11.18
3119	11.6464
3119.5	11.9512
3120	12.1697
3120.5	12.4397
3121	12.6896
3121.5	12.6838
3122	12.3963
3122.5	12.1441
3123	12.1713
3123.5	12.2129
3124	11.7629
3124.5	10.8374
3125	10.1944
3125.5	10.5363
3126	11.5898
3126.5	12.2636
3127	11.7801
3127.5	10.4527
3128	9.2418
3128.5	8.72925
3129	8.71937
3129.5	8.73702
3130	8.65397
3130.5	8.75465
3131	9.3055
3131.5	10.1822
3132	10.8576
3132.5	10.7877
3133	9.93606
3133.5	8.91434
3134	8.44715
3134.5	8.64471
3135	8.94036
3135.5	8.84248
3136	8.53929
3136.5	8.59072
3137	9.1339
3137.5	9.65624
3138	9.60629
3138.5	9.04502
3139	8.58776
3139.5	8.79917
3140	9.70565
3140.5	10.778
3141	11.3367
3141.5	11.1257
3142	10.6085
3142.5	10.6319
3143	11.5964
3143.5	12.9656
3144	13.7491
3144.5	13.4881
3145	12.6307
3145.5	11.9438
3146	11.7694
3146.5	11.951
3147	12.2477
3147.5	12.5408
3148	12.7267
3148.5	12.7382
3149	12.7494
3149.5	13.0685
3150	13.6429
3150.5	13.904
3151	13.4129
3151.5	12.5514
3152	12.2098
3152.5	12.7239
3153	13.5238
3153.5	13.9853
3154	14.1702
3154.5	14.4503
3155	14.719
3155.5	14.4843
3156	13.6866
3156.5	12.8849
3157	12.4329
3157.5	11.9349
3158	10.9439
3158.5	9.93404
3159	9.99014
3159.5	11.4523
3160	13.3341
3160.5	14.3443
3161	14.1951
3161.5	13.6111
3162	13.2838
3162.5	13.2445
3163	13.2367
3163.5	13.272
3164	13.6025
3164.5	14.3525
3165	15.3639
3165.5	16.2819
3166	16.6663
3166.5	16.2128
3167	15.0545
3167.5	13.789
3168	12.9983
3168.5	12.7531
3169	12.7253
3169.5	12.7381
3170	12.9791
3170.5	13.6118
3171	14.3693
3171.5	14.727
3172	14.4511
3172.5	13.88
3173	13.6378
3173.5	14.0375
3174	14.7084
3174.5	14.8653
3175	14.1189
3175.5	13.0537
3176	12.7703
3176.5	13.6657
3177	14.8419
3177.5	15.0467
3178	14.1902
3178.5	13.5755
3179	14.4779
3179.5	16.778
3180	19.2319
3180.5	20.8002
3181	21.2647
3181.5	20.68
3182	18.9532
3182.5	16.3929
3183	14.24
3183.5	13.8599
3184	15.3137
3184.5	17.2437
3185	18.3802
3185.5	18.8124
3186	19.4543
3186.5	20.5423
3187	21.2094
3187.5	20.6106
3188	19.0089
3188.5	17.4705
3189	16.7759
3189.5	16.9793
3190	17.8318
3190.5	19.078
3191	20.1999
3191.5	20.3791
3192	19.2222
3192.5	17.4385
3193	16.3552
3193.5	16.6187
3194	17.6329
3194.5	18.415
3195	18.7259
3195.5	19.0499
3196	19.6359
3196.5	20.0459
3197	19.8285
3197.5	19.2878
3198	19.1975
3198.5	19.8239
3199	20.5888
3199.5	20.7957
3200	20.3998
3200.5	19.8499
3201	19.3833
3201.5	18.8207
3202	18.0311
3202.5	17.2524
3203	16.81
3203.5	16.7691
3204	17.0512
3204.5	17.656
3205	18.4529
3205.5	18.9256
3206	18.5995
3206.5	17.8005
3207	17.5203
3207.5	18.2095
3208	19.0893
3208.5	19.08
3209	18.202
3209.5	17.5387
3210	17.8187
3210.5	18.5694
3211	18.8798
3211.5	18.5275
3212	17.9793
3212.5	17.6762
3213	17.8255
3213.5	18.6875
3214	20.3984
3214.5	22.3721
3215	23.4166
3215.5	22.819
3216	21.0712
3216.5	19.2756
3217	18.1221
3217.5	17.7608
3218	18.2923
3218.5	19.6765
3219	21.1725
3219.5	21.6571
3220	20.9366
3220.5	20.2291
3221	20.722
3221.5	21.9223
3222	22.1852
3222.5	20.9143
3223	19.4638
3223.5	19.4466
3224	20.7253
3224.5	21.7364
3225	21.5215
3225.5	20.668
3226	20.1955
3226.5	20.263
3227	20.3581
3227.5	20.22
3228	19.9912
3228.5	19.7068
3229	19.2389
3229.5	18.7485
3230	18.6982
3230.5	19.2935
3231	20.2602
3231.5	21.2568
3232	22.1385
3232.5	22.7125
3233	22.7063
3233.5	22.2584
3234	22.0022
3234.5	22.2294
3235	22.3444
3235.5	21.767
3236	21.1329
3236.5	21.7363
3237	23.6296
3237.5	25.1203
3238	24.6999
3238.5	22.8986
3239	21.4989
3239.5	21.2393
3240	21.1743
3240.5	20.3433
3241	19.1753
3241.5	18.7517
3242	19.2382
3242.5	19.7129
3243	19.3711
3243.5	18.3747
3244	17.5384
3244.5	17.6667
3245	19.1842
3245.5	21.843
3246	24.5756
3246.5	26.1067
3247	26.1472
3247.5	25.7767
3248	26.2524
3248.5	27.5279
3249	28.302
3249.5	27.4839
3250	25.2498
3250.5	22.6635
3251	20.705
3251.5	19.8206
3252	19.9547
3252.5	20.615
3253	21.1315
3253.5	21.2433
3254	21.3142
3254.5	21.6627
3255	21.8927
3255.5	21.4003
3256	20.4663
3256.5	20.1915
3257	21.1246
3257.5	22.4992
3258	23.2436
3258.5	23.2691
3259	23.2795
3259.5	23.6469
3260	24.0781
3260.5	24.2367
3261	24.0515
3261.5	23.4094
3262	22.2159
3262.5	20.9661
3263	20.6223
3263.5	21.4943
3264	22.6939
3264.5	23.2113
3265	23.203
3265.5	23.6104
3266	24.6859
3266.5	25.6051
3267	25.6134
3267.5	24.9032
3268	24.0869
3268.5	23.3692
3269	22.6937
3269.5	22.2926
3270	22.4899
3270.5	23.1186
3271	23.7004
3271.5	24.1685
3272	24.845
3272.5	25.6153
3273	25.7536
3273.5	24.9205
3274	23.816
3274.5	23.2826
3275	23.0956
3275.5	22.3826
3276	21.1884
3276.5	20.7444
3277	21.7575
3277.5	23.0983
3278	23.0101
3278.5	21.4528
3279	20.4038
3279.5	21.535
3280	24.1661
3280.5	26.1089
3281	26.1092
3281.5	24.8644
3282	23.7457
3282.5	23.2664
3283	23.1384
3283.5	23.2304
3284	23.6941
3284.5	24.2112
3285	23.9721
3285.5	22.8036
3286	21.8111
3286.5	22.2566
3287	23.912
3287.5	25.159
3288	24.8944
3288.5	23.777
3289	23.161
3289.5	23.22
3290	22.8935
3290.5	21.72
3291	20.9033
3291.5	21.9418
3292	24.5446
3292.5	26.6821
3293	26.8474
3293.5	25.6754
3294	24.9327
3294.5	25.3405
3295	26.0543
3295.5	26.2098
3296	26.1971
3296.5	26.9453
3297	28.3654
3297.5	29.1834
3298	28.3863
3298.5	26.386
3299	24.5304
3299.5	23.7143
3300	23.7053
3300.5	23.6898
3301	23.2288
3301.5	22.664
3302	22.6759
3302.5	23.5449
3303	24.8562
3303.5	25.9776
3304	26.7477
3304.5	27.4571
3305	28.1016
3305.5	28.0202
3306	26.6584
3306.5	24.5815
3307	23.2641
3307.5	23.6652
3308	25.2437
3308.5	26.5963
3309	26.9152
3309.5	26.5936
3310	26.5157
3310.5	27.0659
3311	27.8887
3311.5	28.3527
3312	28.1044
3312.5	27.3531
3313	26.7735
3313.5	26.9341
3314	27.5712
3314.5	27.6204
3315	26.4661
3315.5	24.9938
3316	24.8146
3316.5	26.2282
3317	27.5861
3317.5	27.1758
3318	25.3843
3318.5	24.2906
3319	25.159
3319.5	27.0482
3320	28.1425
3320.5	27.8319
3321	26.9617
3321.5	26.429
3322	26.2665
3322.5	26.1523
3323	26.1986
3323.5	26.8178
3324	28.0103
3324.5	29.1744
3325	29.7084
3325.5	29.6038
3326	29.2796
3326.5	28.9092
3327	28.2937
3327.5	27.5112
3328	27.2969
3328.5	28.2423
3329	29.6535
3329.5	29.8684
3330	28.1347
3330.5	25.776
3331	24.9004
3331.5	26.0671
3332	27.8134
3332.5	28.5295
3333	28.1576
3333.5	27.7259
3334	27.796
3334.5	28.0666
3335	28.3108
3335.5	28.8974
3336	30.0713
3336.5	31.2715
3337	31.7381
3337.5	31.4877
3338	31.2139
3338.5	31.2429
3339	31.0613
3339.5	30.1055
3340	28.703
3340.5	27.8277
3341	27.9531
3341.5	28.5253
3342	28.7618
3342.5	28.699
3343	29.0299
3343.5	29.8908
3344	30.3235
3344.5	29.4102
3345	27.748
3345.5	27.0801
3346	28.1714
3346.5	29.8388
3347	30.3898
3347.5	29.5695
3348	28.5253
3348.5	28.2208
3349	28.6688
3349.5	29.5578
3350	30.6285
3350.5	31.2136
3351	30.4223
3351.5	28.4368
3352	26.9062
3352.5	27.2047
3353	28.8258
3353.5	30.2322
3354	30.8706
3354.5	31.2655
3355	31.6529
3355.5	31.7177
3356	31.5689
3356.5	31.8616
3357	32.6912
3357.5	33.2379
3358	32.8891
3358.5	32.0395
3359	31.4155
3359.5	31.2658
3360	31.6366
3360.5	32.7154
3361	34.1666
3361.5	34.6895
3362	33.4196
3362.5	31.4759
3363	31.0986
3363.5	32.9813
3364	35.1879
3364.5	35.2499
3365	32.9382
3365.5	30.3789
3366	29.609
3366.5	30.6861
3367	32.3005
3367.5	33.4913
3368	34.1423
3368.5	34.2118
3369	33.4506
3369.5	32.0707
3370	30.8932
3370.5	30.5056
3371	30.7208
3371.5	31.139
3372	31.7431
3372.5	32.5582
3373	33.2305
3373.5	33.5147
3374	33.8135
3374.5	34.5564
3375	35.2754
3375.5	35.0689
3376	34.0135
3376.5	33.2322
3377	33.3969
3377.5	33.994
3378	34.2205
3378.5	33.9757
3379	33.5923
3379.5	33.1097
3380	32.397
3380.5	31.8003
3381	32.0707
3381.5	33.456
3382	35.1364
3382.5	35.8334
3383	35.1125
3383.5	33.6885
3384	32.5187
3384.5	31.8636
3385	31.5132
3385.5	31.6528
3386	32.8323
3386.5	34.9476
3387	36.9075
3387.5	37.7187
3388	37.4481
3388.5	36.7421
3389	35.9316
3389.5	35.2241
3390	35.1307
3390.5	35.8866
3391	36.8507
3391.5	37.2346
3392	37.1723
3392.5	37.3601
3393	37.9003
3393.5	38.3729
3394	38.9739
3394.5	40.5463
3395	43.0344
3395.5	44.6825
3396	43.6411
3396.5	39.9906
3397	35.9872
3397.5	34.2393
3398	35.4617
3398.5	37.8371
3399	38.7828
3399.5	37.5752
3400	35.9692
3400.5	35.9867
3401	37.5105
3401.5	38.774
3402	38.7304
3402.5	37.7931
3403	36.7358
3403.5	35.8491
3404	35.2285
3404.5	35.05
3405	35.3307
3405.5	35.9713
3406	37.0665
3406.5	38.4931
3407	39.2331
3407.5	38.1804
3408	35.7258
3408.5	33.7135
3409	33.5205
3409.5	34.8761
3410	36.7789
3410.5	38.6098
3411	39.7794
3411.5	39.2907
3412	36.9195
3412.5	34.626
3413	35.2404
3413.5	39.7877
3414	46.3784
3414.5	51.7166
3415	53.4863
3415.5	51.7135
3416	48.5631
3416.5	46.781
3417	47.5609
3417.5	49.4261
3418	49.7609
3418.5	47.4396
3419	43.5202
3419.5	39.6913
3420	36.699
3420.5	34.5619
3421	33.6004
3421.5	34.3683
3422	36.5963
3422.5	38.9098
3423	40.0967
3423.5	40.227
3424	40.1952
3424.5	40.5598
3425	41.13
3425.5	41.5285
3426	41.7228
3426.5	41.9194
3427	42.2285
3427.5	42.6547
3428	43.2863
3428.5	44.2397
3429	45.3716
3429.5	46.1787
3430	46.0627
3430.5	44.7403
3431	42.5117
3431.5	40.2388
3432	38.9676
3432.5	39.1999
3433	40.2809
3433.5	40.8509
3434	40.0287
3434.5	38.3377
3435	37.2831
3435.5	37.8761
3436	39.6294
3436.5	41.0691
3437	41.1017
3437.5	39.8769
3438	38.2146
3438.5	36.7807
3439	35.9117
3439.5	35.8175
3440	36.4795
3440.5	37.3463
3441	37.6002
3441.5	37.0266
3442	36.3711
3442.5	36.3456
3443	36.6698
3443.5	36.5711
3444	35.9959
3444.5	35.7474
3445	36.3658
3445.5	37.4303
3446	38.1441
3446.5	38.127
3447	37.4116
3447.5	36.2466
3448	35.3537
3448.5	35.6712
3449	37.258
3449.5	38.8522
3450	39.1679
3450.5	38.4845
3451	38.4167
3451.5	39.9656
3452	42.4589
3452.5	44.1477
3453	43.6046
3453.5	40.93
3454	37.9189
3454.5	36.634
3455	37.3473
3455.5	38.1902
3456	37.6855
3456.5	36.4822
3457	36.1105
3457.5	36.6552
3458	36.7456
3458.5	35.7712
3459	34.9924
3459.5	35.8944
3460	37.9703
3460.5	39.2821
3461	38.6173
3461.5	36.6604
3462	35.0818
3462.5	34.8514
3463	35.6655
3463.5	36.7865
3464	37.8505
3464.5	38.5831
3465	38.4587
3465.5	37.4677
3466	36.7807
3466.5	37.569
3467	39.093
3467.5	39.059
3468	36.7449
3468.5	34.2619
3469	33.9581
3469.5	35.6803
3470	37.4849
3470.5	38.3691
3471	38.948
3471.5	39.596
3472	39.4788
3472.5	38.1154
3473	36.4559
3473.5	35.7495
3474	36.1425
3474.5	37.0003
3475	37.917
3475.5	38.6429
3476	38.6538
3476.5	37.7948
3477	36.8869
3477.5	36.802
3478	37.214
3478.5	37.1357
3479	36.5138
3479.5	36.3162
3480	36.8586
3480.5	37.2662
3481	36.7653
3481.5	35.6596
3482	34.8626
3482.5	34.9932
3483	35.9317
3483.5	36.6654
3484	35.9545
3484.5	33.882
3485	32.414
3485.5	33.3598
3486	35.8236
3486.5	36.9197
3487	35.2788
3487.5	32.7847
3488	31.7563
3488.5	32.4657
3489	33.7275
3489.5	34.581
3490	34.5784
3490.5	33.417
3491	31.4683
3491.5	29.9751
3492	29.8148
3492.5	30.6096
3493	31.4961
3493.5	32.229
3494	32.9166
3494.5	33.2257
3495	32.8147
3495.5	32.1327
3496	31.9801
3496.5	32.4248
3497	32.7675
3497.5	32.6366
3498	32.5808
3498.5	33.2019
3499	34.0643
3499.5	34.0051
3500	32.5878
3500.5	30.9529
3501	30.7178
3501.5	32.0276
3502	33.2153
3502.5	33.0619
3503	32.0892
3503.5	31.5732
3504	31.9564
3504.5	32.7719
3505	33.5144
3505.5	33.8215
3506	33.252
3506.5	31.8063
3507	30.356
3507.5	29.7762
3508	29.8509
3508.5	29.7589
3509	29.5096
3509.5	29.8164
3510	30.8187
3510.5	31.8606
3511	32.4863
3511.5	32.7959
3512	32.6672
3512.5	31.641
3513	29.9692
3513.5	28.904
3514	29.3493
3514.5	30.7036
3515	31.6327
3515.5	31.7691
3516	31.7451
3516.5	31.7403
3517	31.1349
3517.5	29.7588
3518	28.7008
3518.5	29.1741
3519	30.7638
3519.5	31.9977
3520	32.068
3520.5	31.2468
3521	29.8612
3521.5	27.9008
3522	25.9504
3522.5	25.2667
3523	26.2356
3523.5	27.6474
3524	28.1199
3524.5	27.6941
3525	27.3201
3525.5	27.1952
3526	26.7582
3526.5	25.9322
3527	25.3277
3527.5	25.3519
3528	25.9194
3528.5	27.0349
3529	28.7759
3529.5	30.5418
3530	31.2174
3530.5	30.4636
3531	29.2101
3531.5	28.3628
3532	27.5556
3532.5	26.2103
3533	25.0159
3533.5	25.3324
3534	27.1616
3534.5	28.6229
3535	28.1754
3535.5	26.3213
3536	24.6083
3536.5	23.8108
3537	23.6289
3537.5	23.7547
3538	24.3525
3538.5	25.3836
3539	26.1819
3539.5	26.068
3540	25.2144
3540.5	24.6179
3541	24.9216
3541.5	25.6018
3542	25.7895
3542.5	25.5496
3543	25.6786
3543.5	26.1262
3544	25.6966
3544.5	24.0952
3545	22.7353
3545.5	22.7568
3546	23.3236
3546.5	23.1072
3547	22.7145
3547.5	23.5244
3548	25.1255
3548.5	25.7924
3549	25.0877
3549.5	24.3302
3550	24.277
3550.5	24.2029
3551	23.5255
3551.5	22.6581
3552	22.0632
3552.5	21.6266
3553	21.3039
3553.5	21.2987
3554	21.3405
3554.5	20.7758
3555	19.5957
3555.5	18.686
3556	18.7078
3556.5	19.4434
3557	20.219
3557.5	20.372
3558	19.5102
3558.5	18.038
3559	17.2066
3559.5	17.8945
3560	19.5339
3560.5	20.6437
3561	20.4213
3561.5	19.4787
3562	18.7782
3562.5	18.7405
3563	19.3283
3563.5	20.3125
3564	21.2696
3564.5	21.7942
3565	21.8563
3565.5	21.593
3566	20.8432
3566.5	19.4176
3567	18.0151
3567.5	17.9113
3568	19.4105
3568.5	21.3003
3569	22.2348
3569.5	22.1418
3570	21.6359
3570.5	20.5514
3571	18.5605
3571.5	16.6179
3572	16.6288
3572.5	19.0349
3573	21.7438
3573.5	22.3825
3574	20.7439
3574.5	18.866
3575	18.7159
3575.5	19.802
3576	20.1411
3576.5	18.7045
3577	16.5813
3577.5	15.641
3578	16.2576
3578.5	17.2438
3579	17.6904
3579.5	17.914
3580	18.6259
3580.5	19.5791
3581	19.6223
3581.5	18.1208
3582	15.8102
3582.5	14.1374
3583	13.7875
3583.5	14.093
3584	14.3337
3584.5	14.6042
3585	15.2608
3585.5	16.1112
3586	16.7541
3586.5	17.2484
3587	17.6768
3587.5	17.6469
3588	16.8944
3588.5	16.0164
3589	15.7052
3589.5	15.8609
3590	16.1286
3590.5	16.6667
3591	17.5672
3591.5	18.0193
3592	17.1931
3592.5	15.4761
3593	14.1249
3593.5	13.748
3594	13.6703
3594.5	13.1542
3595	12.4054
3595.5	12.4396
3596	13.9142
3596.5	15.906
3597	16.73
3597.5	15.7116
3598	13.9932
3598.5	13.2773
3599	13.9234
3599.5	15.1942
3600	16.3479
3600.5	16.9141
3601	16.5301
3601.5	15.4344
3602	14.3764
3602.5	13.7513
3603	13.2281
3603.5	12.7102
3604	12.8963
3604.5	14.0119
3605	14.935
3605.5	14.4178
3606	12.9113
3606.5	12.1984
3607	13.0609
3607.5	14.5802
3608	15.4029
3608.5	15.1948
3609	14.4832
3609.5	13.4374
3610	12.0168
3610.5	10.9754
3611	11.5608
3611.5	13.4535
3612	14.6558
3612.5	13.8921
3613	12.3556
3613.5	11.913
3614	12.2227
3614.5	11.7177
3615	10.3332
3615.5	9.82173
3616	11.1195
3616.5	13.119
3617	14.3138
3617.5	14.3109
3618	13.7149
3618.5	13.2716
3619	13.3414
3619.5	13.8738
3620	14.4919
3620.5	14.7554
3621	14.4904
3621.5	13.8665
3622	13.3339
3622.5	13.2329
3623	13.2248
3623.5	12.6651
3624	11.6776
3624.5	11.1363
3625	11.3376
3625.5	11.4336
3626	10.9304
3626.5	10.366
3627	10.1407
3627.5	9.8245
3628	9.422
3628.5	9.80812
3629	11.0564
3629.5	11.6671
3630	10.693
3630.5	9.39255
3631	9.35338
3631.5	10.4716
3632	11.5422
3632.5	12.0745
3633	12.2211
3633.5	11.7949
3634	10.5437
3634.5	9.00819
3635	8.10905
3635.5	8.08453
3636	8.37456
3636.5	8.33312
3637	8.04042
3637.5	8.19436
3638	9.17298
3638.5	10.2743
3639	10.3546
3639.5	9.4887
3640	8.79671
3640.5	8.83221
3641	8.87374
3641.5	8.3153
3642	7.7834
3642.5	8.22827
3643	9.78044
3643.5	11.6489
3644	12.8593
3644.5	12.8165
3645	11.7027
3645.5	10.5337
3646	10.2038
3646.5	10.6202
3647	11.1107
3647.5	11.2332
3648	11.0169
3648.5	10.7009
3649	10.6066
3649.5	10.8888
3650	11.1994
3650.5	11.1265
3651	10.8169
3651.5	10.5167
3652	9.74823
3652.5	8.01434
3653	6.04266
3653.5	5.29374
3654	6.29573
3654.5	8.02078
3655	9.29524
3655.5	9.72738
3656	9.5324
3656.5	9.27503
3657	9.4342
3657.5	9.72156
3658	9.2079
3658.5	7.61305
3659	6.11606
3659.5	5.92253
3660	6.91472
3660.5	7.93952
3661	8.21863
3661.5	7.95918
3662	7.74489
3662.5	7.76859
3663	7.60949
3663.5	7.0339
3664	6.64161
3664.5	7.05068
3665	7.41348
3665.5	6.2856
3666	4.15215
3666.5	3.37869
3667	4.9439
3667.5	6.5057
3668	5.97711
3668.5	4.46634
3669	4.84495
3669.5	7.49971
3670	10.0868
3670.5	10.3859
3671	8.22661
3671.5	5.26762
3672	3.25027
3672.5	3.19822
3673	4.92088
3673.5	6.89546
3674	7.70327
3674.5	7.2426
3675	6.65646
3675.5	6.86848
3676	7.51314
3676.5	7.73777
3677	7.39805
3677.5	7.06585
3678	6.80483
3678.5	6.04036
3679	4.69671
3679.5	3.8834
3680	4.65306
3680.5	6.67883
3681	8.25273
3681.5	7.79259
3682	5.55024
3682.5	3.43468
3683	3.32346
3683.5	4.9073
3684	6.19462
3684.5	5.95804
3685	4.77536
3685.5	3.95211
3686	4.08079
3686.5	5.14865
3687	6.63469
3687.5	7.20206
3688	5.81303
3688.5	3.33775
3689	2.20262
3689.5	3.3989
3690	5.25894
3690.5	5.79439
3691	4.86761
3691.5	3.75579
3692	3.0718
3692.5	2.69193
3693	2.8321
3693.5	3.83378
3694	5.00041
3694.5	4.76901
3695	2.56509
3695.5	0.21404
3696	0
3696.5	2.2422
3697	4.91982
3697.5	5.91053
3698	4.92612
3698.5	3.15285
3699	2.169
3699.5	2.77409
3700	4.37306
