#Imported=	16.12.2021 13:56:05
50	2.08996
50.5	2.24781
51	2.15911
51.5	1.7869
52	1.15599
52.5	0.4547
53	0
53.5	0.12949
54	0.92959
54.5	2.09997
55	3.28841
55.5	4.03214
56	4.11188
56.5	3.46154
57	2.43011
57.5	1.49497
58	0.99537
58.5	1.23579
59	2.15476
59.5	3.69764
60	5.67216
60.5	7.79245
61	9.9046
61.5	11.8378
62	13.5104
62.5	14.8543
63	15.829
63.5	16.6127
64	17.3112
64.5	18.0309
65	18.8218
65.5	19.6801
66	20.5666
66.5	21.4467
67	22.3457
67.5	23.3556
68	24.552
68.5	26.0032
69	27.8162
69.5	29.8844
70	32.0953
70.5	34.295
71	36.3063
71.5	37.9794
72	39.094
72.5	39.6941
73	40.0138
73.5	40.4037
74	41.2598
74.5	42.867
75	45.5123
75.5	48.913
76	52.5139
76.5	55.6077
77	57.718
77.5	58.639
78	58.25
78.5	57.0261
79	55.5395
79.5	54.3297
80	53.6434
80.5	53.4996
81	53.8321
81.5	54.3666
82	54.8372
82.5	55.0167
83	54.8395
83.5	54.3477
84	53.6432
84.5	52.9732
85	52.6398
85.5	52.9979
86	54.0922
86.5	55.737
87	57.6189
87.5	59.2365
88	60.1883
88.5	60.075
89	59.1512
89.5	57.8795
90	56.723
90.5	56.075
91	56.0242
91.5	56.493
92	57.0947
92.5	57.5185
93	57.6449
93.5	57.5535
94	57.4499
94.5	57.5407
95	57.9645
95.5	58.6236
96	59.4146
96.5	60.2579
97	61.1465
97.5	62.1533
98	63.3923
98.5	64.8857
99	66.5808
99.5	68.4011
100	70.2806
100.5	72.2275
101	74.3055
101.5	76.5607
102	78.9761
102.5	81.4505
103	83.8773
103.5	86.219
104	88.5431
104.5	91.0188
105	93.8627
105.5	97.1819
106	100.817
106.5	104.596
107	108.311
107.5	111.866
108	115.309
108.5	118.875
109	122.72
109.5	126.869
110	131.186
110.5	135.363
111	139.127
111.5	142.146
112	144.612
112.5	146.763
113	148.873
113.5	151.143
114	153.606
114.5	156.14
115	158.465
115.5	160.388
116	161.754
116.5	162.725
117	163.449
117.5	164.102
118	164.828
118.5	165.63
119	166.379
119.5	166.954
120	167.313
120.5	167.521
121	167.84
121.5	168.612
122	170.327
122.5	172.957
123	176.353
123.5	180.257
124	184.199
124.5	187.883
125	191.151
125.5	194.285
126	197.589
126.5	201.256
127	205.067
127.5	208.511
128	210.591
128.5	210.429
129	207.862
129.5	203.104
130	197.306
130.5	191.623
131	187.205
131.5	184.565
132	183.486
132.5	183.195
133	182.751
133.5	181.699
134	179.957
134.5	177.99
135	176.401
135.5	175.856
136	176.325
136.5	177.413
137	178.695
137.5	179.744
138	180.386
138.5	180.588
139	180.458
139.5	180.106
140	179.476
140.5	178.532
141	177.369
141.5	176.2
142	175.406
142.5	175.272
143	175.854
143.5	176.91
144	178.059
144.5	179.027
145	179.721
145.5	180.314
146	181.071
146.5	182.07
147	183.046
147.5	183.548
148	183.052
148.5	181.47
149	178.932
149.5	176.073
150	173.707
150.5	172.295
151	172.018
151.5	172.493
152	173.373
152.5	174.305
153	175.149
153.5	175.984
154	176.899
154.5	177.824
155	178.564
155.5	178.794
156	178.419
156.5	177.496
157	176.43
157.5	175.653
158	175.394
158.5	175.716
159	176.287
159.5	176.79
160	176.884
160.5	176.676
161	176.415
161.5	176.464
162	176.958
162.5	177.858
163	178.922
163.5	179.729
164	180.07
164.5	180.014
165	180.032
165.5	180.589
166	182.311
166.5	185.18
167	188.975
167.5	192.978
168	196.307
168.5	198.442
169	198.891
169.5	198.033
170	196.306
170.5	194.232
171	192.36
171.5	190.841
172	189.673
172.5	188.708
173	187.884
173.5	187.279
174	186.986
174.5	187.068
175	187.426
175.5	187.769
176	187.872
176.5	187.586
177	187.056
177.5	186.572
178	186.581
178.5	187.269
179	188.483
179.5	189.952
180	191.289
180.5	192.282
181	192.866
181.5	193.265
182	193.767
182.5	194.559
183	195.584
183.5	196.667
184	197.614
184.5	198.326
185	198.872
185.5	199.448
186	200.266
186.5	201.363
187	202.661
187.5	203.93
188	204.933
188.5	205.445
189	205.386
189.5	204.959
190	204.526
190.5	204.567
191	205.447
191.5	207.529
192	210.898
192.5	215.164
193	219.778
193.5	223.929
194	227.19
194.5	229.377
195	230.713
195.5	231.809
196	233.233
196.5	235.495
197	238.531
197.5	242.017
198	245.535
198.5	248.803
199	251.753
199.5	254.52
200	257.344
200.5	260.342
201	263.356
201.5	266.083
202	268.245
202.5	269.636
203	270.467
203.5	270.989
204	271.548
204.5	272.326
205	273.223
205.5	273.955
206	274.3
206.5	274.174
207	273.675
207.5	273.189
208	273.076
208.5	273.543
209	274.257
209.5	274.789
210	274.456
210.5	273.006
211	270.374
211.5	266.671
212	262.657
212.5	258.876
213	255.765
213.5	253.259
214	251.195
214.5	249.324
215	247.37
215.5	245.214
216	242.822
216.5	240.326
217	237.817
217.5	235.41
218	233.193
218.5	231.246
219	229.669
219.5	228.375
220	227.182
220.5	225.835
221	224.225
221.5	222.426
222	220.737
222.5	219.548
223	219.113
223.5	219.536
224	220.158
224.5	220.272
225	219.107
225.5	216.533
226	212.902
226.5	208.914
227	205.582
227.5	203.634
228	203.358
228.5	204.181
229	205.382
229.5	206.264
230	206.378
230.5	205.685
231	204.319
231.5	202.713
232	201.238
232.5	200.106
233	199.353
233.5	198.884
234	198.592
234.5	198.325
235	197.98
235.5	197.533
236	197.12
236.5	196.935
237	197.221
237.5	198.123
238	199.554
238.5	201.346
239	203.13
239.5	204.536
240	205.324
240.5	205.475
241	205.194
241.5	204.672
242	204.128
242.5	203.705
243	203.475
243.5	203.446
244	203.511
244.5	203.551
245	203.383
245.5	202.872
246	201.906
246.5	200.49
247	198.886
247.5	197.47
248	196.675
248.5	196.573
249	197.07
249.5	197.821
250	198.355
250.5	198.35
251	197.679
251.5	196.722
252	195.983
252.5	195.977
253	196.718
253.5	198.021
254	199.447
254.5	200.503
255	200.908
255.5	200.542
256	199.823
256.5	199.092
257	198.613
257.5	198.396
258	198.382
258.5	198.521
259	198.823
259.5	199.44
260	200.734
260.5	202.666
261	205.147
261.5	207.977
262	210.797
262.5	213.39
263	215.54
263.5	217.234
264	218.366
264.5	218.658
265	218.053
265.5	216.509
266	214.04
266.5	211.15
267	208.291
267.5	205.979
268	204.397
268.5	203.43
269	202.824
269.5	202.293
270	201.751
270.5	201.271
271	200.98
271.5	200.942
272	201.13
272.5	201.34
273	201.422
273.5	201.33
274	201.157
274.5	200.999
275	200.872
275.5	200.661
276	200.195
276.5	199.261
277	197.935
277.5	196.472
278	195.179
278.5	194.287
279	193.844
279.5	193.841
280	194.15
280.5	194.695
281	195.562
281.5	196.78
282	198.248
282.5	199.713
283	200.752
283.5	201.038
284	200.294
284.5	198.634
285	196.548
285.5	194.695
286	193.689
286.5	193.722
287	194.819
287.5	196.603
288	198.46
288.5	199.785
289	200.057
289.5	199.214
290	197.533
290.5	195.696
291	194.377
291.5	194.081
292	194.955
292.5	196.516
293	198.145
293.5	199.037
294	198.815
294.5	197.565
295	195.794
295.5	194.177
296	193.175
296.5	193.035
297	193.508
297.5	194.325
298	195.182
298.5	195.94
299	196.661
299.5	197.482
300	198.464
300.5	199.572
301	200.638
301.5	201.428
302	201.689
302.5	201.059
303	199.551
303.5	197.351
304	194.863
304.5	192.739
305	191.524
305.5	191.802
306	193.288
306.5	195.555
307	197.84
307.5	199.443
308	200.237
308.5	200.436
309	200.654
309.5	201.22
310	202.19
310.5	203.082
311	203.383
311.5	202.518
312	200.798
312.5	198.87
313	197.53
313.5	197.103
314	197.506
314.5	198.363
315	199.085
315.5	199.42
316	199.431
316.5	199.561
317	200.056
317.5	200.857
318	201.511
318.5	201.605
319	200.803
319.5	199.373
320	197.806
320.5	196.741
321	196.502
321.5	196.887
322	197.497
322.5	197.885
323	197.902
323.5	197.647
324	197.489
324.5	197.747
325	198.677
325.5	200.185
326	201.955
326.5	203.623
327	204.842
327.5	205.394
328	205.025
328.5	203.764
329	201.864
329.5	199.711
330	197.943
330.5	197.063
331	197.364
331.5	198.659
332	200.442
332.5	202.187
333	203.413
333.5	203.962
334	203.807
334.5	203.127
335	202.151
335.5	200.984
336	199.702
336.5	198.409
337	197.276
337.5	196.527
338	196.269
338.5	196.56
339	197.279
339.5	198.144
340	198.918
340.5	199.471
341	199.848
341.5	200.13
342	200.398
342.5	200.665
343	200.874
343.5	200.933
344	200.845
344.5	200.708
345	200.767
345.5	201.193
346	202.064
346.5	203.279
347	204.489
347.5	205.345
348	205.496
348.5	205.027
349	204.199
349.5	203.615
350	203.723
350.5	204.718
351	206.575
351.5	208.824
352	211.167
352.5	213.467
353	215.87
353.5	218.635
354	222.022
354.5	225.647
355	228.847
355.5	230.486
356	230.14
356.5	227.652
357	223.068
357.5	217.563
358	211.972
358.5	207.241
359	203.769
359.5	201.673
360	201.071
360.5	201.551
361	202.829
361.5	204.525
362	206.035
362.5	206.916
363	206.745
363.5	205.755
364	204.392
364.5	203.354
365	203.009
365.5	203.319
366	203.947
366.5	204.337
367	204.191
367.5	203.466
368	202.633
368.5	202.21
369	202.751
369.5	204.143
370	205.891
370.5	207.334
371	207.952
371.5	207.616
372	206.443
372.5	205.033
373	203.969
373.5	203.799
374	204.622
374.5	206.092
375	207.593
375.5	208.449
376	208.287
376.5	206.894
377	204.624
377.5	202.085
378	199.955
378.5	198.772
379	198.659
379.5	199.524
380	200.778
380.5	201.865
381	202.328
381.5	201.968
382	200.949
382.5	199.562
383	198.331
383.5	197.713
384	198.101
384.5	199.562
385	201.597
385.5	203.582
386	204.852
386.5	205.168
387	204.587
387.5	203.631
388	202.989
388.5	203.181
389	204.341
389.5	205.954
390	207.288
390.5	207.624
391	206.904
391.5	205.369
392	203.658
392.5	202.451
393	202.21
393.5	203.124
394	204.754
394.5	206.593
395	207.862
395.5	208.036
396	206.839
396.5	204.235
397	200.923
397.5	197.636
398	195.406
398.5	194.758
399	195.931
399.5	198.814
400	202.391
400.5	205.793
401	208.139
401.5	209.337
402	209.492
402.5	208.809
403	207.758
403.5	206.549
404	205.332
404.5	204.224
405	203.337
405.5	202.872
406	202.82
406.5	203.074
407	203.426
407.5	203.648
408	203.655
408.5	203.473
409	203.284
409.5	203.219
410	203.346
410.5	203.55
411	203.687
411.5	203.587
412	203.277
412.5	202.835
413	202.348
413.5	201.865
414	201.382
414.5	200.901
415	200.492
415.5	200.303
416	200.615
416.5	201.546
417	203.071
417.5	204.934
418	206.633
418.5	207.765
419	207.95
419.5	207.282
420	206.103
420.5	204.924
421	204.298
421.5	204.502
422	205.628
422.5	207.226
423	208.662
423.5	209.273
424	208.763
424.5	207.257
425	205.048
425.5	202.741
426	200.835
426.5	199.721
427	199.454
427.5	199.809
428	200.543
428.5	201.331
429	201.974
429.5	202.383
430	202.563
430.5	202.577
431	202.47
431.5	202.323
432	202.229
432.5	202.311
433	202.696
433.5	203.42
434	204.499
434.5	205.802
435	207.1
435.5	208.188
436	208.902
436.5	209.241
437	209.232
437.5	208.965
438	208.568
438.5	208.101
439	207.609
439.5	207.131
440	206.73
440.5	206.498
441	206.469
441.5	206.661
442	207.051
442.5	207.555
443	208.129
443.5	208.758
444	209.44
444.5	210.181
445	210.969
445.5	211.767
446	212.55
446.5	213.32
447	214.103
447.5	214.91
448	215.718
448.5	216.483
449	217.18
449.5	217.853
450	218.631
450.5	219.667
451	221.162
451.5	223.077
452	225.362
452.5	227.945
453	230.717
453.5	233.708
454	237.044
454.5	240.701
455	244.642
455.5	248.825
456	253.215
456.5	257.994
457	263.818
457.5	271.279
458	281.1
458.5	294.556
459	311.303
459.5	331.069
460	353.644
460.5	377.811
461	402.757
461.5	427.821
462	452.534
462.5	476.645
463	499.568
463.5	520.513
464	538.146
464.5	549.194
465	551.962
465.5	545.596
466	528.811
466.5	504.204
467	474.801
467.5	443.657
468	413.939
468.5	387.302
469	364.879
469.5	346.124
470	330.15
470.5	316.539
471	304.687
471.5	294.175
472	285
472.5	277.003
473	270.055
473.5	264.274
474	259.616
474.5	255.905
475	252.983
475.5	250.447
476	247.927
476.5	245.21
477	242.321
477.5	239.481
478	236.967
478.5	234.954
479	233.433
479.5	232.395
480	231.723
480.5	231.213
481	230.603
481.5	229.53
482	227.773
482.5	225.242
483	222.273
483.5	219.562
484	217.97
484.5	218.037
485	219.438
485.5	221.579
486	223.488
486.5	224.466
487	224.191
487.5	222.844
488	221.113
488.5	219.563
489	218.634
489.5	218.291
490	218.34
490.5	218.408
491	218.164
491.5	217.445
492	216.24
492.5	214.848
493	213.627
493.5	213.078
494	213.369
494.5	214.471
495	215.993
495.5	217.189
496	217.441
496.5	216.228
497	213.966
497.5	211.253
498	209.001
498.5	207.638
499	207.172
499.5	207.287
500	207.386
500.5	207.208
501	206.785
501.5	206.495
502	206.635
502.5	207.359
503	208.263
503.5	208.891
504	208.705
504.5	207.802
505	206.583
505.5	205.672
506	205.392
506.5	205.709
507	206.315
507.5	206.765
508	206.912
508.5	206.929
509	207.248
509.5	208.162
510	209.75
510.5	211.509
511	212.877
511.5	213.212
512	212.545
512.5	211.228
513	209.692
513.5	208.331
514	207.268
514.5	206.531
515	206.065
515.5	205.893
516	206.136
516.5	206.736
517	207.476
517.5	207.978
518	207.927
518.5	207.294
519	206.333
519.5	205.597
520	205.428
520.5	205.921
521	206.692
521.5	207.221
522	206.986
522.5	205.825
523	203.967
523.5	201.798
524	199.876
524.5	198.59
525	198.256
525.5	198.875
526	200.171
526.5	201.795
527	203.239
527.5	204.157
528	204.317
528.5	203.781
529	202.885
529.5	202.003
530	201.54
530.5	201.691
531	202.572
531.5	204.083
532	205.882
532.5	207.573
533	208.653
533.5	208.859
534	208.078
534.5	206.703
535	205.465
535.5	205.032
536	205.858
536.5	207.632
537	209.802
537.5	211.527
538	212.309
538.5	212.002
539	210.856
539.5	209.473
540	208.197
540.5	207.135
541	206.109
541.5	204.981
542	203.855
542.5	203.103
543	203.117
543.5	204.194
544	205.952
544.5	207.893
545	209.318
545.5	209.919
546	209.687
546.5	208.878
547	208.011
547.5	207.329
548	206.842
548.5	206.269
549	205.369
549.5	204.022
550	202.59
550.5	201.527
551	201.436
551.5	202.308
552	203.937
552.5	205.848
553	207.412
553.5	208.276
554	208.195
554.5	207.496
555	206.504
555.5	205.583
556	204.978
556.5	204.786
557	205.087
557.5	205.749
558	206.639
558.5	207.521
559	208.127
559.5	208.284
560	207.895
560.5	207.223
561	206.612
561.5	206.485
562	206.98
562.5	207.963
563	209.072
563.5	209.802
564	209.836
564.5	208.985
565	207.531
565.5	205.885
566	204.513
566.5	203.769
567	203.763
567.5	204.536
568	205.854
568.5	207.418
569	208.889
569.5	209.933
570	210.383
570.5	210.144
571	209.426
571.5	208.557
572	207.853
572.5	207.493
573	207.404
573.5	207.363
574	207.056
574.5	206.33
575	205.193
575.5	203.948
576	202.996
576.5	202.72
577	203.316
577.5	204.648
578	206.517
578.5	208.536
579	210.319
579.5	211.537
580	211.993
580.5	211.796
581	211.105
581.5	210.228
582	209.451
582.5	208.898
583	208.49
583.5	207.991
584	207.186
584.5	206.016
585	204.757
585.5	203.773
586	203.431
586.5	203.711
587	204.447
587.5	205.315
588	206.072
588.5	206.723
589	207.486
589.5	208.553
590	209.933
590.5	211.317
591	212.227
591.5	212.276
592	211.248
592.5	209.603
593	207.82
593.5	206.46
594	205.693
594.5	205.441
595	205.544
595.5	205.826
596	206.322
596.5	207.178
597	208.321
597.5	209.55
598	210.435
598.5	210.705
599	210.29
599.5	209.335
600	208.343
600.5	207.636
601	207.429
601.5	207.531
602	207.757
602.5	208.03
603	208.473
603.5	209.31
604	210.748
604.5	212.479
605	214.053
605.5	214.839
606	214.683
606.5	213.771
607	212.546
607.5	211.567
608	211.048
608.5	210.929
609	210.844
609.5	210.567
610	210.099
610.5	209.71
611	209.614
611.5	209.808
612	209.9
612.5	209.481
613	208.291
613.5	206.726
614	205.499
614.5	205.399
615	206.483
615.5	208.164
616	209.491
616.5	209.679
617	208.671
617.5	206.94
618	205.466
618.5	204.883
619	205.373
619.5	206.354
620	207.069
620.5	206.956
621	206.068
621.5	204.951
622	204.251
622.5	204.353
623	205.095
623.5	206.064
624	206.752
624.5	207.002
625	206.998
625.5	207.212
626	207.938
626.5	209.208
627	210.641
627.5	211.705
628	211.947
628.5	211.246
629	210.002
629.5	208.736
630	208.039
630.5	208.104
631	208.875
631.5	209.973
632	210.928
632.5	211.439
633	211.385
633.5	210.924
634	210.168
634.5	209.194
635	208.094
635.5	206.969
636	206.048
636.5	205.52
637	205.457
637.5	205.711
638	205.897
638.5	205.724
639	205.084
639.5	204.291
640	203.709
640.5	203.683
641	204.093
641.5	204.657
642	204.99
642.5	205.015
643	204.925
643.5	205.167
644	205.962
644.5	207.262
645	208.711
645.5	209.839
646	210.451
646.5	210.59
647	210.671
647.5	210.936
648	211.424
648.5	211.837
649	211.929
649.5	211.564
650	211.004
650.5	210.51
651	210.28
651.5	210.188
652	210.007
652.5	209.48
653	208.662
653.5	207.761
654	207.08
654.5	206.709
655	206.516
655.5	206.194
656	205.528
656.5	204.555
657	203.589
657.5	203.08
658	203.308
658.5	204.425
659	206.104
659.5	207.993
660	209.823
660.5	211.514
661	213.115
661.5	214.594
662	215.714
662.5	216.108
663	215.25
663.5	213.125
664	210.174
664.5	207.178
665	205.09
665.5	204.413
666	205.296
666.5	207.031
667	208.671
667.5	209.299
668	208.507
668.5	206.538
669	203.87
669.5	201.279
670	199.34
670.5	198.527
671	198.994
671.5	200.558
672	203.007
672.5	205.778
673	208.205
673.5	209.629
674	209.727
674.5	208.841
675	207.592
675.5	206.859
676	207.032
676.5	208.009
677	209.08
677.5	209.476
678	208.756
678.5	207.143
679	205.499
679.5	204.662
680	205.133
680.5	206.459
681	207.835
681.5	208.214
682	207.257
682.5	205.162
683	202.787
683.5	201.121
684	200.746
684.5	201.718
685	203.259
685.5	204.659
686	205.295
686.5	205.2
687	204.649
687.5	204.1
688	203.876
688.5	204.071
689	204.636
689.5	205.34
690	206.007
690.5	206.369
691	206.251
691.5	205.531
692	204.255
692.5	202.965
693	202.26
693.5	202.92
694	204.814
694.5	207.457
695	209.764
695.5	210.785
696	210.108
696.5	207.78
697	204.986
697.5	202.635
698	201.56
698.5	201.583
699	202.287
699.5	203.172
700	203.935
700.5	204.627
701	205.436
701.5	206.37
702	207.201
702.5	207.457
703	206.958
703.5	205.834
704	204.524
704.5	203.607
705	203.328
705.5	203.605
706	203.872
706.5	203.665
707	202.715
707.5	201.382
708	200.236
708.5	199.913
709	200.527
709.5	201.768
710	203.058
710.5	203.776
711	203.661
711.5	202.68
712	201.249
712.5	199.784
713	198.597
713.5	197.79
714	197.325
714.5	197.229
715	197.538
715.5	198.285
716	199.486
716.5	200.902
717	202.17
717.5	202.88
718	202.843
718.5	202.238
719	201.433
719.5	200.947
720	201.067
720.5	201.852
721	202.967
721.5	203.913
722	204.225
722.5	203.657
723	202.375
723.5	200.647
724	198.917
724.5	197.535
725	196.733
725.5	196.573
726	196.888
726.5	197.549
727	198.4
727.5	199.277
728	200.031
728.5	200.464
729	200.467
729.5	199.97
730	199.089
730.5	198.18
731	197.6
731.5	197.645
732	198.182
732.5	198.918
733	199.409
733.5	199.48
734	199.265
734.5	199.262
735	199.924
735.5	201.439
736	203.568
736.5	205.554
737	206.741
737.5	206.571
738	205.377
738.5	203.646
739	202.093
739.5	201.182
740	201.043
740.5	201.593
741	202.383
741.5	203.112
742	203.457
742.5	203.32
743	202.637
743.5	201.35
744	199.746
744.5	198.113
745	196.912
745.5	196.372
746	196.548
746.5	197.326
747	198.238
747.5	198.978
748	199.374
748.5	199.62
749	199.98
749.5	200.704
750	201.641
750.5	202.411
751	202.341
751.5	201.162
752	198.985
752.5	196.327
753	194.118
753.5	192.988
754	193.335
754.5	194.646
755	196.239
755.5	197.39
756	197.779
756.5	197.502
757	196.86
757.5	196.28
758	195.97
758.5	195.989
759	196.184
759.5	196.384
760	196.414
760.5	196.163
761	195.621
761.5	194.867
762	194.191
762.5	193.929
763	194.46
763.5	195.817
764	197.677
764.5	199.506
765	200.7
765.5	201.004
766	200.427
766.5	199.457
767	198.671
767.5	198.537
768	199.175
768.5	200.297
769	201.476
769.5	202.195
770	202.193
770.5	201.364
771	199.932
771.5	198.322
772	196.891
772.5	195.869
773	195.209
773.5	194.803
774	194.536
774.5	194.41
775	194.563
775.5	195.103
776	195.88
776.5	196.589
777	196.812
777.5	196.452
778	195.686
778.5	195.046
779	195.001
779.5	195.746
780	197.045
780.5	198.276
781	198.951
781.5	198.802
782	198.13
782.5	197.27
783	196.521
783.5	195.909
784	195.323
784.5	194.685
785	194.138
785.5	193.982
786	194.609
786.5	195.918
787	197.597
787.5	199.009
788	199.656
788.5	199.346
789	198.194
789.5	196.88
790	195.911
790.5	195.739
791	196.182
791.5	196.946
792	197.64
792.5	198.099
793	198.428
793.5	198.973
794	199.963
794.5	201.387
795	202.937
795.5	204.079
796	204.422
796.5	203.602
797	201.897
797.5	199.608
798	197.075
798.5	194.667
799	192.617
799.5	191.215
800	190.497
800.5	190.417
801	190.876
801.5	191.563
802	192.32
802.5	193.176
803	194.272
803.5	195.685
804	197.287
804.5	198.639
805	199.346
805.5	199.161
806	198.498
806.5	197.999
807	198.358
807.5	199.675
808	201.509
808.5	203.137
809	203.982
809.5	203.992
810	203.401
810.5	202.607
811	201.679
811.5	200.281
812	198.092
812.5	195.241
813	192.374
813.5	190.532
814	190.299
814.5	191.748
815	193.904
815.5	195.556
816	195.817
816.5	194.766
817	193.351
817.5	192.676
818	193.42
818.5	195.238
819	197.28
819.5	198.426
820	198.207
820.5	196.662
821	194.49
821.5	192.527
822	191.315
822.5	191.006
823	191.27
823.5	191.76
824	192.082
824.5	192.022
825	191.511
825.5	190.726
826	190.099
826.5	190.119
827	191.199
827.5	193.099
828	195.253
828.5	196.662
829	196.694
829.5	195.155
830	192.508
830.5	189.875
831	188.117
831.5	187.805
832	188.508
832.5	189.641
833	190.446
833.5	190.541
834	189.851
834.5	188.527
835	187.033
835.5	185.735
836	185.088
836.5	185.218
837	186.133
837.5	187.664
838	189.285
838.5	190.619
839	191.321
839.5	191.468
840	191.151
840.5	190.408
841	189.393
841.5	188.237
842	187.291
842.5	186.931
843	187.367
843.5	188.506
844	189.577
844.5	189.873
845	188.785
845.5	186.827
846	184.827
846.5	183.855
847	184.113
847.5	185.128
848	185.91
848.5	185.718
849	184.567
849.5	183.152
850	182.485
850.5	183.035
851	184.74
851.5	186.693
852	188.152
852.5	188.664
853	188.541
853.5	188.289
854	188.343
854.5	188.736
855	189.21
855.5	189.398
856	189.117
856.5	188.433
857	187.531
857.5	186.701
858	186.139
858.5	186.004
859	186.273
859.5	186.808
860	187.41
860.5	187.828
861	187.923
861.5	187.64
862	187.123
862.5	186.594
863	186.282
863.5	186.351
864	186.823
864.5	187.656
865	188.617
865.5	189.386
866	189.616
866.5	189.145
867	188.186
867.5	187.143
868	186.554
868.5	186.624
869	187.223
869.5	187.775
870	187.701
870.5	186.683
871	184.946
871.5	183.19
872	182.067
872.5	181.914
873	182.347
873.5	182.76
874	182.506
874.5	181.565
875	180.417
875.5	180.054
876	181.131
876.5	183.845
877	187.592
877.5	190.999
878	192.816
878.5	192.017
879	189.09
879.5	184.865
880	180.712
880.5	177.766
881	176.599
881.5	177.367
882	179.248
882.5	181.584
883	183.6
883.5	184.763
884	184.693
884.5	182.982
885	180.009
885.5	176.198
886	172.321
886.5	169.231
887	167.484
887.5	167.57
888	168.953
888.5	171.19
889	173.858
889.5	176.607
890	179.423
890.5	182.45
891	185.691
891.5	188.989
892	191.89
892.5	193.99
893	195.028
893.5	194.796
894	193.724
894.5	192.144
895	190.258
895.5	188.156
896	185.785
896.5	183.152
897	180.617
897.5	178.677
898	178.024
898.5	178.66
899	180.136
899.5	181.547
900	181.92
900.5	180.84
901	178.372
901.5	175.581
902	173.502
902.5	173.101
903	174.348
903.5	176.601
904	178.895
904.5	180.293
905	180.474
905.5	179.563
906	178.352
906.5	177.551
907	177.594
907.5	178.223
908	178.813
908.5	178.665
909	177.516
909.5	175.681
910	173.756
910.5	172.408
911	171.891
911.5	172.221
912	173.1
912.5	174.247
913	175.586
913.5	177.09
914	178.655
914.5	180.044
915	180.912
915.5	181.064
916	180.334
916.5	178.742
917	176.502
917.5	173.793
918	171.013
918.5	168.69
919	167.417
919.5	167.583
920	168.856
920.5	170.649
921	172.112
921.5	172.815
922	172.839
922.5	172.781
923	173.24
923.5	174.411
924	175.95
924.5	177.197
925	177.699
925.5	177.349
926	176.579
926.5	175.743
927	175.055
927.5	174.502
928	174.091
928.5	174.007
929	174.422
929.5	175.41
930	176.735
930.5	177.805
931	178.126
931.5	177.352
932	175.901
932.5	174.266
933	173.062
933.5	172.501
934	172.546
934.5	172.987
935	173.434
935.5	173.648
936	173.403
936.5	172.777
937	171.933
937.5	171.24
938	171.025
938.5	171.414
939	172.268
939.5	173.002
940	173.142
940.5	172.326
941	170.98
941.5	169.696
942	169.263
942.5	169.867
943	171.294
943.5	173.004
944	174.327
944.5	174.947
945	174.741
945.5	174.052
946	173.174
946.5	172.32
947	171.565
947.5	170.887
948	170.223
948.5	169.499
949	168.68
949.5	167.78
950	166.921
950.5	166.257
951	165.978
951.5	166.083
952	166.434
952.5	166.822
953	167.071
953.5	167.196
954	167.401
954.5	167.948
955	168.928
955.5	170.21
956	171.336
956.5	171.863
957	171.427
957.5	170.177
958	168.645
958.5	167.548
959	167.523
959.5	168.728
960	171.04
960.5	173.747
961	175.98
961.5	176.846
962	175.859
962.5	173.315
963	169.916
963.5	166.93
964	165.361
964.5	165.815
965	167.922
965.5	170.442
966	172.097
966.5	171.985
967	170.407
967.5	168.197
968	166.587
968.5	166.177
969	166.906
969.5	168.031
970	168.758
970.5	168.8
971	168.465
971.5	168.36
972	168.808
972.5	169.641
973	170.271
973.5	170.231
974	169.405
974.5	168.29
975	167.397
975.5	167.12
976	167.337
976.5	167.812
977	168.326
977.5	168.836
978	169.402
978.5	169.983
979	170.364
979.5	170.295
980	169.581
980.5	168.466
981	167.234
981.5	166.199
982	165.438
982.5	164.911
983	164.591
983.5	164.456
984	164.538
984.5	164.772
985	164.866
985.5	164.53
986	163.483
986.5	162.001
987	160.458
987.5	159.38
988	158.925
988.5	159.031
989	159.546
989.5	160.247
990	161.121
990.5	162.263
991	163.586
991.5	164.869
992	165.695
992.5	165.839
993	165.25
993.5	163.967
994	162.34
994.5	160.664
995	159.304
995.5	158.556
996	158.62
996.5	159.697
997	161.501
997.5	163.638
998	165.646
998.5	167.183
999	168.129
999.5	168.359
1000	167.894
1000.5	166.723
1001	164.796
1001.5	162.422
1002	160.069
1002.5	158.306
1003	157.411
1003.5	157.25
1004	157.485
1004.5	157.712
1005	157.835
1005.5	158.043
1006	158.615
1006.5	159.626
1007	160.954
1007.5	162.283
1008	163.409
1008.5	164.297
1009	165.049
1009.5	165.686
1010	165.968
1010.5	165.501
1011	164.104
1011.5	161.809
1012	159.179
1012.5	156.963
1013	155.806
1013.5	155.895
1014	156.738
1014.5	157.676
1015	157.983
1015.5	157.48
1016	156.397
1016.5	155.383
1017	155.023
1017.5	155.619
1018	156.992
1018.5	158.49
1019	159.52
1019.5	159.705
1020	159.3
1020.5	158.764
1021	158.678
1021.5	159.2
1022	160.157
1022.5	161.037
1023	161.391
1023.5	161.03
1024	160.055
1024.5	158.899
1025	157.863
1025.5	157.162
1026	156.794
1026.5	156.777
1027	157.217
1027.5	158.079
1028	159.286
1028.5	160.576
1029	161.564
1029.5	161.955
1030	161.477
1030.5	160.314
1031	158.615
1031.5	156.559
1032	154.468
1032.5	152.625
1033	151.519
1033.5	151.323
1034	152.091
1034.5	153.693
1035	155.5
1035.5	157.082
1036	158.088
1036.5	158.631
1037	158.878
1037.5	158.896
1038	158.695
1038.5	158.256
1039	157.71
1039.5	157.409
1040	157.633
1040.5	158.481
1041	159.447
1041.5	159.921
1042	159.246
1042.5	157.574
1043	155.473
1043.5	153.847
1044	153.282
1044.5	153.801
1045	155.033
1045.5	156.215
1046	156.895
1046.5	156.934
1047	156.671
1047.5	156.434
1048	156.397
1048.5	156.448
1049	156.361
1049.5	155.905
1050	155.108
1050.5	154.188
1051	153.445
1051.5	153.048
1052	152.92
1052.5	152.839
1053	152.598
1053.5	152.269
1054	152.234
1054.5	152.962
1055	154.569
1055.5	156.804
1056	158.867
1056.5	160.12
1057	160.245
1057.5	159.574
1058	158.703
1058.5	158.001
1059	157.439
1059.5	156.726
1060	155.656
1060.5	154.408
1061	153.433
1061.5	153.146
1062	153.583
1062.5	154.338
1063	155.04
1063.5	155.554
1064	156.086
1064.5	156.856
1065	157.742
1065.5	158.263
1066	157.921
1066.5	156.591
1067	154.849
1067.5	153.373
1068	152.702
1068.5	152.673
1069	152.87
1069.5	152.843
1070	152.594
1070.5	152.455
1071	152.868
1071.5	153.798
1072	154.884
1072.5	155.478
1073	155.268
1073.5	154.307
1074	153.069
1074.5	152.177
1075	152.05
1075.5	152.973
1076	154.617
1076.5	156.576
1077	158.162
1077.5	158.879
1078	158.527
1078.5	157.273
1079	155.934
1079.5	155.129
1080	155.32
1080.5	156.134
1081	157.124
1081.5	157.85
1082	158.353
1082.5	158.874
1083	159.608
1083.5	160.348
1084	160.736
1084.5	160.333
1085	159.274
1085.5	157.825
1086	156.233
1086.5	154.55
1087	152.645
1087.5	150.446
1088	148.295
1088.5	146.65
1089	145.989
1089.5	146.061
1090	146.368
1090.5	146.455
1091	146.43
1091.5	146.758
1092	147.993
1092.5	149.919
1093	151.835
1093.5	152.729
1094	152.257
1094.5	150.773
1095	149.033
1095.5	147.772
1096	147.135
1096.5	146.917
1097	146.788
1097.5	146.75
1098	147.077
1098.5	147.81
1099	148.604
1099.5	148.822
1100	148.11
1100.5	146.722
1101	145.345
1101.5	144.75
1102	145.126
1102.5	146.176
1103	147.124
1103.5	147.426
1104	146.869
1104.5	145.754
1105	144.547
1105.5	143.637
1106	143.269
1106.5	143.513
1107	144.46
1107.5	145.981
1108	147.733
1108.5	149.327
1109	150.424
1109.5	150.997
1110	151.144
1110.5	151.038
1111	150.742
1111.5	150.114
1112	148.987
1112.5	147.441
1113	145.737
1113.5	144.299
1114	143.362
1114.5	142.974
1115	142.92
1115.5	142.846
1116	142.52
1116.5	141.912
1117	141.301
1117.5	141.079
1118	141.67
1118.5	143.014
1119	144.78
1119.5	146.227
1120	146.742
1120.5	146.14
1121	144.771
1121.5	143.494
1122	142.93
1122.5	143.372
1123	144.32
1123.5	145.221
1124	145.556
1124.5	145.382
1125	144.983
1125.5	144.751
1126	144.785
1126.5	144.928
1127	144.838
1127.5	144.423
1128	143.841
1128.5	143.543
1129	143.862
1129.5	144.878
1130	146.33
1130.5	147.504
1131	147.841
1131.5	146.877
1132	145.158
1132.5	143.389
1133	142.53
1133.5	142.784
1134	143.755
1134.5	144.512
1135	144.363
1135.5	143.253
1136	141.678
1136.5	140.481
1137	140.029
1137.5	140.215
1138	140.389
1138.5	140.181
1139	139.681
1139.5	139.503
1140	140.118
1140.5	141.614
1141	143.151
1141.5	143.918
1142	143.276
1142.5	141.626
1143	139.771
1143.5	138.648
1144	138.592
1144.5	139.259
1145	139.825
1145.5	139.385
1146	137.554
1146.5	134.35
1147	130.658
1147.5	127.469
1148	125.682
1148.5	125.5
1149	126.553
1149.5	128.352
1150	130.313
1150.5	132.225
1151	134.205
1151.5	136.446
1152	138.898
1152.5	141.192
1153	142.771
1153.5	143.372
1154	143.074
1154.5	142.421
1155	141.938
1155.5	141.846
1156	141.929
1156.5	141.791
1157	141.142
1157.5	140.078
1158	139.05
1158.5	138.588
1159	139.055
1159.5	140.326
1160	142.034
1160.5	143.552
1161	144.391
1161.5	144.202
1162	142.973
1162.5	141.207
1163	139.494
1163.5	138.497
1164	138.375
1164.5	138.923
1165	139.492
1165.5	139.466
1166	138.644
1166.5	137.441
1167	136.607
1167.5	136.663
1168	137.732
1168.5	139.234
1169	140.621
1169.5	141.459
1170	141.831
1170.5	141.923
1171	141.849
1171.5	141.54
1172	140.823
1172.5	139.696
1173	138.568
1173.5	137.853
1174	137.851
1174.5	138.208
1175	138.413
1175.5	137.844
1176	136.544
1176.5	134.875
1177	133.538
1177.5	132.988
1178	133.325
1178.5	134.433
1179	135.875
1179.5	137.438
1180	138.882
1180.5	139.95
1181	140.358
1181.5	139.746
1182	138.393
1182.5	136.729
1183	135.408
1183.5	134.754
1184	134.624
1184.5	134.495
1185	133.906
1185.5	132.825
1186	131.67
1186.5	131.104
1187	131.508
1187.5	133.013
1188	135.056
1188.5	137.097
1189	138.637
1189.5	139.497
1190	139.675
1190.5	139.034
1191	137.675
1191.5	135.829
1192	133.993
1192.5	132.845
1193	132.799
1193.5	133.99
1194	135.756
1194.5	137.305
1195	137.9
1195.5	137.587
1196	136.871
1196.5	136.333
1197	136.269
1197.5	136.523
1198	136.729
1198.5	136.603
1199	136.205
1199.5	135.839
1200	135.848
1200.5	136.285
1201	136.919
1201.5	137.334
1202	137.287
1202.5	136.728
1203	135.944
1203.5	135.357
1204	135.391
1204.5	136.23
1205	137.602
1205.5	138.933
1206	139.32
1206.5	138.292
1207	135.777
1207.5	132.475
1208	129.485
1208.5	127.751
1209	127.725
1209.5	128.946
1210	130.831
1210.5	132.697
1211	134.149
1211.5	134.967
1212	134.996
1212.5	134.267
1213	132.87
1213.5	131.286
1214	130.211
1214.5	130.172
1215	131.217
1215.5	132.56
1216	133.354
1216.5	132.902
1217	131.561
1217.5	130.037
1218	129.135
1218.5	129.045
1219	129.63
1219.5	130.628
1220	131.847
1220.5	133.33
1221	135.052
1221.5	136.615
1222	137.469
1222.5	137.137
1223	136.039
1223.5	134.773
1224	134.059
1224.5	133.953
1225	134.089
1225.5	133.8
1226	132.861
1226.5	131.459
1227	130.114
1227.5	129.177
1228	128.62
1228.5	128.314
1229	128.234
1229.5	128.661
1230	130.121
1230.5	132.449
1231	135.104
1231.5	136.998
1232	137.395
1232.5	136.245
1233	134.106
1233.5	132.067
1234	130.747
1234.5	130.437
1235	130.703
1235.5	131.127
1236	131.39
1236.5	131.439
1237	131.337
1237.5	131.15
1238	130.961
1238.5	130.89
1239	131.215
1239.5	132.126
1240	133.609
1240.5	135.342
1241	136.619
1241.5	136.835
1242	135.49
1242.5	133.118
1243	130.672
1243.5	129.249
1244	129.374
1244.5	130.78
1245	132.704
1245.5	134.019
1246	134.077
1246.5	132.637
1247	130.325
1247.5	128.071
1248	126.735
1248.5	126.764
1249	128.047
1249.5	130.242
1250	132.53
1250.5	134.128
1251	134.385
1251.5	133.282
1252	131.517
1252.5	130.027
1253	129.576
1253.5	130.198
1254	131.524
1254.5	132.811
1255	133.526
1255.5	133.406
1256	132.454
1256.5	130.821
1257	128.562
1257.5	125.959
1258	123.608
1258.5	122.29
1259	122.67
1259.5	124.482
1260	127.059
1260.5	129.303
1261	130.577
1261.5	130.919
1262	131.041
1262.5	131.565
1263	132.548
1263.5	133.433
1264	133.554
1264.5	132.554
1265	130.559
1265.5	128.279
1266	126.257
1266.5	124.816
1267	123.86
1267.5	123.356
1268	123.409
1268.5	124.016
1269	125.153
1269.5	126.635
1270	128.097
1270.5	129.316
1271	130.21
1271.5	130.899
1272	131.396
1272.5	131.545
1273	131.277
1273.5	130.614
1274	129.817
1274.5	129.332
1275	129.444
1275.5	130.136
1276	130.764
1276.5	130.755
1277	129.537
1277.5	127.467
1278	125.127
1278.5	123.406
1279	122.723
1279.5	123.117
1280	124.546
1280.5	126.963
1281	130.962
1281.5	137.934
1282	147.924
1282.5	160.054
1283	171.81
1283.5	179.878
1284	181.694
1284.5	175.62
1285	164.515
1285.5	151.521
1286	139.996
1286.5	131.78
1287	126.938
1287.5	124.801
1288	123.715
1288.5	122.757
1289	121.748
1289.5	121.058
1290	121.07
1290.5	122.06
1291	123.722
1291.5	125.492
1292	126.648
1292.5	126.733
1293	125.822
1293.5	124.468
1294	123.553
1294.5	123.594
1295	124.721
1295.5	126.313
1296	127.578
1296.5	127.839
1297	126.997
1297.5	125.526
1298	124.034
1298.5	122.999
1299	122.513
1299.5	122.495
1300	122.69
1300.5	122.888
1301	123.021
1301.5	123.163
1302	123.458
1302.5	124.021
1303	124.807
1303.5	125.574
1304	125.984
1304.5	125.741
1305	124.881
1305.5	123.593
1306	122.285
1306.5	121.26
1307	120.653
1307.5	120.472
1308	120.606
1308.5	121.003
1309	121.525
1309.5	121.9
1310	121.769
1310.5	120.937
1311	119.73
1311.5	118.693
1312	118.526
1312.5	119.336
1313	120.802
1313.5	122.089
1314	122.452
1314.5	121.692
1315	120.25
1315.5	118.968
1316	118.363
1316.5	118.601
1317	119.202
1317.5	119.725
1318	119.797
1318.5	119.457
1319	118.856
1319.5	118.11
1320	117.304
1320.5	116.484
1321	115.778
1321.5	115.327
1322	115.25
1322.5	115.705
1323	116.593
1323.5	117.919
1324	119.729
1324.5	121.737
1325	123.539
1325.5	124.342
1326	123.809
1326.5	121.972
1327	119.55
1327.5	117.733
1328	117.255
1328.5	118.504
1329	120.618
1329.5	122.697
1330	123.777
1330.5	123.685
1331	122.742
1331.5	121.348
1332	119.858
1332.5	118.329
1333	116.706
1333.5	115.035
1334	113.473
1334.5	112.295
1335	111.527
1335.5	111.061
1336	110.728
1336.5	110.357
1337	109.891
1337.5	109.316
1338	108.645
1338.5	107.9
1339	107.176
1339.5	106.69
1340	106.672
1340.5	107.396
1341	108.825
1341.5	110.713
1342	112.735
1342.5	114.507
1343	115.852
1343.5	116.651
1344	116.964
1344.5	116.963
1345	116.884
1345.5	117.095
1346	117.887
1346.5	119.371
1347	121.139
1347.5	122.528
1348	122.775
1348.5	121.524
1349	119.177
1349.5	116.539
1350	114.819
1350.5	114.606
1351	115.884
1351.5	117.811
1352	119.3
1352.5	119.565
1353	118.52
1353.5	116.931
1354	115.734
1354.5	115.604
1355	116.379
1355.5	117.609
1356	118.708
1356.5	119.454
1357	119.939
1357.5	120.381
1358	120.777
1358.5	120.845
1359	120.243
1359.5	119.061
1360	117.606
1360.5	116.364
1361	115.549
1361.5	115.086
1362	114.732
1362.5	114.436
1363	114.403
1363.5	114.91
1364	115.764
1364.5	116.468
1365	116.213
1365.5	114.913
1366	113.064
1366.5	111.692
1367	111.513
1367.5	112.682
1368	114.798
1368.5	116.891
1369	118.4
1369.5	119.125
1370	119.414
1370.5	119.449
1371	119.219
1371.5	118.708
1372	117.95
1372.5	117.169
1373	116.639
1373.5	116.417
1374	116.402
1374.5	116.417
1375	116.516
1375.5	117.039
1376	118.157
1376.5	119.683
1377	120.918
1377.5	121.282
1378	120.719
1378.5	119.82
1379	119.592
1379.5	120.505
1380	122.229
1380.5	123.492
1381	123.588
1381.5	122.584
1382	121.712
1382.5	121.986
1383	123.895
1383.5	126.684
1384	129.879
1384.5	134.569
1385	142.741
1385.5	155.737
1386	173.275
1386.5	190.69
1387	201.86
1387.5	200.686
1388	187.667
1388.5	167.37
1389	146.109
1389.5	129.939
1390	120.803
1390.5	118.281
1391	118.309
1391.5	118.023
1392	116.418
1392.5	114.22
1393	112.597
1393.5	112.415
1394	113.606
1394.5	115.39
1395	116.981
1395.5	117.782
1396	117.612
1396.5	116.413
1397	114.526
1397.5	112.571
1398	111.267
1398.5	111.157
1399	112.197
1399.5	114.054
1400	115.957
1400.5	117.256
1401	117.643
1401.5	117.507
1402	117.513
1402.5	118.037
1403	118.919
1403.5	119.552
1404	119.383
1404.5	118.327
1405	117.096
1405.5	116.374
1406	116.486
1406.5	117.051
1407	117.627
1407.5	118.052
1408	118.718
1408.5	120.1
1409	122.176
1409.5	124.098
1410	124.849
1410.5	123.585
1411	120.819
1411.5	117.489
1412	114.844
1412.5	113.349
1413	112.979
1413.5	113.437
1414	114.204
1414.5	115.018
1415	115.619
1415.5	115.886
1416	115.809
1416.5	115.56
1417	115.47
1417.5	115.711
1418	116.219
1418.5	116.588
1419	116.546
1419.5	115.969
1420	115.158
1420.5	114.375
1421	113.876
1421.5	113.697
1422	113.799
1422.5	114.072
1423	114.239
1423.5	114.02
1424	113.101
1424.5	111.717
1425	110.342
1425.5	109.64
1426	109.681
1426.5	110.141
1427	110.472
1427.5	110.464
1428	110.495
1428.5	111.438
1429	113.506
1429.5	116.193
1430	118.243
1430.5	118.587
1431	117.014
1431.5	114.151
1432	111.671
1432.5	110.493
1433	110.899
1433.5	111.995
1434	112.849
1434.5	112.819
1435	112.243
1435.5	111.883
1436	112.439
1436.5	113.882
1437	115.606
1437.5	116.715
1438	116.662
1438.5	115.796
1439	114.949
1439.5	115.001
1440	116.145
1440.5	117.922
1441	119.164
1441.5	119.029
1442	117.339
1442.5	114.874
1443	112.635
1443.5	111.32
1444	110.866
1444.5	110.585
1445	109.807
1445.5	108.419
1446	106.921
1446.5	106.028
1447	106.226
1447.5	107.335
1448	108.804
1448.5	110
1449	110.726
1449.5	111.072
1450	111.276
1450.5	111.408
1451	111.235
1451.5	110.443
1452	109.036
1452.5	107.192
1453	105.296
1453.5	103.674
1454	102.541
1454.5	102.041
1455	102.21
1455.5	103.141
1456	104.674
1456.5	106.193
1457	106.959
1457.5	106.495
1458	105.305
1458.5	104.164
1459	103.971
1459.5	104.764
1460	106.012
1460.5	106.689
1461	106.426
1461.5	105.454
1462	104.463
1462.5	103.99
1463	104.072
1463.5	104.331
1464	104.408
1464.5	104.367
1465	104.591
1465.5	105.3
1466	106.426
1466.5	107.574
1467	108.377
1467.5	108.785
1468	108.925
1468.5	109.017
1469	109.052
1469.5	108.758
1470	108.025
1470.5	106.897
1471	105.624
1471.5	104.576
1472	103.948
1472.5	103.768
1473	103.633
1473.5	103.244
1474	102.469
1474.5	101.686
1475	101.428
1475.5	102.4
1476	104.292
1476.5	106.341
1477	107.412
1477.5	107.008
1478	105.358
1478.5	103.261
1479	101.69
1479.5	100.843
1480	100.452
1480.5	100.087
1481	99.7866
1481.5	100.183
1482	101.655
1482.5	103.874
1483	105.901
1483.5	106.719
1484	106.051
1484.5	104.297
1485	102.697
1485.5	101.969
1486	102.277
1486.5	103.056
1487	103.738
1487.5	103.994
1488	103.937
1488.5	103.775
1489	103.59
1489.5	103.376
1490	103.14
1490.5	102.971
1491	102.946
1491.5	102.995
1492	102.924
1492.5	102.513
1493	101.735
1493.5	100.732
1494	99.8835
1494.5	99.4692
1495	99.6694
1495.5	100.394
1496	101.305
1496.5	101.984
1497	102.123
1497.5	101.809
1498	101.364
1498.5	101.306
1499	101.878
1499.5	102.921
1500	103.759
1500.5	103.879
1501	103.201
1501.5	102.325
1502	102.144
1502.5	103.167
1503	104.943
1503.5	106.341
1504	106.425
1504.5	104.908
1505	102.796
1505.5	101.283
1506	101.172
1506.5	101.972
1507	102.834
1507.5	102.847
1508	102.02
1508.5	100.963
1509	100.446
1509.5	100.559
1510	100.954
1510.5	101.019
1511	100.528
1511.5	99.7095
1512	99.0226
1512.5	98.7517
1513	98.9668
1513.5	99.6922
1514	100.813
1514.5	102.285
1515	104.049
1515.5	105.833
1516	107.369
1516.5	108.179
1517	108.059
1517.5	106.824
1518	104.274
1518.5	101.087
1519	98.0839
1519.5	96.7042
1520	97.083
1520.5	98.6929
1521	100.294
1521.5	100.784
1522	99.9976
1522.5	98.8036
1523	98.4482
1523.5	99.2997
1524	100.966
1524.5	102.38
1525	102.957
1525.5	102.837
1526	102.602
1526.5	102.562
1527	102.498
1527.5	102.069
1528	101.335
1528.5	100.701
1529	100.573
1529.5	100.998
1530	101.658
1530.5	102.171
1531	102.395
1531.5	102.433
1532	102.255
1532.5	101.965
1533	101.644
1533.5	101.462
1534	101.549
1534.5	101.931
1535	102.119
1535.5	101.803
1536	101.075
1536.5	100.433
1537	100.352
1537.5	101.264
1538	102.731
1538.5	103.946
1539	104.043
1539.5	102.888
1540	100.818
1540.5	98.9818
1541	98.1404
1541.5	98.5627
1542	99.6374
1542.5	100.77
1543	101.466
1543.5	101.856
1544	102.202
1544.5	102.581
1545	102.792
1545.5	102.458
1546	101.51
1546.5	100.326
1547	99.461
1547.5	99.192
1548	99.4949
1548.5	99.9737
1549	100.238
1549.5	100.223
1550	100.171
1550.5	100.338
1551	100.907
1551.5	101.68
1552	102.369
1552.5	102.675
1553	102.504
1553.5	101.818
1554	100.722
1554.5	99.5521
1555	98.7195
1555.5	98.6266
1556	99.4418
1556.5	101.175
1557	103.123
1557.5	104.65
1558	105.238
1558.5	104.964
1559	104.125
1559.5	103.394
1560	103.171
1560.5	103.601
1561	104.403
1561.5	105.244
1562	105.696
1562.5	105.618
1563	105.072
1563.5	104.281
1564	103.5
1564.5	102.892
1565	102.41
1565.5	101.853
1566	101.022
1566.5	99.9763
1567	98.9434
1567.5	98.4084
1568	98.6865
1568.5	99.8404
1569	101.599
1569.5	103.519
1570	105.119
1570.5	105.972
1571	106.002
1571.5	105.226
1572	104.041
1572.5	102.801
1573	101.948
1573.5	101.684
1574	101.983
1574.5	102.596
1575	103.274
1575.5	103.808
1576	104.094
1576.5	104.091
1577	103.719
1577.5	102.932
1578	101.589
1578.5	99.539
1579	96.7477
1579.5	93.3554
1580	89.962
1580.5	87.301
1581	86.5179
1581.5	87.9961
1582	91.6348
1582.5	96.1462
1583	100.135
1583.5	102.563
1584	103.211
1584.5	102.661
1585	101.764
1585.5	101.056
1586	100.54
1586.5	100.023
1587	99.4354
1587.5	98.9834
1588	99.0024
1588.5	99.482
1589	100.189
1589.5	100.668
1590	100.644
1590.5	100.014
1591	99.2027
1591.5	98.5429
1592	98.3712
1592.5	98.7661
1593	99.7485
1593.5	101.074
1594	102.374
1594.5	103.264
1595	103.517
1595.5	103.105
1596	102.113
1596.5	100.939
1597	99.877
1597.5	99.2082
1598	99.0547
1598.5	99.514
1599	100.437
1599.5	101.475
1600	102.246
1600.5	102.61
1601	102.64
1601.5	102.578
1602	102.609
1602.5	102.62
1603	102.3
1603.5	101.533
1604	100.465
1604.5	99.6525
1605	99.6223
1605.5	100.595
1606	102.003
1606.5	103.258
1607	103.776
1607.5	103.534
1608	102.847
1608.5	102.396
1609	102.512
1609.5	103.32
1610	104.482
1610.5	105.611
1611	106.195
1611.5	106.123
1612	105.37
1612.5	104.077
1613	102.487
1613.5	100.839
1614	99.5005
1614.5	98.7512
1615	98.9139
1615.5	99.8328
1616	101.209
1616.5	102.45
1617	103.084
1617.5	103.046
1618	102.742
1618.5	102.606
1619	102.918
1619.5	103.516
1620	104.082
1620.5	104.42
1621	104.732
1621.5	105.277
1622	106.131
1622.5	106.938
1623	106.989
1623.5	105.896
1624	103.881
1624.5	101.529
1625	99.6441
1625.5	98.6788
1626	98.7547
1626.5	99.2577
1627	99.688
1627.5	99.643
1628	99.073
1628.5	98.1272
1629	97.323
1629.5	97.1267
1630	97.921
1630.5	99.4438
1631	101.276
1631.5	102.76
1632	103.523
1632.5	103.601
1633	103.489
1633.5	103.558
1634	103.986
1634.5	104.588
1635	105.115
1635.5	105.309
1636	105.114
1636.5	104.394
1637	102.983
1637.5	100.908
1638	98.4045
1638.5	96.289
1639	95.2515
1639.5	95.8464
1640	97.5717
1640.5	99.7487
1641	101.434
1641.5	102.154
1642	101.96
1642.5	101.293
1643	100.466
1643.5	99.5816
1644	98.6403
1644.5	97.7222
1645	97.1674
1645.5	97.2002
1646	97.8596
1646.5	98.7985
1647	99.5062
1647.5	99.5415
1648	98.9775
1648.5	98.2906
1649	97.9977
1649.5	98.1996
1650	98.6697
1650.5	98.8985
1651	98.583
1651.5	97.8602
1652	97.2464
1652.5	97.0924
1653	97.5066
1653.5	98.136
1654	98.6266
1654.5	98.8629
1655	99.1879
1655.5	99.9084
1656	101.055
1656.5	102.221
1657	102.842
1657.5	102.595
1658	101.811
1658.5	100.993
1659	100.452
1659.5	100.093
1660	99.5015
1660.5	98.4377
1661	97.1099
1661.5	96.1837
1662	96.061
1662.5	96.857
1663	98.0675
1663.5	99.1532
1664	99.5908
1664.5	99.4712
1665	98.9221
1665.5	98.0781
1666	97.0736
1666.5	96.0615
1667	95.3472
1667.5	95.1622
1668	95.5449
1668.5	96.1643
1669	96.7309
1669.5	97.0913
1670	97.4222
1670.5	97.996
1671	98.9038
1671.5	99.9372
1672	100.891
1672.5	101.771
1673	102.782
1673.5	104.187
1674	105.776
1674.5	107.021
1675	107.28
1675.5	106.508
1676	104.94
1676.5	103.184
1677	101.643
1677.5	100.412
1678	99.329
1678.5	98.4088
1679	97.9146
1679.5	97.9892
1680	98.5761
1680.5	99.1475
1681	99.1271
1681.5	98.2419
1682	96.8153
1682.5	95.381
1683	94.5275
1683.5	94.4482
1684	95.1246
1684.5	96.3631
1685	97.9045
1685.5	99.573
1686	101.102
1686.5	102.271
1687	102.892
1687.5	103.103
1688	103.209
1688.5	103.504
1689	104.014
1689.5	104.572
1690	104.833
1690.5	104.587
1691	103.778
1691.5	102.752
1692	101.869
1692.5	101.469
1693	101.564
1693.5	101.961
1694	102.255
1694.5	102.104
1695	101.422
1695.5	100.393
1696	99.3078
1696.5	98.4081
1697	97.8042
1697.5	97.5191
1698	97.6492
1698.5	98.1525
1699	98.9489
1699.5	99.7395
1700	100.147
1700.5	99.8302
1701	98.7345
1701.5	97.1624
1702	95.5563
1702.5	94.296
1703	93.591
1703.5	93.6585
1704	94.4325
1704.5	95.8317
1705	97.4502
1705.5	98.7629
1706	99.3437
1706.5	99.1765
1707	98.5678
1707.5	97.9532
1708	97.6307
1708.5	97.5959
1709	97.6364
1709.5	97.6596
1710	97.7573
1710.5	98.0872
1711	98.6193
1711.5	99.0891
1712	99.0585
1712.5	98.396
1713	97.2744
1713.5	96.2177
1714	95.6158
1714.5	95.6172
1715	95.9375
1715.5	96.1838
1716	96.1012
1716.5	95.8146
1717	95.6408
1717.5	95.8254
1718	96.3678
1718.5	97.0083
1719	97.4217
1719.5	97.5395
1720	97.7274
1720.5	98.3799
1721	99.7098
1721.5	101.279
1722	102.363
1722.5	101.927
1723	99.8868
1723.5	96.8621
1724	94.0936
1724.5	92.5095
1725	92.5621
1725.5	93.7844
1726	95.3347
1726.5	96.427
1727	96.9492
1727.5	97.2362
1728	97.7339
1728.5	98.5634
1729	99.5769
1729.5	100.417
1730	100.851
1730.5	100.732
1731	100.114
1731.5	99.0333
1732	97.5422
1732.5	96.0141
1733	94.9132
1733.5	94.7685
1734	95.4801
1734.5	96.4217
1735	96.6793
1735.5	95.9658
1736	94.5936
1736.5	93.6076
1737	93.7875
1737.5	95.5304
1738	97.972
1738.5	100.146
1739	101.29
1739.5	101.37
1740	100.525
1740.5	99.1482
1741	97.5575
1741.5	96.1518
1742	95.388
1742.5	95.5152
1743	96.4774
1743.5	97.6997
1744	98.6709
1744.5	99.1609
1745	99.4329
1745.5	99.9031
1746	100.592
1746.5	101.086
1747	100.752
1747.5	99.5936
1748	98.0172
1748.5	96.8389
1749	96.4872
1749.5	96.8895
1750	97.2853
1750.5	97.2148
1751	96.6468
1751.5	96.1554
1752	96.2593
1752.5	97.2251
1753	98.5369
1753.5	99.4312
1754	99.3142
1754.5	98.3736
1755	97.1887
1755.5	96.557
1756	96.7802
1756.5	97.6914
1757	98.4775
1757.5	98.5117
1758	97.7469
1758.5	96.8151
1759	96.3946
1759.5	96.8418
1760	97.8786
1760.5	98.8924
1761	99.2458
1761.5	98.7352
1762	97.5878
1762.5	96.3037
1763	95.2023
1763.5	94.4787
1764	94.1238
1764.5	94.138
1765	94.4569
1765.5	94.998
1766	95.6158
1766.5	96.0975
1767	96.2668
1767.5	96.0048
1768	95.4809
1768.5	95.0042
1769	95.019
1769.5	95.6842
1770	96.7596
1770.5	97.5648
1771	97.6028
1771.5	96.6042
1772	95.0924
1772.5	93.6503
1773	92.8083
1773.5	92.5358
1774	92.5565
1774.5	92.6796
1775	93.0322
1775.5	93.9192
1776	95.2739
1776.5	96.71
1777	97.5297
1777.5	97.4597
1778	96.7432
1778.5	96.1635
1779	96.1705
1779.5	96.7678
1780	97.3614
1780.5	97.4519
1781	96.7838
1781.5	95.8077
1782	95.0081
1782.5	94.6155
1783	94.3581
1783.5	93.9172
1784	93.2699
1784.5	92.7986
1785	93.1508
1785.5	94.5379
1786	96.6459
1786.5	98.5476
1787	99.5308
1787.5	99.3797
1788	98.4869
1788.5	97.4644
1789	96.6637
1789.5	96.0066
1790	95.2495
1790.5	94.3127
1791	93.6034
1791.5	93.5585
1792	94.3897
1792.5	95.6344
1793	96.6459
1793.5	96.8318
1794	96.2113
1794.5	95.2003
1795	94.5445
1795.5	94.5871
1796	95.3974
1796.5	96.5907
1797	97.8569
1797.5	98.8834
1798	99.5134
1798.5	99.5983
1799	99.1268
1799.5	98.2301
1800	97.0921
1800.5	95.9358
1801	94.8725
1801.5	93.9876
1802	93.3302
1802.5	93.0155
1803	93.1444
1803.5	93.6724
1804	94.4506
1804.5	95.2251
1805	95.8683
1805.5	96.3154
1806	96.5933
1806.5	96.668
1807	96.4783
1807.5	96.09
1808	95.6952
1808.5	95.5928
1809	95.8295
1809.5	96.1688
1810	96.1224
1810.5	95.3749
1811	93.907
1811.5	92.2917
1812	91.1575
1812.5	91.0153
1813	91.6991
1813.5	92.7546
1814	93.5985
1814.5	93.9741
1815	93.8428
1815.5	93.536
1816	93.3501
1816.5	93.5582
1817	94.1596
1817.5	94.9961
1818	95.6815
1818.5	95.9256
1819	95.5113
1819.5	94.6167
1820	93.5543
1820.5	92.7581
1821	92.4575
1821.5	92.7093
1822	93.3428
1822.5	94.0379
1823	94.5269
1823.5	94.6224
1824	94.2973
1824.5	93.6292
1825	92.9555
1825.5	92.6019
1826	92.8467
1826.5	93.5002
1827	94.0623
1827.5	93.8557
1828	92.6915
1828.5	90.8266
1829	89.2428
1829.5	88.8153
1830	90.3121
1830.5	93.1625
1831	96.4364
1831.5	98.6587
1832	99.2106
1832.5	98.0352
1833	95.9336
1833.5	93.7506
1834	92.2055
1834.5	91.5346
1835	91.7335
1835.5	92.6793
1836	93.9643
1836.5	95.1554
1837	95.7662
1837.5	95.6804
1838	95.0068
1838.5	94.1906
1839	93.5248
1839.5	93.1032
1840	92.7684
1840.5	92.488
1841	92.5334
1841.5	93.2138
1842	94.5609
1842.5	95.983
1843	96.7687
1843.5	96.3263
1844	94.9677
1844.5	93.3611
1845	92.3617
1845.5	92.244
1846	92.9379
1846.5	94.1105
1847	95.4972
1847.5	96.9344
1848	98.0545
1848.5	98.4297
1849	97.5939
1849.5	95.9287
1850	94.1505
1850.5	93.2636
1851	93.5041
1851.5	94.4713
1852	95.1515
1852.5	95.1071
1853	94.4699
1853.5	93.9202
1854	93.8307
1854.5	94.1151
1855	94.2121
1855.5	93.7437
1856	92.7766
1856.5	91.8117
1857	91.2498
1857.5	91.0418
1858	90.8978
1858.5	90.575
1859	90.1348
1859.5	89.7613
1860	89.6112
1860.5	89.6099
1861	89.6479
1861.5	89.7077
1862	89.9026
1862.5	90.3345
1863	90.9129
1863.5	91.5036
1864	92.0456
1864.5	92.6138
1865	93.2288
1865.5	93.6485
1866	93.4876
1866.5	92.3924
1867	90.5781
1867.5	88.7597
1868	87.7628
1868.5	87.7666
1869	88.4644
1869.5	89.3059
1870	90.0016
1870.5	90.7088
1871	91.833
1871.5	93.4312
1872	95.1137
1872.5	96.0429
1873	95.7605
1873.5	94.2228
1874	92.2395
1874.5	90.4934
1875	89.4907
1875.5	89.0909
1876	88.9633
1876.5	88.7161
1877	88.2763
1877.5	87.8266
1878	87.6787
1878.5	87.9806
1879	88.7647
1879.5	89.8741
1880	91.2229
1880.5	92.6374
1881	93.8132
1881.5	94.2721
1882	93.661
1882.5	92.0714
1883	90.0127
1883.5	88.4585
1884	88.0838
1884.5	89.0261
1885	90.6103
1885.5	92.1704
1886	93.1451
1886.5	93.4382
1887	93.0729
1887.5	92.2741
1888	91.2275
1888.5	90.1866
1889	89.4368
1889.5	89.1638
1890	89.2933
1890.5	89.5266
1891	89.6742
1891.5	89.7874
1892	90.0444
1892.5	90.5425
1893	91.0139
1893.5	91.0789
1894	90.398
1894.5	89.2287
1895	88.0582
1895.5	87.5058
1896	87.6584
1896.5	88.3435
1897	89.1629
1897.5	89.9179
1898	90.545
1898.5	91.0503
1899	91.3538
1899.5	91.3345
1900	91.081
1900.5	90.8494
1901	91.001
1901.5	91.5915
1902	92.3005
1902.5	92.5928
1903	92.2572
1903.5	91.5213
1904	91.032
1904.5	91.2348
1905	92.0521
1905.5	92.8589
1906	92.9918
1906.5	92.3304
1907	91.3379
1907.5	90.737
1908	90.7372
1908.5	91.0278
1909	91.1099
1909.5	90.9619
1910	91.0113
1910.5	91.7986
1911	93.226
1911.5	94.5811
1912	94.8793
1912.5	93.7725
1913	91.6233
1913.5	89.6426
1914	88.7162
1914.5	89.0383
1915	89.9682
1915.5	90.8338
1916	91.1375
1916.5	90.8142
1917	89.9507
1917.5	88.9201
1918	88.081
1918.5	87.8669
1919	88.3163
1919.5	89.1979
1920	89.9184
1920.5	90.1372
1921	90.0206
1921.5	90.2594
1922	91.2721
1922.5	92.9695
1923	94.4183
1923.5	94.763
1924	93.5522
1924.5	91.4063
1925	89.2145
1925.5	87.8931
1926	87.6891
1926.5	88.5487
1927	89.9057
1927.5	91.2584
1928	92.007
1928.5	91.8458
1929	90.7047
1929.5	89.1227
1930	87.9759
1930.5	88.1172
1931	89.609
1931.5	91.7735
1932	93.446
1932.5	93.8289
1933	92.8073
1933.5	90.9769
1934	89.2839
1934.5	88.2991
1935	88.0685
1935.5	88.3023
1936	88.7757
1936.5	89.3454
1937	89.9509
1937.5	90.4149
1938	90.5034
1938.5	90.0486
1939	89.1889
1939.5	88.3878
1940	88.1306
1940.5	88.5097
1941	89.1332
1941.5	89.3714
1942	89.0252
1942.5	88.3633
1943	87.9814
1943.5	88.1148
1944	88.5216
1944.5	88.5228
1945	87.7775
1945.5	86.4453
1946	85.3816
1946.5	85.2746
1947	86.5469
1947.5	88.5722
1948	90.6193
1948.5	91.8697
1949	92.1134
1949.5	91.3552
1950	90.0217
1950.5	88.6395
1951	87.8259
1951.5	87.9226
1952	88.9503
1952.5	90.6011
1953	92.2375
1953.5	93.3448
1954	93.5538
1954.5	92.8723
1955	91.3707
1955.5	89.5034
1956	87.8342
1956.5	87.1079
1957	87.5015
1957.5	88.7918
1958	90.1798
1958.5	90.8552
1959	90.3672
1959.5	89.0269
1960	87.5754
1960.5	86.7976
1961	86.9405
1961.5	87.7734
1962	88.7721
1962.5	89.4714
1963	89.7286
1963.5	89.7034
1964	89.6533
1964.5	89.6807
1965	89.6878
1965.5	89.5218
1966	89.0185
1966.5	88.2033
1967	87.1691
1967.5	86.1651
1968	85.5465
1968.5	85.7307
1969	86.9243
1969.5	88.8043
1970	90.6897
1970.5	91.7861
1971	91.8717
1971.5	91.3051
1972	90.9235
1972.5	91.0115
1973	91.0678
1973.5	90.3397
1974	88.4431
1974.5	86.0853
1975	84.376
1975.5	84.4018
1976	85.944
1976.5	88.2038
1977	90.026
1977.5	90.8445
1978	90.5882
1978.5	89.672
1979	88.6134
1979.5	87.8613
1980	87.7035
1980.5	88.1243
1981	88.7929
1981.5	89.1618
1982	88.9513
1982.5	88.3095
1983	87.7309
1983.5	87.5514
1984	87.6277
1984.5	87.5307
1985	86.8813
1985.5	85.8788
1986	84.9985
1986.5	84.8302
1987	85.4187
1987.5	86.5619
1988	87.8194
1988.5	88.8634
1989	89.4751
1989.5	89.6183
1990	89.3727
1990.5	88.8481
1991	88.2428
1991.5	87.6451
1992	87.0844
1992.5	86.5843
1993	86.2406
1993.5	86.1657
1994	86.341
1994.5	86.6773
1995	87.1007
1995.5	87.7271
1996	88.8319
1996.5	90.2971
1997	91.6018
1997.5	91.7722
1998	90.4288
1998.5	87.8412
1999	85.402
1999.5	84.2172
2000	84.8855
2000.5	86.5539
2001	88.2428
2001.5	89.0915
2002	89.1574
2002.5	88.8363
2003	88.6455
2003.5	88.7268
2004	88.9693
2004.5	89.1201
2005	89.0375
2005.5	88.6089
2006	87.8797
2006.5	86.9069
2007	85.8808
2007.5	85.0542
2008	84.6563
2008.5	84.7163
2009	85.062
2009.5	85.5201
2010	86.0154
2010.5	86.5979
2011	87.2928
2011.5	87.9134
2012	88.1541
2012.5	87.7742
2013	86.9432
2013.5	86.0649
2014	85.5923
2014.5	85.5796
2015	85.725
2015.5	85.5892
2016	85.076
2016.5	84.5482
2017	84.4936
2017.5	85.1598
2018	86.2344
2018.5	87.19
2019	87.6171
2019.5	87.662
2020	87.7196
2020.5	88.2302
2021	89.2029
2021.5	90.4057
2022	91.3412
2022.5	91.6293
2023	90.996
2023.5	89.6281
2024	87.9775
2024.5	86.6528
2025	86.0159
2025.5	86.0958
2026	86.6287
2026.5	87.2022
2027	87.5642
2027.5	87.5931
2028	87.296
2028.5	86.6892
2029	85.9653
2029.5	85.356
2030	85.0979
2030.5	85.099
2031	85.1474
2031.5	85.0772
2032	85.0427
2032.5	85.3546
2033	86.1106
2033.5	87.034
2034	87.6951
2034.5	88.016
2035	88.2957
2035.5	88.9813
2036	89.9782
2036.5	90.7563
2037	90.6497
2037.5	89.7177
2038	88.5984
2038.5	88.2117
2039	88.8071
2039.5	89.9679
2040	90.7532
2040.5	90.6697
2041	89.8326
2041.5	88.8874
2042	88.3088
2042.5	88.1309
2043	88.0456
2043.5	87.7324
2044	87.1646
2044.5	86.5169
2045	86.0686
2045.5	86.0054
2046	86.5
2046.5	87.6599
2047	89.3227
2047.5	91.1212
2048	92.3924
2048.5	92.6938
2049	91.7969
2049.5	90.2977
2050	88.8028
2050.5	87.8158
2051	87.2462
2051.5	86.7902
2052	86.1746
2052.5	85.4697
2053	84.93
2053.5	84.6833
2054	84.6358
2054.5	84.6357
2055	84.6911
2055.5	84.9549
2056	85.5017
2056.5	86.1171
2057	86.5192
2057.5	86.6812
2058	86.8885
2058.5	87.4792
2059	88.2718
2059.5	88.7733
2060	88.4079
2060.5	87.3127
2061	85.9536
2061.5	84.9335
2062	84.3695
2062.5	84.0833
2063	83.8312
2063.5	83.6652
2064	83.8756
2064.5	84.5124
2065	85.402
2065.5	86.1622
2066	86.5853
2066.5	86.6361
2067	86.4193
2067.5	85.9795
2068	85.2624
2068.5	84.3526
2069	83.4444
2069.5	82.8504
2070	82.6705
2070.5	82.8398
2071	83.0964
2071.5	83.2345
2072	83.2016
2072.5	83.1518
2073	83.2457
2073.5	83.5801
2074	84.0274
2074.5	84.4417
2075	84.7287
2075.5	84.9427
2076	85.1232
2076.5	85.177
2077	84.9632
2077.5	84.4295
2078	83.8804
2078.5	83.6568
2079	83.9484
2079.5	84.4137
2080	84.6971
2080.5	84.7793
2081	85.1213
2081.5	86.206
2082	87.7605
2082.5	88.9043
2083	88.5357
2083.5	86.8242
2084	84.7301
2084.5	83.7048
2085	84.0812
2085.5	85.2783
2086	86.0213
2086.5	85.7626
2087	84.7384
2087.5	83.8838
2088	83.6925
2088.5	84.1338
2089	84.6032
2089.5	84.7298
2090	84.4912
2090.5	84.2032
2091	84.1779
2091.5	84.5603
2092	85.2577
2092.5	86.0352
2093	86.5569
2093.5	86.6302
2094	86.2655
2094.5	85.8102
2095	85.5645
2095.5	85.5952
2096	85.6361
2096.5	85.3237
2097	84.5475
2097.5	83.5142
2098	82.6207
2098.5	82.1481
2099	82.1644
2099.5	82.506
2100	82.8403
2100.5	82.8842
2101	82.5655
2101.5	82.1338
2102	82.0826
2102.5	82.781
2103	84.2228
2103.5	85.9945
2104	87.4302
2104.5	88.0785
2105	87.82
2105.5	86.9677
2106	85.8833
2106.5	85.0235
2107	84.6675
2107.5	84.9934
2108	85.6712
2108.5	86.2542
2109	86.2617
2109.5	85.7619
2110	85.152
2110.5	84.9909
2111	85.3825
2111.5	86.0667
2112	86.5817
2112.5	86.8135
2113	86.9845
2113.5	87.3604
2114	87.8806
2114.5	88.0825
2115	87.61
2115.5	86.4088
2116	85.0402
2116.5	84.1334
2117	84.2304
2117.5	85.1598
2118	86.5141
2118.5	87.7512
2119	88.6272
2119.5	89.1743
2120	89.6087
2120.5	90.0106
2121	90.1969
2121.5	89.8806
2122	88.9828
2122.5	87.6867
2123	86.4949
2123.5	85.715
2124	85.3522
2124.5	85.0722
2125	84.5829
2125.5	83.8605
2126	83.1708
2126.5	82.9414
2127	83.3742
2127.5	84.3709
2128	85.4446
2128.5	85.9052
2129	85.2198
2129.5	83.4054
2130	81.2454
2130.5	79.8017
2131	79.7961
2131.5	81.0732
2132	82.8843
2132.5	84.2131
2133	84.6391
2133.5	84.3141
2134	83.8288
2134.5	83.5867
2135	83.7256
2135.5	84.1752
2136	84.9023
2136.5	85.7767
2137	86.5523
2137.5	86.7075
2138	85.9733
2138.5	84.3996
2139	82.6734
2139.5	81.6255
2140	81.8204
2140.5	82.9218
2141	84.1283
2141.5	84.6116
2142	84.3543
2142.5	83.8323
2143	83.7
2143.5	84.0389
2144	84.5632
2144.5	84.9466
2145	85.2994
2145.5	85.9868
2146	87.0533
2146.5	88.0769
2147	88.3244
2147.5	87.7122
2148	86.6137
2148.5	85.6935
2149	85.1532
2149.5	84.7956
2150	84.3572
2150.5	83.9704
2151	84.0721
2151.5	84.772
2152	85.7678
2152.5	86.4816
2153	86.6883
2153.5	86.4734
2154	86.0249
2154.5	85.293
2155	84.017
2155.5	82.2638
2156	80.4989
2156.5	79.5382
2157	79.7152
2157.5	80.9346
2158	82.6156
2158.5	84.0648
2159	84.8113
2159.5	84.7562
2160	84.1764
2160.5	83.4937
2161	83.1572
2161.5	83.3332
2162	83.9621
2162.5	84.6785
2163	85.1286
2163.5	84.8964
2164	83.8135
2164.5	81.9005
2165	79.8683
2165.5	78.5901
2166	78.9063
2166.5	80.3566
2167	81.9808
2167.5	82.6708
2168	82.4819
2168.5	82.1753
2169	82.6527
2169.5	83.8466
2170	85.0521
2170.5	85.6221
2171	85.6526
2171.5	85.6296
2172	85.6845
2172.5	85.3916
2173	84.2344
2173.5	82.5286
2174	81.0888
2174.5	80.6201
2175	80.9547
2175.5	81.4575
2176	81.6548
2176.5	81.696
2177	82.0279
2177.5	82.6861
2178	83.3598
2178.5	83.7077
2179	83.8429
2179.5	84.1118
2180	84.6835
2180.5	85.3621
2181	85.745
2181.5	85.6651
2182	85.1367
2182.5	84.3133
2183	83.4649
2183.5	82.9423
2184	83.0727
2184.5	83.7642
2185	84.5086
2185.5	84.6949
2186	84.3308
2186.5	84.2054
2187	85.0716
2187.5	86.8847
2188	88.3714
2188.5	88.32
2189	86.3133
2189.5	83.6555
2190	81.8029
2190.5	81.7171
2191	82.6116
2191.5	83.4641
2192	83.5577
2192.5	83.2593
2193	83.2204
2193.5	83.7542
2194	84.4553
2194.5	84.626
2195	83.9937
2195.5	82.8659
2196	81.9437
2196.5	81.6671
2197	82.0099
2197.5	82.4712
2198	82.6116
2198.5	82.368
2199	82.2053
2199.5	82.5582
2200	83.5776
2200.5	84.6962
2201	85.3088
2201.5	85.0366
2202	84.3117
2202.5	83.7517
2203	83.8145
2203.5	84.2963
2204	84.6565
2204.5	84.4598
2205	83.7895
2205.5	83.1358
2206	82.9758
2206.5	83.417
2207	84.1294
2207.5	84.6097
2208	84.473
2208.5	83.6568
2209	82.3904
2209.5	81.0467
2210	80.1078
2210.5	79.8802
2211	80.4285
2211.5	81.1865
2212	81.4819
2212.5	80.8408
2213	79.6293
2213.5	78.7438
2214	79.0406
2214.5	80.5246
2215	82.5088
2215.5	83.9942
2216	84.6386
2216.5	84.7779
2217	84.9969
2217.5	85.4434
2218	85.7342
2218.5	85.5413
2219	84.8849
2219.5	84.2777
2220	84.0382
2220.5	84.1104
2221	84.0801
2221.5	83.7303
2222	83.193
2222.5	82.7218
2223	82.3448
2223.5	81.8096
2224	80.99
2224.5	80.0934
2225	79.5689
2225.5	79.5786
2226	79.781
2226.5	79.6128
2227	78.8838
2227.5	78.147
2228	78.1276
2228.5	79.2395
2229	80.836
2229.5	82.0394
2230	82.1509
2230.5	81.6331
2231	81.2189
2231.5	81.4594
2232	82.0032
2232.5	82.1228
2233	81.3856
2233.5	80.1572
2234	79.2681
2234.5	79.2641
2235	80.0365
2235.5	80.9991
2236	81.5968
2236.5	81.6326
2237	81.267
2237.5	80.8117
2238	80.5676
2238.5	80.7303
2239	81.271
2239.5	81.895
2240	82.1319
2240.5	81.7554
2241	81.0396
2241.5	80.6451
2242	81.0661
2242.5	82.0798
2243	82.9531
2243.5	82.9114
2244	82.0085
2244.5	80.8254
2245	80.175
2245.5	80.271
2246	80.9393
2246.5	81.7962
2247	82.6385
2247.5	83.3465
2248	83.635
2248.5	83.1914
2249	81.8967
2249.5	80.5645
2250	80.1742
2250.5	81.3968
2251	83.3764
2251.5	84.6525
2252	84.0373
2252.5	81.9298
2253	79.6534
2253.5	78.5697
2254	78.8077
2254.5	79.5583
2255	79.8766
2255.5	79.719
2256	79.9299
2256.5	81.1826
2257	83.5006
2257.5	85.817
2258	87.0413
2258.5	86.2829
2259	84.0411
2259.5	81.2583
2260	79.2821
2260.5	78.7262
2261	79.5206
2261.5	80.6935
2262	81.3081
2262.5	80.913
2263	80.0311
2263.5	79.3733
2264	79.5334
2264.5	80.33
2265	81.4383
2265.5	82.4967
2266	83.3027
2266.5	83.6122
2267	83.2155
2267.5	82.2021
2268	80.9843
2268.5	80.2271
2269	80.2591
2269.5	81.0189
2270	81.9417
2270.5	82.5546
2271	82.487
2271.5	81.6888
2272	80.2369
2272.5	78.7076
2273	77.7948
2273.5	78.2415
2274	79.7116
2274.5	81.3823
2275	82.116
2275.5	81.735
2276	80.8033
2276.5	80.4137
2277	80.9803
2277.5	82.2348
2278	83.2792
2278.5	83.6273
2279	83.1887
2279.5	82.4239
2280	81.6893
2280.5	81.2631
2281	81.1845
2281.5	81.3858
2282	81.6146
2282.5	81.694
2283	81.6517
2283.5	81.8011
2284	82.3701
2284.5	83.255
2285	83.9708
2285.5	84.1594
2286	83.9797
2286.5	83.9383
2287	84.3657
2287.5	84.8398
2288	84.6605
2288.5	83.2042
2289	81.0533
2289.5	79.1358
2290	78.4105
2290.5	78.8889
2291	80.1585
2291.5	81.4219
2292	82.1711
2292.5	82.0232
2293	81.0612
2293.5	79.5575
2294	78.1315
2294.5	77.4294
2295	77.8564
2295.5	79.2632
2296	81.0269
2296.5	82.5197
2297	83.3852
2297.5	83.6436
2298	83.4106
2298.5	82.9226
2299	82.2486
2299.5	81.4103
2300	80.4853
2300.5	79.6462
2301	79.2209
2301.5	79.4402
2302	80.4146
2302.5	81.706
2303	82.7767
2303.5	83.0742
2304	82.6766
2304.5	81.9074
2305	81.2388
2305.5	80.8255
2306	80.5837
2306.5	80.3535
2307	80.1627
2307.5	80.1968
2308	80.4802
2308.5	80.8342
2309	80.8959
2309.5	80.5269
2310	79.7654
2310.5	78.8317
2311	77.9277
2311.5	77.3123
2312	77.3418
2312.5	78.3191
2313	80.3588
2313.5	82.676
2314	84.3297
2314.5	84.5216
2315	83.5692
2315.5	82.2573
2316	81.4363
2316.5	81.1553
2317	80.9507
2317.5	80.4305
2318	79.7654
2318.5	79.5019
2319	79.7707
2319.5	80.2985
2320	80.6059
2320.5	80.6198
2321	80.5973
2321.5	80.8277
2322	81.2719
2322.5	81.674
2323	81.9059
2323.5	82.0949
2324	82.5151
2324.5	83.1933
2325	83.9003
2325.5	84.2424
2326	84.1402
2326.5	84.002
2327	84.7148
2327.5	86.8542
2328	90.2553
2328.5	93.3398
2329	94.3269
2329.5	92.1213
2330	87.7635
2330.5	83.2312
2331	80.602
2331.5	80.2699
2332	81.476
2332.5	82.5505
2333	82.6823
2333.5	81.8302
2334	80.667
2334.5	79.801
2335	79.6748
2335.5	80.3133
2336	81.4825
2336.5	82.4512
2337	82.6033
2337.5	81.5495
2338	79.8763
2338.5	78.3469
2339	77.7343
2339.5	78.0557
2340	78.9031
2340.5	79.4603
2341	79.2517
2341.5	78.1735
2342	76.9115
2342.5	76.1719
2343	76.4177
2343.5	77.2833
2344	78.2768
2344.5	79.0991
2345	79.9464
2345.5	81.1391
2346	82.54
2346.5	83.6442
2347	83.7879
2347.5	83.0759
2348	81.9331
2348.5	81
2349	80.5566
2349.5	80.6287
2350	80.9473
2350.5	81.1705
2351	80.8924
2351.5	80.0536
2352	78.9883
2352.5	78.4911
2353	79.0198
2353.5	80.4945
2354	82.0362
2354.5	82.7585
2355	82.086
2355.5	80.3382
2356	78.188
2356.5	76.4597
2357	75.5444
2357.5	75.2695
2358	74.8453
2358.5	73.589
2359	71.4276
2359.5	69.3963
2360	68.6312
2360.5	69.8763
2361	72.3949
2361.5	75.3213
2362	78.3387
2362.5	81.9293
2363	86.4997
2363.5	91.3278
2364	94.8116
2364.5	95.4897
2365	93.6244
2365.5	90.5415
2366	87.672
2366.5	85.5822
2367	84.0811
2367.5	82.7674
2368	81.4793
2368.5	80.2464
2369	79.0109
2369.5	77.6563
2370	76.2542
2370.5	75.3216
2371	75.39
2371.5	76.7885
2372	78.7614
2372.5	80.3341
2373	80.5397
2373.5	79.5292
2374	78.1061
2374.5	77.4498
2375	77.8883
2375.5	78.9418
2376	79.53
2376.5	79.1777
2377	78.1722
2377.5	77.3464
2378	77.1113
2378.5	77.3508
2379	77.808
2379.5	78.5211
2380	79.5946
2380.5	80.8241
2381	81.5334
2381.5	81.3219
2382	80.3672
2382.5	79.5089
2383	79.3085
2383.5	79.6167
2384	79.619
2384.5	79.0118
2385	78.2241
2385.5	78.1303
2386	79.0276
2386.5	80.4622
2387	81.5457
2387.5	81.8771
2388	81.731
2388.5	81.6082
2389	81.6607
2389.5	81.5677
2390	81.076
2390.5	80.2067
2391	79.3473
2391.5	78.7778
2392	78.6547
2392.5	78.8733
2393	79.2348
2393.5	79.2863
2394	78.6759
2394.5	77.3875
2395	76.3341
2395.5	76.5582
2396	78.6456
2396.5	81.4075
2397	83.3884
2397.5	83.5552
2398	82.5328
2398.5	81.4416
2399	80.9732
2399.5	80.6869
2400	79.6745
2400.5	77.908
2401	76.1896
2401.5	75.6675
2402	76.2815
2402.5	77.3584
2403	78.0138
2403.5	78.0877
2404	77.8457
2404.5	77.6605
2405	77.5985
2405.5	77.6287
2406	77.7956
2406.5	78.2232
2407	78.9449
2407.5	79.7995
2408	80.6874
2408.5	81.5876
2409	82.4327
2409.5	82.9077
2410	82.6611
2410.5	81.5827
2411	79.9846
2411.5	78.6072
2412	78.0423
2412.5	78.4705
2413	79.382
2413.5	80.0574
2414	79.8081
2414.5	78.4784
2415	76.4158
2415.5	74.6859
2416	74.1374
2416.5	75.1083
2417	76.7936
2417.5	78.2059
2418	78.7078
2418.5	78.617
2419	78.5084
2419.5	78.6151
2420	78.6775
2420.5	78.3678
2421	77.9656
2421.5	78.0364
2422	78.9398
2422.5	80.2156
2423	81.0696
2423.5	81.0617
2424	80.465
2424.5	79.7364
2425	79.0962
2425.5	78.4746
2426	77.9051
2426.5	77.6911
2427	78.164
2427.5	79.2232
2428	80.3518
2428.5	81.0053
2429	81.0858
2429.5	80.7451
2430	80.1218
2430.5	79.3945
2431	78.7831
2431.5	78.6636
2432	79.1396
2432.5	80.0304
2433	80.8014
2433.5	81.1534
2434	81.1449
2434.5	81.1443
2435	81.3181
2435.5	81.5603
2436	81.5971
2436.5	81.2323
2437	80.5015
2437.5	79.6901
2438	79.2001
2438.5	79.2996
2439	79.8524
2439.5	80.3865
2440	80.4458
2440.5	79.9973
2441	79.5509
2441.5	79.6643
2442	80.5411
2442.5	81.7327
2443	82.649
2443.5	82.843
2444	82.417
2444.5	81.585
2445	80.6512
2445.5	80.015
2446	80.0442
2446.5	80.7637
2447	81.5275
2447.5	81.3495
2448	79.7416
2448.5	77.4009
2449	75.8476
2449.5	76.0314
2450	77.7941
2450.5	79.845
2451	80.9082
2451.5	80.5303
2452	79.4029
2452.5	78.5254
2453	78.6478
2453.5	79.593
2454	80.7771
2454.5	81.248
2455	80.443
2455.5	78.294
2456	75.6456
2456.5	73.6897
2457	73.2386
2457.5	73.8929
2458	74.675
2458.5	75.0235
2459	75.3873
2459.5	76.3395
2460	77.8042
2460.5	78.757
2461	78.3136
2461.5	76.7451
2462	75.3872
2462.5	75.469
2463	76.8095
2463.5	78.5256
2464	79.7793
2464.5	80.6097
2465	81.3275
2465.5	81.9726
2466	82.1508
2466.5	81.4433
2467	80.1594
2467.5	79.0181
2468	78.7404
2468.5	79.3349
2469	80.3988
2469.5	81.2984
2470	81.6753
2470.5	81.4616
2471	80.8242
2471.5	79.9552
2472	78.8931
2472.5	77.7753
2473	76.8807
2473.5	76.626
2474	76.9045
2474.5	77.239
2475	76.9244
2475.5	76.0073
2476	75.1906
2476.5	75.3039
2477	76.3133
2477.5	77.582
2478	78.4019
2478.5	78.7743
2479	79.1632
2479.5	79.7465
2480	80.1125
2480.5	79.6873
2481	78.619
2481.5	77.5034
2482	76.9616
2482.5	76.9868
2483	77.1981
2483.5	77.2345
2484	77.156
2484.5	77.3312
2485	77.9459
2485.5	78.9272
2486	79.817
2486.5	80.1682
2487	79.7446
2487.5	79.0587
2488	78.8435
2488.5	79.5657
2489	80.4451
2489.5	80.4527
2490	79.034
2490.5	77.1074
2491	76.0732
2491.5	76.6749
2492	78.2366
2492.5	79.4303
2493	79.6726
2493.5	79.3358
2494	79.14
2494.5	79.2514
2495	79.3471
2495.5	78.9939
2496	78.1895
2496.5	77.2205
2497	76.6285
2497.5	76.8521
2498	78.3018
2498.5	80.3962
2499	82.1158
2499.5	82.1208
2500	80.3479
2500.5	77.6387
2501	75.4964
2501.5	74.4093
2502	74.1697
2502.5	74.1782
2503	74.3392
2503.5	74.8529
2504	75.583
2504.5	76.1344
2505	76.3146
2505.5	76.5499
2506	77.4595
2506.5	79.1183
2507	80.9866
2507.5	82.256
2508	82.5953
2508.5	82.0291
2509	80.7392
2509.5	79.084
2510	77.5728
2510.5	77.0064
2511	77.6899
2511.5	79.3064
2512	80.5508
2512.5	80.5239
2513	79.1055
2513.5	77.4463
2514	76.5386
2514.5	76.8229
2515	77.6879
2515.5	78.2636
2516	77.87
2516.5	76.6461
2517	75.1407
2517.5	74.1271
2518	74.0514
2518.5	75.0235
2519	76.4502
2519.5	77.6626
2520	78.1442
2520.5	78.1209
2521	78.15
2521.5	78.6507
2522	79.4109
2522.5	79.6767
2523	79.0508
2523.5	77.8017
2524	76.8924
2524.5	76.7792
2525	77.2259
2525.5	77.4577
2526	77.188
2526.5	76.7193
2527	76.5985
2527.5	76.8543
2528	77.0917
2528.5	77.1577
2529	77.2888
2529.5	77.7263
2530	78.1924
2530.5	78.1771
2531	77.7337
2531.5	77.5305
2532	78.1852
2532.5	79.1734
2533	79.6241
2533.5	79.0292
2534	78.1087
2534.5	77.7667
2535	78.061
2535.5	78.2589
2536	77.888
2536.5	77.5258
2537	77.8847
2537.5	79.0343
2538	79.868
2538.5	79.5576
2539	78.381
2539.5	77.3308
2540	77.0037
2540.5	77.0963
2541	77.1302
2541.5	77.0626
2542	77.2776
2542.5	77.8001
2543	78.0779
2543.5	77.6338
2544	76.4574
2544.5	75.1587
2545	74.3073
2545.5	74.2408
2546	74.8624
2546.5	76.0219
2547	77.4483
2547.5	78.6125
2548	79.0892
2548.5	78.7795
2549	78.1725
2549.5	77.7505
2550	77.6525
2550.5	77.6797
2551	77.6047
2551.5	77.4024
2552	77.1474
2552.5	76.8895
2553	76.6934
2553.5	76.7883
2554	77.5545
2554.5	79.0155
2555	80.74
2555.5	81.7054
2556	81.3153
2556.5	79.5989
2557	77.6558
2557.5	76.3516
2558	76.0927
2558.5	76.4208
2559	76.8746
2559.5	77.2992
2560	77.799
2560.5	78.233
2561	78.0441
2561.5	76.812
2562	74.6583
2562.5	72.7295
2563	72.0259
2563.5	72.7884
2564	74.2052
2564.5	75.3863
2565	75.9454
2565.5	76.1598
2566	76.4004
2566.5	76.6075
2567	76.544
2567.5	76.2581
2568	76.2474
2568.5	76.9168
2569	77.955
2569.5	78.5329
2570	78.0011
2570.5	76.7024
2571	75.3447
2571.5	74.6193
2572	74.5413
2572.5	74.9554
2573	75.6488
2573.5	76.387
2574	76.7935
2574.5	76.5412
2575	75.799
2575.5	75.2227
2576	75.3316
2576.5	75.9281
2577	76.2299
2577.5	75.7606
2578	74.6608
2578.5	73.7692
2579	73.7892
2579.5	75.0156
2580	76.999
2580.5	79.0814
2581	80.3887
2581.5	80.5692
2582	79.7486
2582.5	78.7434
2583	78.2012
2583.5	78.1627
2584	77.9778
2584.5	77.1473
2585	75.6844
2585.5	74.42
2586	73.9393
2586.5	74.3372
2587	74.9863
2587.5	75.4482
2588	75.7545
2588.5	76.2981
2589	77.1971
2589.5	77.878
2590	77.7507
2590.5	76.689
2591	75.7738
2591.5	76.1491
2592	78.1059
2592.5	80.3499
2593	81.3489
2593.5	80.2679
2594	77.7937
2594.5	75.4044
2595	74.5472
2595.5	75.5277
2596	77.813
2596.5	79.9166
2597	80.7176
2597.5	79.8465
2598	78.3581
2598.5	77.4776
2599	77.6989
2599.5	78.5088
2600	79.0704
2600.5	79.0775
2601	78.7895
2601.5	78.4763
2602	78.0526
2602.5	77.4426
2603	77.011
2603.5	77.226
2604	78.1516
2604.5	79.0111
2605	79.2452
2605.5	78.8313
2606	78.4646
2606.5	78.5151
2607	78.6561
2607.5	78.3342
2608	77.429
2608.5	76.5205
2609	76.1662
2609.5	76.616
2610	77.4329
2610.5	78.2515
2611	78.8959
2611.5	79.3296
2612	79.397
2612.5	78.9265
2613	78.162
2613.5	77.6962
2614	78.0262
2614.5	79.0071
2615	79.8747
2615.5	79.8537
2616	78.9574
2616.5	78.0032
2617	77.627
2617.5	77.7316
2618	77.478
2618.5	76.4539
2619	75.2109
2619.5	74.8082
2620	75.4415
2620.5	76.1637
2621	75.7531
2621.5	74.0281
2622	72.5073
2622.5	72.5458
2623	74.4717
2623.5	76.9159
2624	78.5375
2624.5	78.6292
2625	78.0035
2625.5	77.3122
2626	76.9541
2626.5	76.9796
2627	77.4672
2627.5	78.2149
2628	78.6387
2628.5	78.0292
2629	76.5087
2629.5	74.9301
2630	74.6686
2630.5	75.7996
2631	77.5694
2631.5	78.7373
2632	78.8981
2632.5	78.418
2633	78.2882
2633.5	78.882
2634	79.9143
2634.5	80.5958
2635	80.5212
2635.5	79.8048
2636	79.0334
2636.5	78.3983
2637	77.6059
2637.5	76.4468
2638	75.2173
2638.5	74.7688
2639	75.3689
2639.5	76.5002
2640	77.0654
2640.5	76.5669
2641	75.421
2641.5	74.645
2642	74.8422
2642.5	75.7854
2643	76.7946
2643.5	77.1214
2644	76.538
2644.5	75.4974
2645	74.9965
2645.5	75.6717
2646	77.4613
2646.5	79.2656
2647	80.0337
2647.5	79.5481
2648	78.6785
2648.5	78.1638
2649	78.2129
2649.5	78.2995
2650	78.0706
2650.5	77.4796
2651	76.6885
2651.5	75.8231
2652	75.2489
2652.5	75.3756
2653	76.2258
2653.5	76.7446
2654	75.8174
2654.5	72.9993
2655	70.1661
2655.5	69.4186
2656	71.6851
2656.5	75.4233
2657	78.526
2657.5	79.579
2658	79.117
2658.5	78.0994
2659	77.1276
2659.5	76.2027
2660	75.4323
2660.5	75.2209
2661	75.8494
2661.5	77.0115
2662	78.1023
2662.5	78.6669
2663	78.6791
2663.5	78.2232
2664	77.191
2664.5	75.7868
2665	74.5036
2665.5	74.3103
2666	75.4467
2666.5	77.6195
2667	79.7853
2667.5	81.1232
2668	81.1234
2668.5	80.3416
2669	79.4194
2669.5	78.8211
2670	78.3946
2670.5	77.7316
2671	76.64
2671.5	75.5717
2672	75.24
2672.5	75.9243
2673	77.1993
2673.5	78.1188
2674	78.1667
2674.5	77.4884
2675	76.8067
2675.5	76.719
2676	77.2911
2676.5	77.8041
2677	77.692
2677.5	76.8478
2678	75.9779
2678.5	75.6663
2679	75.8091
2679.5	75.6418
2680	74.7945
2680.5	73.8507
2681	73.8042
2681.5	74.9556
2682	76.2906
2682.5	76.8506
2683	76.4399
2683.5	76.1989
2684	76.8794
2684.5	78.1897
2685	79.0819
2685.5	78.9766
2686	78.3035
2686.5	77.8195
2687	77.6864
2687.5	77.4099
2688	76.6968
2688.5	75.7801
2689	75.2296
2689.5	75.2099
2690	75.4598
2690.5	75.6531
2691	75.6939
2691.5	75.6505
2692	75.5148
2692.5	75.2401
2693	74.9787
2693.5	74.9968
2694	75.4767
2694.5	76.1904
2695	76.8296
2695.5	77.1314
2696	77.1302
2696.5	77.0451
2697	77.1823
2697.5	77.6896
2698	78.494
2698.5	79.0626
2699	78.8984
2699.5	77.8214
2700	76.3673
2700.5	75.2473
2701	74.966
2701.5	75.3081
2702	75.837
2702.5	76.1503
2703	76.1902
2703.5	76.1657
2704	76.3656
2704.5	76.9645
2705	77.9133
2705.5	78.8531
2706	79.2873
2706.5	79.0237
2707	78.3315
2707.5	77.7718
2708	77.6853
2708.5	77.8152
2709	77.5651
2709.5	76.8605
2710	76.2054
2710.5	76.3412
2711	76.9684
2711.5	76.9894
2712	75.6128
2712.5	73.3127
2713	71.8411
2713.5	72.0758
2714	73.5505
2714.5	74.7602
2715	74.9798
2715.5	74.672
2716	74.7897
2716.5	75.4178
2717	76.1205
2717.5	76.6573
2718	77.1468
2718.5	77.4529
2719	77.0659
2719.5	75.7194
2720	74.0706
2720.5	73.2103
2721	73.7023
2721.5	75.0315
2722	76.3504
2722.5	77.2195
2723	77.8621
2723.5	78.3592
2724	78.4034
2724.5	77.7747
2725	76.7731
2725.5	76.355
2726	76.8763
2726.5	77.8014
2727	78.4217
2727.5	78.4146
2728	77.9839
2728.5	77.5337
2729	77.2022
2729.5	76.9625
2730	76.8204
2730.5	76.8127
2731	76.8217
2731.5	76.6799
2732	76.4131
2732.5	76.3333
2733	76.6042
2733.5	76.8431
2734	76.4309
2734.5	75.1646
2735	73.7959
2735.5	73.3589
2736	74.1034
2736.5	75.3635
2737	76.2021
2737.5	76.5541
2738	77.0866
2738.5	78.1791
2739	79.3405
2739.5	79.6125
2740	79.0187
2740.5	78.5524
2741	79.1539
2741.5	80.5409
2742	81.0836
2742.5	79.7626
2743	77.1153
2743.5	74.8738
2744	74.5706
2744.5	75.8448
2745	77.4785
2745.5	78.5378
2746	78.99
2746.5	79.3952
2747	79.9321
2747.5	80.3403
2748	80.3406
2748.5	79.9736
2749	79.4947
2749.5	78.9622
2750	78.2948
2750.5	77.5003
2751	76.7855
2751.5	76.2749
2752	75.864
2752.5	75.3875
2753	74.9155
2753.5	74.7826
2754	75.1725
2754.5	75.8949
2755	76.4902
2755.5	76.5867
2756	76.2757
2756.5	75.9075
2757	75.826
2757.5	76.1597
2758	76.6583
2758.5	76.8533
2759	76.4169
2759.5	75.4697
2760	74.7313
2760.5	74.9892
2761	76.3248
2761.5	78.0391
2762	79.1322
2762.5	79.074
2763	78.3268
2763.5	77.6069
2764	77.302
2764.5	77.3097
2765	77.3209
2765.5	77.2624
2766	77.3169
2766.5	77.7422
2767	78.748
2767.5	80.2865
2768	81.9338
2768.5	82.9809
2769	82.7613
2769.5	81.1497
2770	78.9602
2770.5	77.1291
2771	76.0561
2771.5	75.5098
2772	75.1279
2772.5	75.0455
2773	75.6995
2773.5	77.1821
2774	78.9365
2774.5	80.0772
2775	80.332
2775.5	80.0767
2776	79.8496
2776.5	79.8979
2777	80.1264
2777.5	80.4758
2778	81.0605
2778.5	81.911
2779	82.7102
2779.5	82.8545
2780	81.9939
2780.5	80.2085
2781	77.9465
2781.5	75.8469
2782	74.4837
2782.5	74.0665
2783	74.4024
2783.5	74.9817
2784	75.3044
2784.5	75.3798
2785	75.6397
2785.5	76.3787
2786	77.3711
2786.5	77.9239
2787	77.604
2787.5	76.6795
2788	75.7772
2788.5	75.3553
2789	75.371
2789.5	75.3727
2790	75.0327
2790.5	74.3245
2791	73.4862
2791.5	72.918
2792	72.9152
2792.5	73.4631
2793	74.2816
2793.5	75.0962
2794	76.0142
2794.5	77.4817
2795	79.6013
2795.5	81.7206
2796	82.7321
2796.5	81.924
2797	80.0211
2797.5	78.4294
2798	78.0362
2798.5	78.6352
2799	79.231
2799.5	79.0984
2800	78.397
2800.5	77.6704
2801	77.2615
2801.5	77.0762
2802	76.7871
2802.5	76.2271
2803	75.473
2803.5	74.8093
2804	74.6801
2804.5	75.4302
2805	76.8505
2805.5	78.2183
2806	78.7362
2806.5	78.2084
2807	77.4168
2807.5	77.342
2808	78.0802
2808.5	78.7598
2809	78.308
2809.5	76.5281
2810	74.5418
2810.5	73.4351
2811	73.4142
2811.5	73.7937
2812	73.8244
2812.5	73.6857
2813	74.1246
2813.5	75.4828
2814	77.199
2814.5	78.1613
2815	77.9047
2815.5	77.1108
2816	76.7978
2816.5	77.4083
2817	78.4232
2817.5	78.8228
2818	78.1992
2818.5	76.8812
2819	75.5401
2819.5	74.799
2820	75.1366
2820.5	76.601
2821	78.6798
2821.5	80.1936
2822	79.8591
2822.5	77.3223
2823	74.1299
2823.5	72.279
2824	72.6043
2824.5	74.2343
2825	75.5216
2825.5	75.8264
2826	76.0309
2826.5	76.9391
2827	78.1493
2827.5	78.3921
2828	77.1165
2828.5	75.6781
2829	75.6877
2829.5	77.2439
2830	78.6753
2830.5	78.1074
2831	75.8987
2831.5	74.3879
2832	75.4028
2832.5	78.5994
2833	81.7401
2833.5	82.7047
2834	81.635
2834.5	79.9878
2835	78.8381
2835.5	78.0854
2836	77.0476
2836.5	75.7349
2837	74.9473
2837.5	75.2768
2838	76.5136
2838.5	77.9195
2839	78.9509
2839.5	79.5943
2840	79.8901
2840.5	79.735
2841	79.1752
2841.5	78.7024
2842	78.8786
2842.5	79.5194
2843	79.809
2843.5	79.1332
2844	77.8174
2844.5	76.9832
2845	77.2764
2845.5	78.2099
2846	78.843
2846.5	78.7644
2847	78.4825
2847.5	78.8434
2848	79.934
2848.5	81.0884
2849	81.5159
2849.5	80.8908
2850	79.4974
2850.5	78.0411
2851	77.1686
2851.5	77.2051
2852	77.9467
2852.5	78.6423
2853	78.3707
2853.5	77.0634
2854	75.6384
2854.5	75.2178
2855	76.1194
2855.5	77.5481
2856	78.3186
2856.5	78.2089
2857	77.8614
2857.5	77.8667
2858	78.1594
2858.5	78.3225
2859	78.4257
2859.5	79.0351
2860	80.2428
2860.5	81.221
2861	80.9026
2861.5	79.1969
2862	77.4852
2862.5	77.0854
2863	77.9354
2863.5	78.8534
2864	78.8687
2864.5	78.2782
2865	78.2083
2865.5	78.9688
2866	79.7216
2866.5	79.4755
2867	78.2399
2867.5	77.1747
2868	77.3167
2868.5	78.438
2869	79.5188
2869.5	79.8173
2870	79.4988
2870.5	79.3104
2871	79.5878
2871.5	79.863
2872	79.4049
2872.5	77.8811
2873	75.6697
2873.5	73.7166
2874	72.9026
2874.5	73.4086
2875	74.6699
2875.5	75.7964
2876	76.2807
2876.5	76.4617
2877	77.1865
2877.5	78.7743
2878	80.7012
2878.5	82.1118
2879	82.5669
2879.5	82.2554
2880	81.5313
2880.5	80.4071
2881	78.8404
2881.5	77.227
2882	76.3541
2882.5	76.7773
2883	78.1318
2883.5	79.3877
2884	79.8068
2884.5	79.3937
2885	78.7728
2885.5	78.661
2886	79.3076
2886.5	80.1689
2887	80.3806
2887.5	79.4033
2888	77.5895
2888.5	76.1149
2889	76.1449
2889.5	77.4426
2890	78.666
2890.5	78.6639
2891	77.6031
2891.5	76.8497
2892	77.6258
2892.5	79.4967
2893	80.8785
2893.5	80.7041
2894	79.322
2894.5	78.0657
2895	78.0072
2895.5	79.0097
2896	80.0121
2896.5	80.1398
2897	79.1654
2897.5	77.5017
2898	75.9626
2898.5	75.4814
2899	76.4125
2899.5	78.2192
2900	79.8304
2900.5	80.4638
2901	80.1937
2901.5	79.6348
2902	79.0449
2902.5	78.0898
2903	76.6693
2903.5	75.407
2904	75.0841
2904.5	75.677
2905	76.2728
2905.5	76.353
2906	76.5781
2906.5	77.788
2907	79.6962
2907.5	80.9264
2908	80.5184
2908.5	79.2888
2909	78.979
2909.5	80.1251
2910	81.6392
2910.5	82.0337
2911	80.8283
2911.5	78.6712
2912	76.3471
2912.5	74.102
2913	72.1777
2913.5	71.2591
2914	72.047
2914.5	74.4207
2915	77.1527
2915.5	78.7508
2916	78.6818
2916.5	77.5427
2917	76.5225
2917.5	76.5773
2918	77.8003
2918.5	79.3039
2919	79.9144
2919.5	79.2342
2920	77.882
2920.5	76.9153
2921	76.9222
2921.5	77.6269
2922	78.3076
2922.5	78.5595
2923	78.3859
2923.5	77.8644
2924	77.1086
2924.5	76.5178
2925	76.7564
2925.5	78.0557
2926	79.4598
2926.5	79.619
2927	78.1262
2927.5	76.1487
2928	75.476
2928.5	76.7699
2929	78.7716
2929.5	79.7546
2930	79.4331
2930.5	78.8933
2931	79.1602
2931.5	80.0101
2932	80.2943
2932.5	79.3584
2933	77.9492
2933.5	77.1774
2934	77.4594
2934.5	78.3737
2935	79.2879
2935.5	79.8549
2936	79.8777
2936.5	79.1215
2937	77.5332
2937.5	75.6055
2938	74.2017
2938.5	73.8834
2939	74.4054
2939.5	74.9103
2940	74.7873
2940.5	74.2729
2941	74.1193
2941.5	74.8568
2942	76.2802
2942.5	77.6224
2943	78.2653
2943.5	78.3387
2944	78.4123
2944.5	78.6837
2945	78.8722
2945.5	78.8263
2946	79.0055
2946.5	80.0202
2947	81.5649
2947.5	82.2679
2948	81.2019
2948.5	78.9555
2949	77.0853
2949.5	76.5296
2950	76.7643
2950.5	76.609
2951	75.7621
2951.5	75.0645
2952	75.2819
2952.5	76.3078
2953	77.3835
2953.5	77.8046
2954	77.3353
2954.5	76.2391
2955	75.2748
2955.5	75.3531
2956	76.8917
2956.5	79.2541
2957	81.0382
2957.5	81.1875
2958	79.8966
2958.5	78.3876
2959	77.6381
2959.5	77.6499
2960	77.8893
2960.5	77.951
2961	77.7938
2961.5	77.5489
2962	77.3314
2962.5	77.2386
2963	77.3121
2963.5	77.4336
2964	77.3853
2964.5	77.1514
2965	77.1319
2965.5	77.9052
2966	79.6267
2966.5	81.5248
2967	82.3388
2967.5	81.3088
2968	78.8069
2968.5	76.1426
2969	74.6538
2969.5	74.8213
2970	76.1132
2970.5	77.5715
2971	78.6258
2971.5	79.2054
2972	79.3829
2972.5	79.1184
2973	78.328
2973.5	77.1263
2974	75.9411
2974.5	75.3198
2975	75.4473
2975.5	75.9751
2976	76.3017
2976.5	76.1472
2977	75.8716
2977.5	76.1208
2978	77.0852
2978.5	78.1872
2979	78.752
2979.5	78.7958
2980	78.7868
2980.5	78.8376
2981	78.4558
2981.5	77.308
2982	76.0611
2982.5	76.0683
2983	77.7644
2983.5	79.9051
2984	80.7888
2984.5	79.8725
2985	78.1471
2985.5	76.9872
2986	76.8542
2986.5	77.2119
2987	77.4817
2987.5	77.6942
2988	78.0269
2988.5	78.3003
2989	78.2551
2989.5	78.1294
2990	78.5657
2990.5	79.7562
2991	80.8729
2991.5	80.7591
2992	79.3641
2992.5	77.8319
2993	77.35
2993.5	78.045
2994	79.0707
2994.5	79.5974
2995	79.4914
2995.5	79.0471
2996	78.364
2996.5	77.2876
2997	75.8524
2997.5	74.4805
2998	73.7412
2998.5	73.9714
2999	75.0425
2999.5	76.369
3000	77.2135
3000.5	77.336
3001	77.2766
3001.5	77.6799
3002	78.3985
3002.5	78.5238
3003	77.5293
3003.5	76.1934
3004	75.9556
3004.5	77.2558
3005	78.8518
3005.5	79.4578
3006	79.2709
3006.5	79.4533
3007	80.5055
3007.5	81.634
3008	81.7824
3008.5	80.8395
3009	79.5073
3009.5	78.2756
3010	77.1224
3010.5	76.2272
3011	76.1403
3011.5	77.0098
3012	78.0398
3012.5	78.147
3013	77.1494
3013.5	76.011
3014	75.8129
3014.5	76.5879
3015	77.6021
3015.5	78.4063
3016	79.2095
3016.5	80.3222
3017	81.4621
3017.5	81.8054
3018	80.7913
3018.5	78.8552
3019	77.2945
3019.5	77.1029
3020	78.0578
3020.5	79.0551
3021	79.2286
3021.5	78.7053
3022	78.2352
3022.5	78.2178
3023	78.321
3023.5	78.1131
3024	77.8414
3024.5	78.2022
3025	79.3629
3025.5	80.6588
3026	81.2656
3026.5	81.0192
3027	80.4549
3027.5	80.1103
3028	79.9272
3028.5	79.3746
3029	78.0901
3029.5	76.4164
3030	75.1557
3030.5	74.959
3031	75.8549
3031.5	77.2827
3032	78.5792
3032.5	79.4546
3033	80.0072
3033.5	80.3396
3034	80.3142
3034.5	79.8504
3035	79.3217
3035.5	79.2975
3036	79.8547
3036.5	80.3038
3037	79.827
3037.5	78.4286
3038	77.1101
3038.5	76.9356
3039	77.988
3039.5	79.3154
3040	79.9454
3040.5	79.7437
3041	79.1371
3041.5	78.4453
3042	77.6948
3042.5	77.0169
3043	76.8983
3043.5	77.7533
3044	79.2464
3044.5	80.2915
3045	79.9639
3045.5	78.6147
3046	77.5106
3046.5	77.5656
3047	78.4626
3047.5	79.1276
3048	79.0257
3048.5	78.7589
3049	79.2151
3049.5	80.2767
3050	80.7718
3050.5	79.895
3051	78.4552
3051.5	77.9178
3052	78.5832
3052.5	79.2811
3053	78.921
3053.5	77.8942
3054	77.5065
3054.5	78.2049
3055	78.9499
3055.5	78.554
3056	77.1842
3056.5	76.0514
3057	75.7475
3057.5	75.81
3058	75.9057
3058.5	76.5803
3059	78.4002
3059.5	80.7141
3060	81.9314
3060.5	81.189
3061	79.3459
3061.5	78.0248
3062	77.8897
3062.5	78.2449
3063	78.3174
3063.5	78.3105
3064	78.8314
3064.5	79.7948
3065	80.2704
3065.5	79.4208
3066	77.3853
3066.5	75.1964
3067	73.9709
3067.5	74.2022
3068	75.5857
3068.5	77.2459
3069	78.2215
3069.5	78.1396
3070	77.5357
3070.5	77.5016
3071	78.7674
3071.5	81.0054
3072	83.0408
3072.5	83.7947
3073	83.0988
3073.5	81.712
3074	80.6337
3074.5	80.3324
3075	80.4727
3075.5	80.3575
3076	79.7783
3076.5	79.3572
3077	80.0367
3077.5	82.1001
3078	84.7086
3078.5	86.4925
3079	86.6143
3079.5	85.25
3080	83.1859
3080.5	81.2063
3081	79.8812
3081.5	79.5593
3082	80.0936
3082.5	80.7242
3083	80.712
3083.5	80.1516
3084	79.9012
3084.5	80.4902
3085	81.3286
3085.5	81.3435
3086	80.3408
3086.5	79.331
3087	79.3133
3087.5	80.0366
3088	80.3482
3088.5	79.7053
3089	78.947
3089.5	79.2347
3090	80.6883
3090.5	82.3457
3091	83.2179
3091.5	83.1298
3092	82.6017
3092.5	82.2127
3093	82.1966
3093.5	82.4568
3094	82.7393
3094.5	82.8003
3095	82.5776
3095.5	82.2913
3096	82.338
3096.5	82.9778
3097	84.1223
3097.5	85.3687
3098	86.2075
3098.5	86.2933
3099	85.6231
3099.5	84.4666
3100	83.0929
3100.5	81.6223
3101	80.2322
3101.5	79.4259
3102	79.8274
3102.5	81.5362
3103	83.7885
3103.5	85.4513
3104	85.903
3104.5	85.3385
3105	84.2561
3105.5	83.0307
3106	81.912
3106.5	81.1266
3107	80.778
3107.5	80.752
3108	80.8741
3108.5	81.0927
3109	81.3746
3109.5	81.5156
3110	81.2825
3110.5	80.7589
3111	80.3273
3111.5	80.2181
3112	80.3233
3112.5	80.6471
3113	81.6595
3113.5	83.7478
3114	86.3319
3114.5	87.9009
3115	87.2906
3115.5	84.9619
3116	82.8052
3116.5	82.4897
3117	83.9855
3117.5	85.769
3118	86.4385
3118.5	85.9784
3119	85.4079
3119.5	85.4662
3120	85.9856
3120.5	86.4984
3121	86.9583
3121.5	87.4792
3122	87.7063
3122.5	87.0224
3123	85.3939
3123.5	83.6414
3124	82.7208
3124.5	82.9441
3125	83.9847
3125.5	85.3442
3126	86.5725
3126.5	87.268
3127	87.2742
3127.5	86.8889
3128	86.5702
3128.5	86.3674
3129	85.9109
3129.5	85.0678
3130	84.3158
3130.5	84.2274
3131	84.7904
3131.5	85.5535
3132	86.1955
3132.5	86.6685
3133	86.8904
3133.5	86.6449
3134	85.8729
3134.5	84.8677
3135	84.0734
3135.5	83.7729
3136	83.9729
3136.5	84.4611
3137	84.9623
3137.5	85.402
3138	86.0415
3138.5	87.16
3139	88.5475
3139.5	89.5584
3140	89.8153
3140.5	89.6002
3141	89.3099
3141.5	88.8137
3142	87.8373
3142.5	86.7429
3143	86.3579
3143.5	86.9335
3144	87.7309
3144.5	87.8986
3145	87.4419
3145.5	86.9978
3146	86.8502
3146.5	86.5748
3147	85.6988
3147.5	84.4559
3148	83.7878
3148.5	84.6281
3149	87.0653
3149.5	89.9516
3150	91.4417
3150.5	90.3855
3151	87.4603
3151.5	84.7415
3152	83.9131
3152.5	84.9258
3153	86.4925
3153.5	87.6941
3154	88.6213
3154.5	89.6925
3155	90.7958
3155.5	91.3423
3156	91.005
3156.5	90.1574
3157	89.5048
3157.5	89.3436
3158	89.2745
3158.5	88.7082
3159	87.6517
3159.5	86.8912
3160	87.2803
3160.5	88.8311
3161	90.5581
3161.5	91.2436
3162	90.3871
3162.5	88.5572
3163	86.9892
3163.5	86.786
3164	88.1929
3164.5	90.3767
3165	91.9565
3165.5	92.0166
3166	90.8202
3166.5	89.5796
3167	89.3877
3167.5	90.3584
3168	91.6556
3168.5	92.3028
3169	91.9924
3169.5	91.1861
3170	90.5395
3170.5	90.3257
3171	90.3786
3171.5	90.3961
3172	90.1647
3172.5	89.6616
3173	89.1924
3173.5	89.3306
3174	90.3245
3174.5	91.4854
3175	91.6159
3175.5	90.4099
3176	89.1359
3176.5	89.4289
3177	91.4817
3177.5	93.9294
3178	95.5545
3178.5	96.5062
3179	97.5151
3179.5	98.4202
3180	98.1419
3180.5	96.0872
3181	93.0972
3181.5	90.8284
3182	90.3671
3182.5	91.4503
3183	92.8335
3183.5	93.4364
3184	93.3363
3184.5	93.5535
3185	94.7283
3185.5	96.2138
3186	96.8124
3186.5	96.2572
3187	95.435
3187.5	95.0833
3188	94.8861
3188.5	94.2432
3189	93.4636
3189.5	93.55
3190	94.8813
3190.5	96.6449
3191	97.6881
3191.5	97.5714
3192	96.6802
3192.5	95.6629
3193	94.9834
3193.5	94.7683
3194	94.8087
3194.5	94.8033
3195	94.781
3195.5	95.1653
3196	96.2129
3196.5	97.4972
3197	98.2386
3197.5	98.1785
3198	97.8745
3198.5	98.0077
3199	98.5552
3199.5	98.8064
3200	98.1294
3200.5	96.614
3201	95.0229
3201.5	94.2273
3202	94.612
3202.5	95.81
3203	96.9445
3203.5	97.2898
3204	96.8361
3204.5	96.1455
3205	95.63
3205.5	95.2263
3206	95.0012
3206.5	95.707
3207	97.9732
3207.5	100.808
3208	101.8
3208.5	99.6812
3209	96.2944
3209.5	94.9426
3210	96.6375
3210.5	99.0154
3211	99.4498
3211.5	98.1907
3212	97.3918
3212.5	97.9064
3213	98.5335
3213.5	98.288
3214	97.7931
3214.5	97.8422
3215	97.9287
3215.5	97.3154
3216	96.6886
3216.5	97.352
3217	99.0959
3217.5	100.279
3218	100.162
3218.5	99.8505
3219	100.416
3219.5	101.272
3220	101.329
3220.5	100.87
3221	101.017
3221.5	101.748
3222	101.859
3222.5	100.974
3223	100.273
3223.5	100.706
3224	101.526
3224.5	101.427
3225	100.482
3225.5	99.8794
3226	100.008
3226.5	99.9194
3227	98.9471
3227.5	97.9662
3228	98.3856
3228.5	100.291
3229	102.183
3229.5	102.483
3230	100.977
3230.5	98.8596
3231	97.6558
3231.5	98.0338
3232	99.386
3232.5	100.569
3233	101.19
3233.5	101.971
3234	103.583
3234.5	105.372
3235	105.801
3235.5	104.178
3236	101.419
3236.5	98.9985
3237	97.6976
3237.5	97.6238
3238	98.731
3238.5	100.602
3239	102.103
3239.5	102.155
3240	100.932
3240.5	99.6695
3241	99.1924
3241.5	99.2619
3242	99.4798
3242.5	100
3243	100.865
3243.5	101.363
3244	100.889
3244.5	100.049
3245	100.014
3245.5	100.889
3246	101.653
3246.5	101.808
3247	102.11
3247.5	103.203
3248	104.387
3248.5	104.578
3249	103.903
3249.5	103.39
3250	103.334
3250.5	103.088
3251	102.577
3251.5	102.796
3252	104.176
3252.5	105.347
3253	104.625
3253.5	102.364
3254	100.736
3254.5	101.114
3255	102.68
3255.5	103.947
3256	104.664
3256.5	105.43
3257	106.112
3257.5	105.854
3258	104.702
3258.5	104.067
3259	105.04
3259.5	106.791
3260	107.222
3260.5	105.107
3261	101.333
3261.5	98.1501
3262	97.3698
3262.5	99.0504
3263	101.549
3263.5	102.86
3264	102.214
3264.5	100.558
3265	99.5072
3265.5	99.8254
3266	100.938
3266.5	101.725
3267	101.636
3267.5	101.067
3268	100.804
3268.5	101.108
3269	101.422
3269.5	101.135
3270	100.573
3270.5	100.818
3271	102.335
3271.5	104.178
3272	105.013
3272.5	104.658
3273	104.048
3273.5	103.839
3274	103.767
3274.5	103.485
3275	103.283
3275.5	103.577
3276	104.196
3276.5	104.687
3277	104.97
3277.5	105.226
3278	105.398
3278.5	105.366
3279	105.416
3279.5	105.977
3280	106.878
3280.5	107.355
3281	106.852
3281.5	105.48
3282	103.738
3282.5	102.232
3283	101.632
3283.5	102.327
3284	103.913
3284.5	105.427
3285	106.31
3285.5	106.73
3286	106.952
3286.5	106.907
3287	106.601
3287.5	106.361
3288	106.303
3288.5	106.006
3289	105.149
3289.5	104.096
3290	103.433
3290.5	103.305
3291	103.702
3291.5	104.908
3292	106.828
3292.5	108.19
3293	107.554
3293.5	105.348
3294	103.915
3294.5	104.916
3295	107.33
3295.5	108.734
3296	107.951
3296.5	105.743
3297	103.378
3297.5	101.559
3298	100.785
3298.5	101.637
3299	104.017
3299.5	106.576
3300	107.681
3300.5	106.943
3301	105.427
3301.5	104.396
3302	104.267
3302.5	104.804
3303	105.639
3303.5	106.281
3304	106.079
3304.5	104.83
3305	103.446
3305.5	103.478
3306	105.632
3306.5	108.908
3307	111.361
3307.5	111.639
3308	109.818
3308.5	107.148
3309	105.22
3309.5	104.98
3310	106
3310.5	106.793
3311	106.324
3311.5	105.202
3312	104.84
3312.5	105.478
3313	105.834
3313.5	105.093
3314	104.383
3314.5	105.253
3315	107.094
3315.5	107.624
3316	105.954
3316.5	103.984
3317	104.064
3317.5	106.127
3318	108.147
3318.5	108.914
3319	109.101
3319.5	109.527
3320	109.68
3320.5	108.757
3321	107.346
3321.5	106.913
3322	107.76
3322.5	108.521
3323	107.985
3323.5	106.631
3324	105.839
3324.5	106.1
3325	106.683
3325.5	106.863
3326	106.799
3326.5	107.077
3327	107.922
3327.5	109.081
3328	110.086
3328.5	110.535
3329	110.415
3329.5	110.26
3330	110.647
3330.5	111.355
3331	111.436
3331.5	110.428
3332	109.064
3332.5	108.357
3333	108.32
3333.5	108.214
3334	107.87
3334.5	107.952
3335	108.752
3335.5	109.49
3336	109.344
3336.5	108.751
3337	108.868
3337.5	110.033
3338	111.313
3338.5	111.594
3339	110.72
3339.5	109.492
3340	108.872
3340.5	109.307
3341	110.569
3341.5	111.996
3342	112.89
3342.5	112.881
3343	112.064
3343.5	110.95
3344	110.245
3344.5	110.38
3345	111.053
3345.5	111.44
3346	111.123
3346.5	110.545
3347	110.329
3347.5	110.381
3348	110.085
3348.5	109.282
3349	108.615
3349.5	108.87
3350	110.331
3350.5	112.715
3351	115.183
3351.5	116.357
3352	115.173
3352.5	112.303
3353	110.233
3353.5	111.118
3354	114.444
3354.5	117.708
3355	119.045
3355.5	118.52
3356	117.06
3356.5	115.116
3357	112.949
3357.5	111.497
3358	111.924
3358.5	114.232
3359	117
3359.5	118.789
3360	119.367
3360.5	119.311
3361	118.942
3361.5	118.238
3362	117.418
3362.5	116.715
3363	115.834
3363.5	114.576
3364	113.989
3364.5	115.577
3365	118.741
3365.5	120.308
3366	118.031
3366.5	113.881
3367	112.099
3367.5	113.999
3368	116.482
3368.5	116.394
3369	114.502
3369.5	113.74
3370	115.022
3370.5	116.868
3371	118.045
3371.5	118.752
3372	119.252
3372.5	118.993
3373	117.716
3373.5	116.404
3374	116.254
3374.5	117.068
3375	117.357
3375.5	116.082
3376	114.004
3376.5	112.976
3377	113.846
3377.5	115.509
3378	116.259
3378.5	115.934
3379	115.977
3379.5	117.184
3380	118.349
3380.5	117.962
3381	116.553
3381.5	116.105
3382	117.314
3382.5	118.652
3383	118.522
3383.5	117.182
3384	116.007
3384.5	115.934
3385	117.04
3385.5	118.893
3386	120.668
3386.5	121.386
3387	120.639
3387.5	118.959
3388	117.298
3388.5	116.413
3389	116.787
3389.5	118.398
3390	120.334
3390.5	121.245
3391	120.747
3391.5	119.934
3392	120.014
3392.5	120.781
3393	120.943
3393.5	119.689
3394	117.519
3394.5	115.722
3395	115.412
3395.5	116.671
3396	118.437
3396.5	119.406
3397	119.399
3397.5	119.498
3398	120.498
3398.5	121.7
3399	121.815
3399.5	120.672
3400	119.296
3400.5	118.518
3401	118.318
3401.5	118.478
3402	119.058
3402.5	119.999
3403	121.054
3403.5	122.281
3404	123.978
3404.5	125.848
3405	126.789
3405.5	125.987
3406	123.917
3406.5	122.001
3407	121.371
3407.5	122.122
3408	123.442
3408.5	124.045
3409	122.875
3409.5	119.939
3410	116.553
3410.5	114.502
3411	114.741
3411.5	116.795
3412	119.33
3412.5	121.216
3413	122.079
3413.5	122.038
3414	121.384
3414.5	120.576
3415	120.222
3415.5	120.629
3416	121.391
3416.5	121.8
3417	121.743
3417.5	121.809
3418	122.221
3418.5	122.285
3419	121.333
3419.5	119.828
3420	119.006
3420.5	119.5
3421	120.794
3421.5	122.016
3422	122.847
3422.5	123.525
3423	124.298
3423.5	125.072
3424	125.427
3424.5	124.966
3425	123.875
3425.5	123.016
3426	123.092
3426.5	123.796
3427	124.274
3427.5	124.383
3428	124.708
3428.5	125.115
3429	124.47
3429.5	122.33
3430	120.024
3430.5	119.11
3431	119.318
3431.5	119.246
3432	118.853
3432.5	119.761
3433	122.448
3433.5	125.047
3434	125.707
3434.5	124.87
3435	124.252
3435.5	124.511
3436	125.131
3436.5	125.896
3437	126.858
3437.5	127.113
3438	125.571
3438.5	122.986
3439	121.54
3439.5	122.107
3440	123.319
3440.5	123.813
3441	123.93
3441.5	124.328
3442	124.321
3442.5	123.181
3443	121.763
3443.5	121.423
3444	122.167
3444.5	123.017
3445	123.561
3445.5	123.938
3446	123.799
3446.5	122.719
3447	121.553
3447.5	121.696
3448	123.198
3448.5	124.697
3449	125.279
3449.5	125.397
3450	125.751
3450.5	126.23
3451	126.321
3451.5	125.837
3452	124.761
3452.5	123.193
3453	121.745
3453.5	121.327
3454	122.094
3454.5	123.071
3455	123.244
3455.5	122.694
3456	122.194
3456.5	122.185
3457	122.636
3457.5	123.449
3458	124.525
3458.5	125.574
3459	126.107
3459.5	125.528
3460	123.422
3460.5	120.16
3461	117.387
3461.5	117.012
3462	119.107
3462.5	121.422
3463	121.775
3463.5	120.562
3464	119.952
3464.5	120.672
3465	121.381
3465.5	120.951
3466	120.06
3466.5	120.038
3467	120.961
3467.5	121.553
3468	120.741
3468.5	118.961
3469	117.936
3469.5	119.27
3470	122.589
3470.5	125.315
3471	125.199
3471.5	123.052
3472	121.884
3472.5	122.942
3473	124.689
3473.5	125.428
3474	125.106
3474.5	124.144
3475	122.334
3475.5	120.057
3476	118.947
3476.5	119.53
3477	119.985
3477.5	118.72
3478	117.078
3478.5	117.681
3479	120.684
3479.5	123.308
3480	123.244
3480.5	120.963
3481	118.472
3481.5	117.23
3482	117.201
3482.5	117.268
3483	116.506
3483.5	115.299
3484	114.779
3484.5	115.103
3485	115.345
3485.5	115.192
3486	115.64
3486.5	117.256
3487	118.708
3487.5	118.378
3488	116.829
3488.5	115.977
3489	116.471
3489.5	117.052
3490	116.545
3490.5	115.385
3491	114.715
3491.5	114.734
3492	114.865
3492.5	114.844
3493	114.91
3493.5	115.217
3494	115.734
3494.5	116.655
3495	118.078
3495.5	119.204
3496	118.753
3496.5	116.628
3497	114.485
3497.5	113.921
3498	114.539
3498.5	114.729
3499	114.153
3499.5	113.873
3500	114.449
3500.5	115.162
3501	115.349
3501.5	115.324
3502	115.331
3502.5	114.609
3503	112.525
3503.5	109.897
3504	108.4
3504.5	108.864
3505	110.656
3505.5	112.477
3506	113.433
3506.5	113.289
3507	112.422
3507.5	111.571
3508	111.251
3508.5	111.313
3509	111.184
3509.5	110.527
3510	109.459
3510.5	108.428
3511	108.066
3511.5	108.886
3512	110.738
3512.5	112.524
3513	113.159
3513.5	112.558
3514	111.645
3514.5	111.27
3515	111.337
3515.5	111.176
3516	110.573
3516.5	109.895
3517	109.414
3517.5	108.961
3518	108.375
3518.5	108.018
3519	108.395
3519.5	109.302
3520	109.794
3520.5	109.179
3521	107.971
3521.5	107.511
3522	108.347
3522.5	109.245
3523	108.717
3523.5	106.907
3524	105.444
3524.5	105.286
3525	105.506
3525.5	104.826
3526	103.558
3526.5	102.862
3527	103.02
3527.5	103.417
3528	103.86
3528.5	104.756
3529	105.895
3529.5	106.383
3530	105.745
3530.5	104.269
3531	102.298
3531.5	100.199
3532	98.9714
3532.5	99.5506
3533	101.418
3533.5	102.936
3534	103.306
3534.5	103.237
3535	103.433
3535.5	103.71
3536	104.031
3536.5	104.862
3537	106.016
3537.5	106.396
3538	105.771
3538.5	105.37
3539	105.775
3539.5	105.715
3540	103.961
3540.5	101.546
3541	100.712
3541.5	101.851
3542	103.357
3542.5	103.806
3543	103.207
3543.5	102.326
3544	101.858
3544.5	102.311
3545	103.624
3545.5	104.517
3546	103.233
3546.5	99.7175
3547	96.5866
3547.5	96.381
3548	98.622
3548.5	100.382
3549	99.6066
3549.5	97.2076
3550	95.6628
3550.5	96.0188
3551	97.469
3551.5	98.718
3552	99.0181
3552.5	98.2927
3553	97.23
3553.5	96.9167
3554	97.8468
3554.5	99.2208
3555	99.6729
3555.5	98.7264
3556	97.3016
3556.5	96.3976
3557	96.285
3557.5	96.78
3558	97.741
3558.5	98.9491
3559	99.8172
3559.5	99.7056
3560	98.4138
3560.5	96.2971
3561	94.0654
3561.5	92.612
3562	92.6403
3562.5	94.1534
3563	96.2342
3563.5	97.6646
3564	97.7878
3564.5	96.84
3565	95.4237
3565.5	94.2756
3566	94.0146
3566.5	94.483
3567	94.6255
3567.5	93.9237
3568	93.327
3568.5	93.9108
3569	95.0898
3569.5	95.203
3570	93.9986
3570.5	92.8895
3571	92.9147
3571.5	93.8488
3572	95.0902
3572.5	96.1036
3573	96.0225
3573.5	94.3931
3574	92.4859
3574.5	92.3977
3575	94.3601
3575.5	96.1003
3576	96.0052
3576.5	94.8731
3577	94.2693
3577.5	94.3289
3578	94.0022
3578.5	92.9255
3579	91.7605
3579.5	91.1759
3580	91.2205
3580.5	91.5629
3581	91.8033
3581.5	91.5068
3582	90.3832
3582.5	88.894
3583	88.4277
3583.5	89.9392
3584	92.5194
3584.5	94.1809
3585	94.0459
3585.5	93.1257
3586	92.4942
3586.5	91.6358
3587	89.7666
3587.5	87.4799
3588	86.0938
3588.5	85.8373
3589	85.8613
3589.5	85.8526
3590	86.2671
3590.5	87.4016
3591	88.8272
3591.5	89.7281
3592	89.5196
3592.5	88.2789
3593	86.9219
3593.5	86.6105
3594	87.4489
3594.5	88.4948
3595	88.7273
3595.5	87.783
3596	86.0413
3596.5	84.6162
3597	84.7469
3597.5	86.7199
3598	89.2991
3598.5	90.7235
3599	90.4662
3599.5	89.1494
3600	87.4865
3600.5	85.9827
3601	85.0831
3601.5	84.6865
3602	84.1389
3602.5	83.3311
3603	83.22
3603.5	84.4282
3604	85.7025
3604.5	85.505
3605	84.1783
3605.5	83.474
3606	84.1918
3606.5	85.3498
3607	86.1109
3607.5	86.6443
3608	87.0343
3608.5	86.5004
3609	84.6225
3609.5	82.4134
3610	81.5383
3610.5	82.7124
3611	85.0054
3611.5	86.6712
3612	86.7477
3612.5	85.626
3613	84.5287
3613.5	84.325
3614	84.7578
3614.5	85.0612
3615	84.7846
3615.5	84.1549
3616	83.8584
3616.5	84.318
3617	85.1646
3617.5	85.4827
3618	84.774
3618.5	83.5947
3619	82.7209
3619.5	82.348
3620	82.2934
3620.5	82.3129
3621	81.947
3621.5	80.999
3622	80.4584
3622.5	81.8118
3623	84.55
3623.5	85.8505
3624	84.2112
3624.5	81.3299
3625	79.8362
3625.5	80.1137
3626	81.0709
3626.5	82.1975
3627	83.109
3627.5	82.8185
3628	81.456
3628.5	80.7991
3629	81.8682
3629.5	83.2616
3630	83.3266
3630.5	82.8331
3631	83.2029
3631.5	84.055
3632	83.8771
3632.5	82.4656
3633	80.7897
3633.5	79.4925
3634	78.8739
3634.5	79.4218
3635	80.9483
3635.5	82.0576
3636	81.3715
3636.5	79.3211
3637	78.2111
3637.5	79.7651
3638	83.197
3638.5	85.5973
3639	84.8284
3639.5	82.3688
3640	81.2192
3640.5	82.1502
3641	83.0279
3641.5	82.2866
3642	80.8529
3642.5	79.6427
3643	77.8455
3643.5	74.9115
3644	72.5075
3644.5	72.2665
3645	73.5847
3645.5	74.8001
3646	75.6811
3646.5	77.0354
3647	78.918
3647.5	80.5224
3648	81.119
3648.5	80.3373
3649	78.1483
3649.5	75.5706
3650	74.6205
3650.5	76.182
3651	78.8309
3651.5	80.1327
3652	78.9429
3652.5	76.5619
3653	74.9595
3653.5	74.7148
3654	74.7922
3654.5	74.2717
3655	73.8077
3655.5	74.3241
3656	75.2533
3656.5	75.0955
3657	73.9554
3657.5	73.3603
3658	73.9931
3658.5	74.8903
3659	75.2344
3659.5	75.4088
3660	75.727
3660.5	75.8365
3661	75.7955
3661.5	76.1243
3662	76.3383
3662.5	75.1095
3663	72.546
3663.5	70.6359
3664	70.4979
3664.5	71.1542
3665	71.3282
3665.5	71.2961
3666	71.6117
3666.5	71.8262
3667	71.4793
3667.5	71.4459
3668	72.6217
3668.5	74.3546
3669	75.0159
3669.5	74.2113
3670	73.0664
3670.5	72.7372
3671	73.289
3671.5	73.8355
3672	73.7501
3672.5	73.3539
3673	73.5414
3673.5	74.4361
3674	74.8727
3674.5	73.7539
3675	71.5427
3675.5	69.9367
3676	69.7779
3676.5	70.4953
3677	71.3269
3677.5	72.2004
3678	73.0667
3678.5	73.3276
3679	72.5484
3679.5	71.2594
3680	70.3593
3680.5	70.1522
3681	70.428
3681.5	70.7753
3682	70.5821
3682.5	69.401
3683	67.7427
3683.5	66.9104
3684	67.3658
3684.5	68.417
3685	69.5024
3685.5	70.6678
3686	71.3884
3686.5	70.705
3687	69.1806
3687.5	69.0178
3688	70.6694
3688.5	71.9122
3689	71.0794
3689.5	69.6491
3690	69.4857
3690.5	69.8863
3691	69.3444
3691.5	68.4601
3692	68.6046
3692.5	69.312
3693	69.2485
3693.5	68.8239
3694	69.4614
3694.5	71.1137
3695	72.2383
3695.5	71.9753
3696	70.961
3696.5	70.2175
3697	70.4118
3697.5	71.4782
3698	72.6091
3698.5	72.7365
3699	71.6249
3699.5	70.4985
3700	70.4821
