#Imported=	16.12.2021 13:56:07
50	0
50.5	0.06346
51	0.51998
51.5	1.05202
52	1.48594
52.5	1.81073
53	2.18221
53.5	2.79111
54	3.73011
54.5	4.76924
55	5.58588
55.5	5.8655
56	5.46132
56.5	4.54845
57	3.44938
57.5	2.60877
58	2.20237
58.5	2.28346
59	2.76831
59.5	3.49146
60	4.43464
60.5	5.67526
61	7.24806
61.5	9.16936
62	11.3335
62.5	13.5109
63	15.4696
63.5	17.0163
64	18.2495
64.5	19.2773
65	20.2586
65.5	21.3367
66	22.615
66.5	24.2528
67	26.2888
67.5	28.8623
68	32.2091
68.5	36.3642
69	41.4731
69.5	47.8711
70	55.4206
70.5	64.0328
71	73.5075
71.5	83.117
72	92.0418
72.5	98.7446
73	102.225
73.5	102.182
74	98.2618
74.5	91.9194
75	84.2597
75.5	76.6928
76	70.4031
76.5	65.7179
77	62.6315
77.5	60.3676
78	58.4664
78.5	56.5779
79	54.6168
79.5	52.722
80	51.1033
80.5	49.7761
81	48.6907
81.5	47.7641
82	46.8843
82.5	46.0499
83	45.3557
83.5	44.851
84	44.5328
84.5	44.3365
85	44.0986
85.5	43.655
86	42.8438
86.5	41.7184
87	40.3721
87.5	38.9488
88	37.6588
88.5	36.6881
89	36.3479
89.5	36.6093
90	37.3532
90.5	38.3617
91	39.2291
91.5	39.5964
92	39.0099
92.5	37.4901
93	35.4116
93.5	33.2286
94	31.4759
94.5	30.4746
95	30.4496
95.5	31.16
96	32.0829
96.5	32.7842
97	33.0173
97.5	32.7985
98	32.2771
98.5	31.7901
99	31.6168
99.5	31.8915
100	32.5717
100.5	33.5353
101	34.7186
101.5	36.0759
102	37.6024
102.5	39.2851
103	41.0181
103.5	42.6569
104	44.0466
104.5	45.1089
105	45.9279
105.5	46.6918
106	47.6337
106.5	48.8053
107	50.1267
107.5	51.3667
108	52.3114
108.5	52.8282
109	53.1085
109.5	53.5827
110	54.6389
110.5	56.5185
111	59.0053
111.5	61.6985
112	63.8413
112.5	64.9748
113	64.9991
113.5	64.1885
114	63.2333
114.5	62.75
115	63.3407
115.5	64.9893
116	67.3191
116.5	69.749
117	71.7602
117.5	73.0385
118	73.412
118.5	73.156
119	72.5502
119.5	71.8961
120	71.3408
120.5	70.8978
121	70.4944
121.5	70.0112
122	69.3502
122.5	68.4653
123	67.4857
123.5	66.5414
124	65.8313
124.5	65.4466
125	65.4322
125.5	65.7999
126	66.3033
126.5	66.7756
127	67.0586
127.5	67.139
128	67.0491
128.5	66.8584
129	66.6727
129.5	66.5285
130	66.4276
130.5	66.3538
131	66.3169
131.5	66.3675
132	66.5389
132.5	66.8361
133	67.1739
133.5	67.4072
134	67.4232
134.5	67.1125
135	66.5515
135.5	65.8721
136	65.306
136.5	65.0004
137	64.9821
137.5	65.2249
138	65.578
138.5	65.9209
139	66.1619
139.5	66.3006
140	66.3906
140.5	66.4453
141	66.4203
141.5	66.221
142	65.6775
142.5	64.7137
143	63.4093
143.5	62.0623
144	61.1218
144.5	60.98
145	62.1162
145.5	64.6202
146	68.2834
146.5	72.7174
147	77.1152
147.5	80.8631
148	83.3304
148.5	84.2026
149	83.5257
149.5	81.2987
150	77.9395
150.5	74.2145
151	70.7306
151.5	68.0664
152	66.4769
152.5	66.1174
153	66.7198
153.5	67.6498
154	68.266
154.5	68.1379
155	67.2702
155.5	65.8537
156	64.3609
156.5	63.2688
157	62.9702
157.5	63.4179
158	64.2452
158.5	65.1076
159	65.6673
159.5	65.8264
160	65.6386
160.5	65.3817
161	65.3889
161.5	65.8601
162	66.8577
162.5	68.1813
163	69.6155
163.5	70.8982
164	71.9196
164.5	72.79
165	73.838
165.5	75.3578
166	77.5765
166.5	80.6259
167	84.2778
167.5	88.4407
168	93.3217
168.5	99.3337
169	107.286
169.5	118.441
170	132.801
170.5	150.187
171	169.569
171.5	188.189
172	203.551
172.5	212.492
173	214.671
173.5	209.857
174	197.909
174.5	181.774
175	163.543
175.5	145.735
176	129.852
176.5	116.603
177	106.706
177.5	99.2985
178	93.8537
178.5	90.0277
179	86.993
179.5	84.4547
180	82.3226
180.5	80.4445
181	78.7542
181.5	77.2296
182	75.8641
182.5	74.7496
183	74.0767
183.5	73.8632
184	74.0399
184.5	74.4158
185	74.6379
185.5	74.4297
186	73.4962
186.5	72.0898
187	70.5285
187.5	69.2228
188	68.4812
188.5	68.4468
189	69.2494
189.5	70.7216
190	72.6285
190.5	74.7297
191	76.7814
191.5	78.6432
192	80.2666
192.5	81.8358
193	83.6891
193.5	86.5126
194	90.7345
194.5	96.5645
195	104.434
195.5	114.496
196	126.925
196.5	142.576
197	162.108
197.5	185.354
198	211.47
198.5	238.087
199	262.225
199.5	279.949
200	288.069
200.5	285.687
201	271.584
201.5	249.335
202	223.297
202.5	196.968
203	173.533
203.5	154.287
204	139.809
204.5	129.347
205	121.127
205.5	113.981
206	107.334
206.5	101.07
207	95.4375
207.5	90.7352
208	86.9343
208.5	83.9763
209	81.5393
209.5	79.3497
210	77.3768
210.5	75.7073
211	74.3842
211.5	73.4268
212	72.7303
212.5	72.0664
213	71.3174
213.5	70.5265
214	69.8522
214.5	69.4439
215	69.3596
215.5	69.3998
216	69.2708
216.5	68.6182
217	67.5295
217.5	66.262
218	65.3122
218.5	65.0473
219	65.6644
219.5	67.1555
220	68.9871
220.5	70.6749
221	71.7952
221.5	72.3559
222	72.4661
222.5	72.324
223	72.1978
223.5	72.2215
224	72.5096
224.5	72.9971
225	73.6298
225.5	74.3157
226	74.8989
226.5	75.2301
227	75.0868
227.5	74.4845
228	73.4937
228.5	72.3199
229	71.1981
229.5	70.2145
230	69.357
230.5	68.4888
231	67.5098
231.5	66.3952
232	65.3315
232.5	64.5473
233	64.2944
233.5	64.5295
234	65.1038
234.5	65.7734
235	66.2578
235.5	66.4121
236	66.1824
236.5	65.8076
237	65.5019
237.5	65.5172
238	65.9846
238.5	66.9462
239	68.4334
239.5	70.2557
240	72.1583
240.5	73.834
241	75.1161
241.5	76.0225
242	76.71
242.5	77.5144
243	78.7088
243.5	80.4978
244	82.718
244.5	84.9467
245	86.735
245.5	87.811
246	88.1717
246.5	87.8751
247	87.1512
247.5	86.1705
248	84.9155
248.5	83.3982
249	81.7499
249.5	80.2848
250	79.4689
250.5	79.6137
251	80.9505
251.5	83.2364
252	85.8291
252.5	88.0905
253	89.7565
253.5	91.1554
254	93.0053
254.5	96.2724
255	101.44
255.5	108.737
256	117.517
256.5	126.213
257	133.228
257.5	137.115
258	137.619
258.5	134.639
259	128.807
259.5	121.599
260	114.168
260.5	107.674
261	102.389
261.5	98.313
262	95.2223
262.5	92.7087
263	90.6909
263.5	89.3306
264	88.7622
264.5	89.1787
265	90.4033
265.5	91.8293
266	92.9088
266.5	93.0731
267	92.3089
267.5	90.7931
268	88.9586
268.5	87.349
269	86.1835
269.5	85.3639
270	84.5102
270.5	83.3266
271	81.5816
271.5	79.4566
272	77.2134
272.5	75.2714
273	73.8764
273.5	73.047
274	72.7419
274.5	72.7041
275	72.8205
275.5	73.0751
276	73.4924
276.5	74.1463
277	75.1696
277.5	76.4887
278	78.033
278.5	79.7562
279	81.5846
279.5	83.5113
280	85.5786
280.5	87.7899
281	90.143
281.5	92.641
282	95.2559
282.5	98.0502
283	101.262
283.5	105.122
284	109.893
284.5	116.049
285	123.635
285.5	132.702
286	143.366
286.5	155.251
287	168.133
287.5	181.924
288	196.274
288.5	210.822
289	225.009
289.5	238.115
290	249.25
290.5	257.116
291	261.124
291.5	261.016
292	256.133
292.5	247.106
293	234.926
293.5	220.411
294	204.988
294.5	189.86
295	175.963
295.5	163.665
296	152.908
296.5	143.704
297	135.769
297.5	128.795
298	122.73
298.5	117.506
299	113.073
299.5	109.498
300	106.768
300.5	104.732
301	103.271
301.5	102.104
302	100.927
302.5	99.5102
303	97.7746
303.5	95.9003
304	94.1999
304.5	93.0041
305	92.4444
305.5	92.6148
306	93.4898
306.5	94.9239
307	96.935
307.5	99.6003
308	102.85
308.5	106.547
309	110.433
309.5	114.237
310	117.868
310.5	121.518
311	125.618
311.5	130.735
312	137.484
312.5	145.728
313	154.99
313.5	164.454
314	173.176
314.5	180.312
315	184.899
315.5	186.849
316	185.902
316.5	181.742
317	175.169
317.5	166.921
318	157.761
318.5	148.624
319	140.035
319.5	132.377
320	125.471
320.5	119.154
321	113.363
321.5	108.095
322	103.549
322.5	100.114
323	97.6608
323.5	96.0306
324	94.9599
324.5	93.9761
325	92.8501
325.5	91.4652
326	89.957
326.5	88.4704
327	87.1461
327.5	86.0274
328	85.1652
328.5	84.699
329	84.6433
329.5	84.9874
330	85.6253
330.5	86.2016
331	86.4047
331.5	86.0232
332	85.3026
332.5	84.6313
333	84.594
333.5	85.4706
334	87.2471
334.5	89.6718
335	92.1039
335.5	94.0763
336	95.4126
336.5	96.49
337	97.7987
337.5	99.9214
338	103.026
338.5	106.941
339	111.256
339.5	115.286
340	118.457
340.5	120.263
341	120.774
341.5	120.238
342	118.841
342.5	116.939
343	114.765
343.5	112.372
344	109.717
344.5	106.688
345	103.061
345.5	98.8732
346	94.3395
346.5	89.8058
347	85.7564
347.5	82.5594
348	80.6078
348.5	79.9707
349	80.3902
349.5	81.615
350	83.1409
350.5	84.5022
351	85.368
351.5	85.5835
352	85.2683
352.5	84.6329
353	84.0739
353.5	83.9594
354	84.6193
354.5	86.2061
355	88.4743
355.5	91.1219
356	93.7875
356.5	96.2097
357	98.2417
357.5	99.867
358	101.247
358.5	102.557
359	104.053
359.5	105.956
360	108.406
360.5	111.323
361	114.279
361.5	116.667
362	117.607
362.5	116.72
363	113.766
363.5	108.952
364	103.378
364.5	98.1109
365	94.2597
365.5	91.9201
366	90.8464
366.5	90.3868
367	89.6901
367.5	88.2852
368	85.9922
368.5	83.2944
369	80.7154
369.5	78.9419
370	78.094
370.5	78.0299
371	78.4339
371.5	78.7933
372	78.8094
372.5	78.2625
373	77.3449
373.5	76.3051
374	75.5531
374.5	75.3661
375	75.8391
375.5	76.8821
376	78.0699
376.5	79.0987
377	79.7215
377.5	80.0855
378	80.4921
378.5	81.4652
379	83.2434
379.5	85.816
380	88.8423
380.5	91.611
381	93.6867
381.5	94.7505
382	95.0916
382.5	95.0545
383	94.9454
383.5	94.8742
384	94.6943
384.5	94.0432
385	92.7135
385.5	90.7675
386	88.4168
386.5	86.0075
387	83.7171
387.5	81.59
388	79.5407
388.5	77.5329
389	75.6962
389.5	74.2811
390	73.5415
390.5	73.7458
391	74.7211
391.5	76.2122
392	78.0593
392.5	80.1575
393	82.5342
393.5	85.3184
394	88.4942
394.5	91.8786
395	95.1536
395.5	97.9211
396	99.9769
396.5	101.198
397	101.676
397.5	101.59
398	101.02
398.5	100.125
399	99.1095
399.5	98.2336
400	97.8136
400.5	98.0295
401	99.0217
401.5	100.547
402	102.207
402.5	103.651
403	104.655
403.5	105.285
404	105.742
404.5	106.357
405	107.35
405.5	108.806
406	110.588
406.5	112.37
407	113.882
407.5	115.012
408	115.91
408.5	116.786
409	117.835
409.5	119.012
410	120.041
410.5	120.374
411	119.668
411.5	117.72
412	114.708
412.5	111.47
413	108.624
413.5	106.603
414	105.168
414.5	103.859
415	101.998
415.5	99.3022
416	95.8225
416.5	92.0235
417	88.6154
417.5	86.1421
418	84.8852
418.5	84.4603
419	84.5851
419.5	85.017
420	85.5447
420.5	86.1013
421	86.6249
421.5	87.0737
422	87.4676
422.5	88.0216
423	89.1168
423.5	91.1648
424	94.6626
424.5	99.3402
425	104.95
425.5	111.273
426	118.02
426.5	125.237
427	133.182
427.5	141.7
428	150.343
428.5	157.889
429	163.015
429.5	164.843
430	162.409
430.5	156.691
431	148.667
431.5	139.317
432	129.804
432.5	120.673
433	112.266
433.5	104.589
434	97.7018
434.5	91.9793
435	87.5477
435.5	84.3806
436	82.4713
436.5	81.3267
437	80.499
437.5	79.6081
438	78.447
438.5	77.0378
439	75.5487
439.5	74.2463
440	73.3027
440.5	72.8103
441	72.5378
441.5	72.1709
442	71.3778
442.5	70.0439
443	68.3109
443.5	66.4743
444	64.9316
444.5	63.9004
445	63.4574
445.5	63.3862
446	63.4127
446.5	63.3995
447	63.4472
447.5	63.7699
448	64.5747
448.5	65.8188
449	67.2094
449.5	68.3714
450	68.9961
450.5	69.0892
451	68.8248
451.5	68.5655
452	68.579
452.5	68.962
453	69.5424
453.5	70.065
454	70.371
454.5	70.4441
455	70.4154
455.5	70.4096
456	70.5048
456.5	70.6708
457	70.841
457.5	70.9558
458	71.0377
458.5	71.1836
459	71.5794
459.5	72.3462
460	73.6416
460.5	75.6579
461	78.4011
461.5	81.9466
462	86.3253
462.5	91.2777
463	96.6026
463.5	102.05
464	107.422
464.5	112.684
465	117.987
465.5	123.567
466	129.591
466.5	136.059
467	142.52
467.5	148.299
468	152.158
468.5	153.427
469	151.466
469.5	145.613
470	137.041
470.5	126.769
471	116.3
471.5	107.152
472	100.073
472.5	95.5533
473	92.618
473.5	90.4835
474	88.2973
474.5	85.6063
475	82.4713
475.5	79.4073
476	77.0829
476.5	75.947
477	76.3409
477.5	77.6703
478	79.2628
478.5	80.2673
479	80.2968
479.5	79.3174
480	77.4852
480.5	75.3602
481	73.3145
481.5	71.6197
482	70.2555
482.5	69.1112
483	68.087
483.5	67.1397
484	66.3419
484.5	65.9119
485	65.9431
485.5	66.447
486	67.3989
486.5	68.5747
487	69.7535
487.5	70.6951
488	71.2724
488.5	71.4936
489	71.4606
489.5	71.4423
490	71.6755
490.5	72.3476
491	73.3558
491.5	74.3705
492	74.9186
492.5	74.6777
493	73.6515
493.5	72.0539
494	70.4483
494.5	69.3415
495	69.1403
495.5	69.828
496	71.0521
496.5	72.4183
497	73.5751
497.5	74.4688
498	75.2772
498.5	76.3056
499	77.6573
499.5	79.2198
500	80.6253
500.5	81.5293
501	81.6801
501.5	81.1452
502	80.3149
502.5	79.6177
503	79.4582
503.5	79.9293
504	80.9984
504.5	82.4596
505	84.0557
505.5	85.665
506	87.2491
506.5	88.8027
507	90.2781
507.5	91.5502
508	92.5063
508.5	93.0105
509	92.9669
509.5	92.4861
510	91.6808
510.5	90.7527
511	89.9356
511.5	89.3993
512	89.247
512.5	89.3194
513	89.4007
513.5	89.2067
514	88.6325
514.5	87.7011
515	86.5899
515.5	85.5578
516	84.7246
516.5	84.0444
517	83.2794
517.5	82.2323
518	80.8272
518.5	79.364
519	78.2397
519.5	78.0044
520	78.5487
520.5	79.5507
521	80.3396
521.5	80.3401
522	79.2864
522.5	77.1514
523	74.6556
523.5	72.4195
524	71.2204
524.5	71.19
525	72.235
525.5	74.0362
526	75.8498
526.5	77.1242
527	77.2521
527.5	76.3771
528	74.8055
528.5	73.0777
529	71.8164
529.5	71.3619
530	71.8991
530.5	73.0065
531	74.2343
531.5	75.0855
532	75.3476
532.5	75.0371
533	74.2447
533.5	73.2103
534	72.0621
534.5	70.8877
535	69.8295
535.5	69.0719
536	68.9086
536.5	69.4094
537	70.4597
537.5	71.8186
538	73.0996
538.5	74.0761
539	74.6691
539.5	75.0634
540	75.4754
540.5	76.0489
541	76.7362
541.5	77.37
542	77.7351
542.5	77.7438
543	77.4894
543.5	77.1216
544	76.8557
544.5	76.8559
545	77.2973
545.5	78.2395
546	79.5875
546.5	81.1458
547	82.5119
547.5	83.3063
548	83.1818
548.5	82.1536
549	80.6559
549.5	79.2772
550	78.6793
550.5	79.1009
551	80.4535
551.5	82.2321
552	83.8251
552.5	84.7607
553	84.8225
553.5	84.2219
554	83.2443
554.5	82.3118
555	81.7472
555.5	81.7572
556	82.3716
556.5	83.3384
557	84.3755
557.5	85.129
558	85.4298
558.5	85.2476
559	84.8024
559.5	84.4527
560	84.4767
560.5	85.0665
561	86.1062
561.5	87.4417
562	88.8263
562.5	90.0094
563	90.7768
563.5	90.8677
564	90.2669
564.5	88.9682
565	87.0959
565.5	85.0822
566	83.3137
566.5	82.2329
567	81.8732
567.5	82.0973
568	82.6026
568.5	83.0359
569	83.2688
569.5	83.3481
570	83.5019
570.5	83.8982
571	84.6265
571.5	85.4774
572	86.2114
572.5	86.5166
573	86.3948
573.5	85.9787
574	85.5654
574.5	85.4336
575	85.6642
575.5	86.121
576	86.3841
576.5	86.1168
577	85.0203
577.5	83.3195
578	81.3273
578.5	79.4742
579	78.0695
579.5	77.2253
580	76.9907
580.5	77.1513
581	77.5429
581.5	78.0037
582	78.3336
582.5	78.355
583	77.8351
583.5	76.8003
584	75.4416
584.5	74.1523
585	73.3967
585.5	73.385
586	74.104
586.5	75.0667
587	75.7695
587.5	75.755
588	75.0271
588.5	73.9153
589	72.9319
589.5	72.5523
590	72.9319
590.5	74.0295
591	75.4325
591.5	76.7275
592	77.584
592.5	77.9409
593	77.9706
593.5	77.9335
594	78.1445
594.5	78.7984
595	80.0469
595.5	81.8997
596	84.2881
596.5	87.2411
597	90.7321
597.5	94.6775
598	99.0411
598.5	103.685
599	108.404
599.5	112.955
600	117.023
600.5	120.37
601	122.662
601.5	123.666
602	123.477
602.5	122.114
603	119.762
603.5	116.745
604	113.179
604.5	109.159
605	104.893
605.5	100.653
606	96.9188
606.5	94.0443
607	92.2648
607.5	91.4435
608	90.925
608.5	90.0926
609	88.4548
609.5	86.176
610	83.7215
610.5	81.8329
611	80.8827
611.5	80.9176
612	81.6433
612.5	82.5358
613	83.4116
613.5	84.4156
614	85.8184
614.5	87.7779
615	90.1164
615.5	92.3389
616	94.1354
616.5	95.5162
617	97.0366
617.5	99.2972
618	102.914
618.5	107.579
619	112.765
619.5	117.62
620	121.579
620.5	124.456
621	126.223
621.5	127.33
622	127.888
622.5	127.659
623	126.533
623.5	124.385
624	121.159
624.5	117.39
625	113.49
625.5	109.857
626	106.561
626.5	103.524
627	100.626
627.5	97.7666
628	94.9734
628.5	92.3896
629	90.1213
629.5	88.2433
630	86.862
630.5	85.9048
631	85.3028
631.5	84.9761
632	84.7049
632.5	84.2678
633	83.3536
633.5	81.8224
634	79.6793
634.5	77.0453
635	74.3455
635.5	71.9999
636	70.4986
636.5	69.9915
637	70.342
637.5	71.2628
638	72.2233
638.5	72.8174
639	72.7237
639.5	71.9798
640	70.8463
640.5	69.6913
641	68.9309
641.5	68.7977
642	69.437
642.5	70.6583
643	72.1108
643.5	73.4086
644	74.2291
644.5	74.4979
645	74.2713
645.5	73.8386
646	73.4998
646.5	73.4691
647	73.7855
647.5	74.3323
648	75.0235
648.5	75.8591
649	76.9543
649.5	78.5179
650	80.6503
650.5	83.1669
651	85.7213
651.5	87.7706
652	88.9367
652.5	88.9235
653	87.7383
653.5	85.8098
654	83.5379
654.5	81.4064
655	79.7287
655.5	78.6855
656	78.2843
656.5	78.2637
657	78.3743
657.5	78.3245
658	77.9784
658.5	77.3419
659	76.6036
659.5	76.0387
660	75.8373
660.5	76.0214
661	76.2928
661.5	76.2886
662	75.6421
662.5	74.4461
663	72.9933
663.5	71.8361
664	71.349
664.5	71.6381
665	72.4853
665.5	73.3008
666	73.673
666.5	73.3752
667	72.7635
667.5	72.2793
668	72.4633
668.5	73.3446
669	74.7127
669.5	76.1007
670	77.0804
670.5	77.5094
671	77.4639
671.5	77.366
672	77.5022
672.5	78.1169
673	79.1274
673.5	80.4561
674	82.0887
674.5	83.9518
675	85.9804
675.5	87.9391
676	89.459
676.5	90.2253
677	89.9414
677.5	88.9623
678	87.7719
678.5	87.0477
679	87.1613
679.5	88.1182
680	89.6396
680.5	91.0915
681	92.0413
681.5	92.2045
682	91.8355
682.5	91.3252
683	91.1396
683.5	91.5139
684	92.4121
684.5	93.6332
685	94.8026
685.5	95.6824
686	96.1578
686.5	96.3943
687	96.6264
687.5	97.0706
688	97.7476
688.5	98.4892
689	98.9867
689.5	98.982
690	98.4298
690.5	97.4283
691	96.3228
691.5	95.4091
692	94.8486
692.5	94.5363
693	94.2219
693.5	93.627
694	92.5972
694.5	91.1774
695	89.4586
695.5	87.5925
696	85.6715
696.5	83.7163
697	81.7564
697.5	79.8777
698	78.2545
698.5	77.0699
699	76.351
699.5	76.0528
700	75.9698
700.5	75.883
701	75.705
701.5	75.5096
702	75.452
702.5	75.6469
703	76.0386
703.5	76.3835
704	76.4027
704.5	75.8951
705	74.9637
705.5	73.7906
706	72.6161
706.5	71.553
707	70.5746
707.5	69.5955
708	68.6125
708.5	67.749
709	67.1973
709.5	66.9542
710	66.8761
710.5	66.663
711	66.1411
711.5	65.3602
712	64.6573
712.5	64.4061
713	64.8049
713.5	65.7923
714	66.9078
714.5	67.7975
715	68.2315
715.5	68.3831
716	68.4644
716.5	68.6369
717	68.8302
717.5	68.8769
718	68.6178
718.5	68.1994
719	67.8592
719.5	67.8783
720	68.1636
720.5	68.424
721	68.1288
721.5	67.1273
722	65.5534
722.5	63.8981
723	62.7708
723.5	62.4986
724	63.2412
724.5	64.5396
725	66.0242
725.5	67.3461
726	68.3367
726.5	68.9052
727	68.8577
727.5	68.1949
728	66.9726
728.5	65.3998
729	63.9549
729.5	62.9973
730	62.8121
730.5	63.1915
731	63.8122
731.5	64.3151
732	64.5175
732.5	64.4492
733	64.2358
733.5	64.0418
734	63.9345
734.5	63.9422
735	64.064
735.5	64.3135
736	64.6988
736.5	65.1093
737	65.3676
737.5	65.2376
738	64.6694
738.5	63.8224
739	63.0097
739.5	62.5848
740	62.6954
740.5	63.3523
741	64.3151
741.5	65.3552
742	66.3698
742.5	67.3651
743	68.35
743.5	69.1972
744	69.6309
744.5	69.4216
745	68.3998
745.5	66.7754
746	65.0174
746.5	63.6123
747	62.8776
747.5	62.7436
748	63.02
748.5	63.4446
749	63.9271
749.5	64.6134
750	65.7384
750.5	67.3275
751	69.2015
751.5	70.8709
752	71.8651
752.5	71.8155
753	70.6701
753.5	68.8544
754	66.7971
754.5	64.9757
755	63.6426
755.5	62.9385
756	62.9137
756.5	63.4255
757	64.4012
757.5	65.703
758	67.0808
758.5	68.3186
759	69.2017
759.5	69.7148
760	69.8993
760.5	69.8537
761	69.702
761.5	69.4563
762	69.0668
762.5	68.555
763	68.0241
763.5	67.7414
764	67.9199
764.5	68.6803
765	69.9795
765.5	71.4128
766	72.6245
766.5	73.2497
767	73.3381
767.5	73.0496
768	72.6527
768.5	72.3976
769	72.3747
769.5	72.6219
770	73.0528
770.5	73.6456
771	74.4115
771.5	75.2643
772	76.0926
772.5	76.6955
773	76.9901
773.5	76.989
774	76.8294
774.5	76.7924
775	77.0988
775.5	77.9951
776	79.4266
776.5	81.2914
777	83.4475
777.5	85.6515
778	87.7694
778.5	89.7452
779	91.673
779.5	93.6621
780	95.775
780.5	97.8964
781	99.8417
781.5	101.434
782	102.837
782.5	104.464
783	107.021
783.5	110.869
784	115.911
784.5	121.703
785	127.372
785.5	132.355
786	136.403
786.5	139.891
787	143.274
787.5	146.8
788	150.322
788.5	153.471
789	155.765
789.5	157.029
790	157.34
790.5	156.664
791	155.058
791.5	152.594
792	149.311
792.5	145.578
793	141.856
793.5	138.492
794	135.48
794.5	132.464
795	128.942
795.5	124.582
796	119.482
796.5	113.91
797	108.338
797.5	103.15
798	98.6978
798.5	95.2518
799	92.829
799.5	91.4012
800	90.5375
800.5	89.5443
801	87.8123
801.5	85.1075
802	81.9133
802.5	78.9735
803	77.0814
803.5	76.3281
804	76.4196
804.5	76.7066
805	76.7186
805.5	76.4317
806	76.1668
806.5	76.1797
807	76.3905
807.5	76.3256
808	75.5766
808.5	74.0336
809	72.0715
809.5	70.3989
810	69.5035
810.5	69.5375
811	69.9915
811.5	70.369
812	70.223
812.5	69.5654
813	68.5512
813.5	67.4145
814	66.3651
814.5	65.5266
815	65.0714
815.5	65.0233
816	65.3498
816.5	65.8407
817	66.1242
817.5	65.9698
818	65.345
818.5	64.6885
819	64.4254
819.5	64.9659
820	66.0393
820.5	67.2061
821	67.7967
821.5	67.5824
822	66.6507
822.5	65.355
823	64.2255
823.5	63.5225
824	63.3694
824.5	63.5398
825	63.8448
825.5	64.0975
826	64.1689
826.5	63.984
827	63.476
827.5	62.7753
828	62.0723
828.5	61.6661
829	61.7214
829.5	62.2466
830	63.1302
830.5	64.0545
831	64.7696
831.5	65.0309
832	64.8005
832.5	64.1279
833	63.1035
833.5	62.0042
834	61.1121
834.5	60.7539
835	61.001
835.5	61.6982
836	62.5439
836.5	63.1636
837	63.3975
837.5	63.2703
838	63.0445
838.5	62.9292
839	62.9826
839.5	63.0527
840	62.9633
840.5	62.6331
841	62.215
841.5	61.9577
842	62.0897
842.5	62.5993
843	63.243
843.5	63.6839
844	63.6438
844.5	63.1072
845	62.2043
845.5	61.2626
846	60.5669
846.5	60.2831
847	60.3275
847.5	60.4058
848	60.1793
848.5	59.4192
849	58.2495
849.5	57.0153
850	56.267
850.5	56.3199
851	57.2565
851.5	58.7229
852	60.1011
852.5	60.8844
853	60.8102
853.5	60.1261
854	59.1721
854.5	58.3746
855	57.9728
855.5	58.0757
856	58.6949
856.5	59.6671
857	60.8484
857.5	61.9782
858	62.7749
858.5	62.9997
859	62.5264
859.5	61.6308
860	60.6433
860.5	59.9999
861	59.896
861.5	60.3581
862	61.2476
862.5	62.2251
863	63.0456
863.5	63.459
864	63.4383
864.5	63.0048
865	62.2744
865.5	61.5471
866	61.0817
866.5	61.1832
867	61.8063
867.5	62.7938
868	63.773
868.5	64.3178
869	64.1586
869.5	63.1154
870	61.6332
870.5	60.1773
871	59.3909
871.5	59.4336
872	60.1462
872.5	60.997
873	61.3198
873.5	60.8061
874	59.4959
874.5	58.0947
875	57.1906
875.5	57.2278
876	57.8644
876.5	58.5728
877	58.7726
877.5	58.4151
878	57.83
878.5	57.5847
879	57.9747
879.5	58.9039
880	60.0068
880.5	60.843
881	61.2485
881.5	61.2099
882	60.8721
882.5	60.2505
883	59.2201
883.5	57.864
884	56.5086
884.5	55.7832
885	56.1296
885.5	57.4942
886	59.3752
886.5	60.846
887	61.3494
887.5	60.7935
888	59.8966
888.5	59.4431
889	59.9347
889.5	61.0731
890	62.1285
890.5	62.3752
891	61.7021
891.5	60.6763
892	60.1527
892.5	60.7602
893	62.3819
893.5	64.4476
894	66.0523
894.5	66.6885
895	66.2322
895.5	65.1121
896	63.8989
896.5	62.9383
897	62.2922
897.5	61.7932
898	61.2985
898.5	60.7573
899	60.2165
899.5	59.7243
900	59.2824
900.5	58.8706
901	58.538
901.5	58.4399
902	58.6931
902.5	59.353
903	60.2798
903.5	61.1685
904	61.7558
904.5	61.8846
905	61.6652
905.5	61.2183
906	60.6462
906.5	59.9973
907	59.2909
907.5	58.6634
908	58.3468
908.5	58.5874
909	59.4944
909.5	60.6865
910	61.6476
910.5	61.7189
911	60.8192
911.5	59.1993
912	57.549
912.5	56.5812
913	56.6519
913.5	57.7612
914	59.2336
914.5	60.5413
915	61.2539
915.5	61.4811
916	61.4462
916.5	61.3747
917	61.2908
917.5	61.0254
918	60.286
918.5	59.1203
919	57.7392
919.5	56.5839
920	55.9499
920.5	55.8879
921	56.2165
921.5	56.4852
922	56.442
922.5	56.0255
923	55.5696
923.5	55.419
924	55.9315
924.5	56.9944
925	58.3303
925.5	59.5031
926	60.2101
926.5	60.4099
927	60.2763
927.5	60.2066
928	60.4428
928.5	61.0384
929	61.6503
929.5	61.8551
930	61.1697
930.5	59.6509
931	57.7018
931.5	56.0373
932	55.29
932.5	55.6355
933	56.8682
933.5	58.177
934	58.8725
934.5	58.4561
935	57.1504
935.5	55.5074
936	54.1602
936.5	53.5136
937	53.5996
937.5	54.352
938	55.5357
938.5	56.9682
939	58.4866
939.5	59.7901
940	60.5433
940.5	60.3587
941	59.2382
941.5	57.6122
942	56.1316
942.5	55.4743
943	55.8461
943.5	57.1324
944	58.7361
944.5	60.0488
945	60.6636
945.5	60.5586
946	60.0677
946.5	59.5667
947	59.4137
947.5	59.7307
948	60.5238
948.5	61.5999
949	62.6617
949.5	63.4548
950	63.8415
950.5	63.9344
951	63.9038
951.5	63.9132
952	63.9495
952.5	63.8509
953	63.4431
953.5	62.8295
954	62.3456
954.5	62.5176
955	63.5082
955.5	65.1568
956	66.8375
956.5	67.8882
957	67.9923
957.5	67.3614
958	66.786
958.5	66.9389
959	68.2334
959.5	70.215
960	72.2378
960.5	73.4689
961	73.6485
961.5	72.87
962	71.6032
962.5	70.5641
963	70.1914
963.5	70.6584
964	71.4582
964.5	71.9949
965	71.4818
965.5	69.8475
966	67.4017
966.5	64.9972
967	63.5377
967.5	63.4556
968	64.7784
968.5	66.5282
969	67.9838
969.5	68.5833
970	68.6024
970.5	68.4521
971	68.5206
971.5	68.76
972	68.909
972.5	68.7074
973	68.3737
973.5	68.3645
974	69.3156
974.5	71.1819
975	73.5342
975.5	75.6074
976	76.8911
976.5	77.3894
977	77.4871
977.5	77.7687
978	78.406
978.5	79.1176
979	79.3593
979.5	78.8178
980	77.4484
980.5	75.7782
981	74.2985
981.5	73.3479
982	72.7865
982.5	72.2782
983	71.4773
983.5	70.3423
984	69.1142
984.5	68.2049
985	67.8793
985.5	68.0872
986	68.5605
986.5	68.8635
987	68.7677
987.5	68.2721
988	67.684
988.5	67.2843
989	67.1567
989.5	67.0251
990	66.4897
990.5	65.1851
991	63.1931
991.5	61.0137
992	59.307
992.5	58.5499
993	58.6956
993.5	59.4461
994	60.2397
994.5	60.7
995	60.7125
995.5	60.4555
996	60.1845
996.5	60.0197
997	59.907
997.5	59.7107
998	59.3535
998.5	58.9087
999	58.5461
999.5	58.3941
1000	58.4283
1000.5	58.4534
1001	58.2659
1001.5	57.7729
1002	57.1343
1002.5	56.6016
1003	56.4516
1003.5	56.7295
1004	57.3828
1004.5	58.275
1005	59.2728
1005.5	60.3319
1006	61.3619
1006.5	62.1726
1007	62.473
1007.5	61.9194
1008	60.5886
1008.5	58.6939
1009	56.6943
1009.5	55.0669
1010	54.1008
1010.5	53.9869
1011	54.5412
1011.5	55.661
1012	57.2161
1012.5	58.8663
1013	60.2669
1013.5	60.9274
1014	60.7728
1014.5	59.9337
1015	58.8468
1015.5	58.0965
1016	57.94
1016.5	58.335
1017	58.7693
1017.5	58.8623
1018	58.3485
1018.5	57.5323
1019	56.8124
1019.5	56.7655
1020	57.5428
1020.5	59.0706
1021	61.0075
1021.5	62.6784
1022	63.56
1022.5	63.1349
1023	61.7411
1023.5	59.9641
1024	58.754
1024.5	58.7098
1025	59.8617
1025.5	61.6868
1026	63.1097
1026.5	63.4577
1027	62.5504
1027.5	61.2058
1028	60.2249
1028.5	60.2025
1029	60.8352
1029.5	61.4621
1030	61.332
1030.5	60.3403
1031	58.921
1031.5	57.8205
1032	57.5693
1032.5	58.1817
1033	59.3772
1033.5	60.6346
1034	61.6892
1034.5	62.4739
1035	63.0475
1035.5	63.3715
1036	63.2312
1036.5	62.5486
1037	61.5379
1037.5	60.6886
1038	60.5162
1038.5	61.1476
1039	62.37
1039.5	63.5471
1040	64.1766
1040.5	64.0347
1041	63.4326
1041.5	62.9024
1042	62.9108
1042.5	63.5907
1043	64.6805
1043.5	65.796
1044	66.5261
1044.5	66.7194
1045	66.3906
1045.5	65.8264
1046	65.41
1046.5	65.4836
1047	66.1477
1047.5	67.1363
1048	68.0846
1048.5	68.6502
1049	68.8614
1049.5	69.0277
1050	69.6577
1050.5	70.9607
1051	72.8343
1051.5	74.7892
1052	76.3503
1052.5	77.3734
1053	78.1917
1053.5	79.4103
1054	81.5144
1054.5	84.6888
1055	88.5123
1055.5	92.591
1056	96.5931
1056.5	100.471
1057	104.324
1057.5	108.287
1058	112.428
1058.5	116.86
1059	121.886
1059.5	127.733
1060	134.644
1060.5	142.712
1061	151.374
1061.5	160.057
1062	168.022
1062.5	174.972
1063	180.786
1063.5	185.296
1064	188.622
1064.5	190.443
1065	189.759
1065.5	186.494
1066	180.599
1066.5	172.275
1067	163.028
1067.5	153.929
1068	146.046
1068.5	139.392
1069	133.652
1069.5	128.38
1070	123.244
1070.5	118.408
1071	114.434
1071.5	111.481
1072	109.386
1072.5	107.61
1073	105.424
1073.5	102.503
1074	98.9133
1074.5	95.2725
1075	92.0527
1075.5	89.6291
1076	87.8603
1076.5	86.5038
1077	85.3153
1077.5	84.1034
1078	82.8663
1078.5	81.8217
1079	81.3223
1079.5	81.714
1080	83.3788
1080.5	86.0278
1081	89.0432
1081.5	91.4957
1082	92.6437
1082.5	92.354
1083	90.8281
1083.5	88.7713
1084	86.6779
1084.5	84.772
1085	83.0726
1085.5	81.6412
1086	80.8164
1086.5	80.9404
1087	82.0725
1087.5	83.9966
1088	86.0067
1088.5	87.5336
1089	88.3949
1089.5	89.1021
1090	90.4204
1090.5	92.958
1091	96.4993
1091.5	100.204
1092	103.107
1092.5	104.68
1093	105.29
1093.5	105.766
1094	107.165
1094.5	109.943
1095	114.142
1095.5	119.258
1096	124.706
1096.5	130.295
1097	136.102
1097.5	142.19
1098	148.384
1098.5	154.129
1099	158.957
1099.5	162.58
1100	165.152
1100.5	167.254
1101	169.262
1101.5	171.255
1102	172.939
1102.5	173.78
1103	173.151
1103.5	170.947
1104	167.084
1104.5	161.73
1105	155.618
1105.5	149.442
1106	144.079
1106.5	139.888
1107	136.925
1107.5	134.88
1108	133.085
1108.5	131.206
1109	129.197
1109.5	127.3
1110	125.73
1110.5	124.586
1111	123.705
1111.5	123.055
1112	122.922
1112.5	123.659
1113	125.668
1113.5	129.173
1114	133.54
1114.5	138.242
1115	142.797
1115.5	147.157
1116	151.601
1116.5	156.738
1117	162.849
1117.5	170.002
1118	178.008
1118.5	186.015
1119	193.178
1119.5	198.14
1120	200.432
1120.5	199.929
1121	196.85
1121.5	192.643
1122	188.33
1122.5	184.726
1123	181.773
1123.5	178.988
1124	175.623
1124.5	171.374
1125	166.39
1125.5	161.128
1126	156.111
1126.5	151.461
1127	146.967
1127.5	142.293
1128	137.462
1128.5	132.998
1129	129.566
1129.5	127.495
1130	126.703
1130.5	126.199
1131	125.024
1131.5	122.423
1132	118.694
1132.5	114.7
1133	111.579
1133.5	110.001
1134	109.928
1134.5	110.929
1135	112.257
1135.5	113.528
1136	114.697
1136.5	115.923
1137	117.298
1137.5	118.772
1138	120.16
1138.5	121.335
1139	122.271
1139.5	123.075
1140	123.837
1140.5	124.496
1141	124.845
1141.5	124.73
1142	124.071
1142.5	123.063
1143	122.045
1143.5	121.309
1144	120.934
1144.5	120.692
1145	120.203
1145.5	119.062
1146	117.155
1146.5	114.486
1147	111.281
1147.5	107.881
1148	104.54
1148.5	101.486
1149	98.8212
1149.5	96.6121
1150	94.7794
1150.5	93.0676
1151	91.2611
1151.5	89.266
1152	87.2494
1152.5	85.4854
1153	84.2018
1153.5	83.2395
1154	82.2495
1154.5	80.8578
1155	79.1491
1155.5	77.5452
1156	76.7449
1156.5	76.9661
1157	78.0315
1157.5	79.2506
1158	79.8483
1158.5	79.4352
1159	78.0355
1159.5	76.3016
1160	74.7533
1160.5	73.8095
1161	73.4874
1161.5	73.8498
1162	75.1405
1162.5	77.3178
1163	80.3169
1163.5	83.8426
1164	87.2716
1164.5	90.2011
1165	92.3793
1165.5	94.1414
1166	95.8145
1166.5	97.662
1167	99.5671
1167.5	101.241
1168	102.196
1168.5	102.307
1169	101.559
1169.5	99.9573
1170	97.8645
1170.5	95.517
1171	93.1762
1171.5	91.0746
1172	89.3547
1172.5	88.1395
1173	87.2883
1173.5	86.6826
1174	86.2125
1174.5	85.7399
1175	85.1646
1175.5	84.3626
1176	83.33
1176.5	82.1579
1177	81.0681
1177.5	80.2939
1178	79.9309
1178.5	79.9084
1179	79.9451
1179.5	79.8989
1180	79.8532
1180.5	80.0744
1181	80.7204
1181.5	81.6635
1182	82.294
1182.5	81.959
1183	80.0223
1183.5	76.6785
1184	72.6316
1184.5	68.8053
1185	65.9056
1185.5	64.106
1186	63.4124
1186.5	63.4836
1187	63.969
1187.5	64.5634
1188	64.8712
1188.5	64.5817
1189	63.4519
1189.5	61.6715
1190	59.7763
1190.5	58.3654
1191	57.7707
1191.5	57.847
1192	58.2801
1192.5	58.6707
1193	58.8633
1193.5	58.9181
1194	59.0073
1194.5	59.2015
1195	59.4326
1195.5	59.5468
1196	59.5056
1196.5	59.3945
1197	59.4086
1197.5	59.6767
1198	60.222
1198.5	60.8716
1199	61.3178
1199.5	61.2163
1200	60.2975
1200.5	58.7093
1201	56.8056
1201.5	55.2584
1202	54.5176
1202.5	54.7423
1203	55.6353
1203.5	56.5028
1204	56.8241
1204.5	56.3789
1205	55.5861
1205.5	54.9864
1206	55.1598
1206.5	56.12
1207	57.5817
1207.5	59.0582
1208	60.1736
1208.5	60.7828
1209	60.8811
1209.5	60.6887
1210	60.3191
1210.5	59.8357
1211	59.2992
1211.5	58.7528
1212	58.2732
1212.5	57.8881
1213	57.5672
1213.5	57.1787
1214	56.5813
1214.5	55.705
1215	54.6097
1215.5	53.6006
1216	52.9597
1216.5	52.9716
1217	53.4168
1217.5	53.9483
1218	54.1098
1218.5	53.8127
1219	53.2289
1219.5	52.7733
1220	52.7683
1220.5	53.2653
1221	54.0702
1221.5	54.746
1222	55.0061
1222.5	54.6719
1223	54.0041
1223.5	53.2867
1224	52.8923
1224.5	53.0349
1225	53.7614
1225.5	54.9664
1226	56.2012
1226.5	57.0508
1227	57.1247
1227.5	56.5586
1228	55.8017
1228.5	55.4675
1229	55.9303
1229.5	57.2132
1230	59.1596
1230.5	61.3209
1231	63.3573
1231.5	64.9722
1232	66.0272
1232.5	66.4683
1233	66.2895
1233.5	65.7511
1234	65.1677
1234.5	64.8492
1235	64.9189
1235.5	65.2723
1236	65.6991
1236.5	65.9561
1237	65.9304
1237.5	65.5424
1238	64.8147
1238.5	63.7997
1239	62.5511
1239.5	61.2653
1240	60.186
1240.5	59.5513
1241	59.3951
1241.5	59.5053
1242	59.6094
1242.5	59.4831
1243	59.1777
1243.5	58.9114
1244	58.9487
1244.5	59.3643
1245	60.1129
1245.5	61.02
1246	61.9324
1246.5	62.8144
1247	63.7171
1247.5	64.7059
1248	65.8362
1248.5	67.1845
1249	68.8216
1249.5	70.846
1250	73.2074
1250.5	75.5418
1251	77.2787
1251.5	77.6745
1252	76.514
1252.5	73.8763
1253	70.3786
1253.5	66.9032
1254	64.0424
1254.5	62.1891
1255	61.18
1255.5	60.8345
1256	60.879
1256.5	60.919
1257	60.5927
1257.5	59.542
1258	57.8561
1258.5	55.8119
1259	53.9907
1259.5	52.8555
1260	52.5833
1260.5	53.0479
1261	53.6896
1261.5	54.1675
1262	54.3712
1262.5	54.5465
1263	54.8693
1263.5	55.3352
1264	55.6563
1264.5	55.5501
1265	54.7841
1265.5	53.6512
1266	52.5002
1266.5	51.7802
1267	51.4869
1267.5	51.4313
1268	51.3066
1268.5	50.9747
1269	50.5313
1269.5	50.2469
1270	50.2467
1270.5	50.4096
1271	50.3196
1271.5	49.7201
1272	48.7082
1272.5	47.7527
1273	47.37
1273.5	47.6977
1274	48.4384
1274.5	48.8667
1275	48.52
1275.5	47.2477
1276	45.6833
1276.5	44.3982
1277	43.8487
1277.5	44.0421
1278	44.8678
1278.5	46.2612
1279	47.9101
1279.5	49.396
1280	50.2166
1280.5	50.7212
1281	52.2545
1281.5	57.4747
1282	68.0968
1282.5	83.7098
1283	101.658
1283.5	116.468
1284	123.622
1284.5	119.09
1285	105.353
1285.5	87.4393
1286	70.2887
1286.5	57.4651
1287	49.4267
1287.5	45.4675
1288	43.7209
1288.5	42.9774
1289	43.1613
1289.5	44.3299
1290	46.154
1290.5	47.9334
1291	48.8207
1291.5	48.5782
1292	47.4691
1292.5	46.31
1293	45.7676
1293.5	46.057
1294	46.7547
1294.5	47.3186
1295	47.4929
1295.5	47.4339
1296	47.5152
1296.5	47.9506
1297	48.5594
1297.5	48.8421
1298	48.3865
1298.5	47.2368
1299	45.9526
1299.5	45.0864
1300	44.9358
1300.5	45.187
1301	45.3954
1301.5	45.2389
1302	44.9552
1302.5	45.0368
1303	45.8182
1303.5	46.8848
1304	47.4489
1304.5	46.5553
1305	44.2762
1305.5	41.3216
1306	39.2303
1306.5	39.0454
1307	40.8715
1307.5	43.9137
1308	46.6465
1308.5	48.1177
1309	47.9249
1309.5	46.9279
1310	45.9655
1310.5	45.8442
1311	46.4092
1311.5	47.2514
1312	47.8098
1312.5	47.8666
1313	47.473
1313.5	46.8309
1314	46.2054
1314.5	45.6871
1315	45.2705
1315.5	44.8904
1316	44.5398
1316.5	44.2851
1317	44.2037
1317.5	44.377
1318	44.9019
1318.5	45.6644
1319	46.4905
1319.5	47.1086
1320	47.3888
1320.5	47.3435
1321	47.1137
1321.5	46.9508
1322	46.9782
1322.5	47.1901
1323	47.3764
1323.5	47.3548
1324	46.9797
1324.5	46.3286
1325	45.5414
1325.5	44.8123
1326	44.3093
1326.5	44.1194
1327	44.2906
1327.5	44.6645
1328	45.0792
1328.5	45.3615
1329	45.4182
1329.5	45.2447
1330	44.8738
1330.5	44.4337
1331	44.0638
1331.5	43.9313
1332	44.1256
1332.5	44.6383
1333	45.3987
1333.5	46.1961
1334	46.8282
1334.5	47.0874
1335	46.89
1335.5	46.3288
1336	45.5376
1336.5	44.7976
1337	44.374
1337.5	44.495
1338	45.1079
1338.5	45.8907
1339	46.4094
1339.5	46.4058
1340	46.0133
1340.5	45.5751
1341	45.4969
1341.5	45.872
1342	46.5253
1342.5	47.0277
1343	47.087
1343.5	46.6548
1344	45.924
1344.5	45.1544
1345	44.4958
1345.5	44.0013
1346	43.6384
1346.5	43.3897
1347	43.2098
1347.5	43.0338
1348	42.8242
1348.5	42.6044
1349	42.4518
1349.5	42.4254
1350	42.4723
1350.5	42.4081
1351	42.0734
1351.5	41.4672
1352	40.8388
1352.5	40.479
1353	40.6527
1353.5	41.3059
1354	42.3271
1354.5	43.5488
1355	44.7999
1355.5	45.965
1356	46.837
1356.5	47.2803
1357	47.2272
1357.5	46.8021
1358	46.411
1358.5	46.327
1359	46.5674
1359.5	46.7575
1360	46.5288
1360.5	45.6013
1361	44.2622
1361.5	42.8824
1362	41.8858
1362.5	41.2443
1363	40.7938
1363.5	40.3791
1364	40.0325
1364.5	39.9384
1365	40.3727
1365.5	41.2564
1366	42.4181
1366.5	43.7079
1367	45.0779
1367.5	46.5588
1368	48.0555
1368.5	49.2324
1369	49.6678
1369.5	48.8578
1370	47.1165
1370.5	44.862
1371	42.6576
1371.5	40.964
1372	40.011
1372.5	40.0412
1373	40.8756
1373.5	42.1669
1374	43.3859
1374.5	44.0422
1375	44.0073
1375.5	43.5229
1376	43.2109
1376.5	43.4355
1377	44.0511
1377.5	44.4361
1378	44.2152
1378.5	43.424
1379	42.6675
1379.5	42.434
1380	42.9181
1380.5	43.7641
1381	44.6945
1381.5	45.7702
1382	47.0643
1382.5	48.2805
1383	48.6775
1383.5	48.0969
1384	48.096
1384.5	52.6477
1385	65.6043
1385.5	87.6706
1386	116.424
1386.5	143.726
1387	161.052
1387.5	159.981
1388	141.75
1388.5	113.842
1389	84.6864
1389.5	62.3764
1390	49.4836
1390.5	45.5498
1391	46.4611
1391.5	47.836
1392	47.9218
1392.5	46.8267
1393	45.5412
1393.5	44.6577
1394	44.1095
1394.5	43.4934
1395	42.7911
1395.5	42.5377
1396	43.1995
1396.5	44.8242
1397	46.6583
1397.5	47.6714
1398	47.1648
1398.5	45.5866
1399	44.1656
1399.5	43.8725
1400	44.9734
1400.5	46.5246
1401	47.3725
1401.5	46.5029
1402	44.4767
1402.5	42.3524
1403	41.4984
1403.5	42.3113
1404	44.4935
1404.5	47.0019
1405	48.7154
1405.5	49.3183
1406	49.3031
1406.5	49.6969
1407	51.1301
1407.5	53.5772
1408	55.8646
1408.5	56.6629
1409	54.8708
1409.5	51.2292
1410	46.863
1410.5	43.4461
1411	41.8184
1411.5	42.043
1412	43.4845
1412.5	44.8944
1413	45.7593
1413.5	45.9019
1414	45.7084
1414.5	45.4314
1415	45.2126
1415.5	45.0375
1416	44.8823
1416.5	44.7377
1417	44.5387
1417.5	44.1488
1418	43.3335
1418.5	42.1386
1419	40.8253
1419.5	39.8628
1420	39.4769
1420.5	39.5912
1421	39.849
1421.5	39.7996
1422	39.312
1422.5	38.6259
1423	38.1671
1423.5	38.1213
1424	38.4181
1424.5	38.6832
1425	38.6505
1425.5	38.2614
1426	37.7915
1426.5	37.4788
1427	37.4999
1427.5	37.8258
1428	38.3648
1428.5	39.0081
1429	39.5776
1429.5	39.9507
1430	40.1018
1430.5	40.2742
1431	40.8048
1431.5	41.9965
1432	43.5821
1432.5	44.8404
1433	44.9136
1433.5	43.5472
1434	41.2443
1434.5	38.9325
1435	37.6408
1435.5	37.6173
1436	38.5766
1436.5	39.8122
1437	40.8193
1437.5	41.4082
1438	41.6899
1438.5	41.844
1439	41.9357
1439.5	41.9627
1440	41.9342
1440.5	41.8853
1441	41.8689
1441.5	41.9169
1442	42.0484
1442.5	42.2509
1443	42.4493
1443.5	42.4857
1444	42.1563
1444.5	41.4209
1445	40.4257
1445.5	39.5645
1446	39.1194
1446.5	39.1632
1447	39.4645
1447.5	39.6624
1448	39.5583
1448.5	39.2856
1449	39.1483
1449.5	39.3526
1450	39.8968
1450.5	40.514
1451	40.9306
1451.5	40.9546
1452	40.6706
1452.5	40.1788
1453	39.6002
1453.5	39.0532
1454	38.6523
1454.5	38.6099
1455	39.0044
1455.5	39.876
1456	41.1019
1456.5	42.2903
1457	43.0646
1457.5	43.014
1458	42.3791
1458.5	41.5255
1459	40.9954
1459.5	41.0234
1460	41.5157
1460.5	41.9776
1461	41.8556
1461.5	40.941
1462	39.2934
1462.5	37.4943
1463	35.9938
1463.5	35.3095
1464	35.4284
1464.5	36.2195
1465	37.5088
1465.5	38.8687
1466	39.978
1466.5	40.471
1467	40.417
1467.5	40.0984
1468	39.8948
1468.5	40.0136
1469	40.4008
1469.5	40.791
1470	40.9101
1470.5	40.7481
1471	40.4687
1471.5	40.2993
1472	40.3098
1472.5	40.4387
1473	40.5255
1473.5	40.4873
1474	40.2553
1474.5	39.7921
1475	39.0592
1475.5	38.1012
1476	37.2749
1476.5	36.9917
1477	37.584
1477.5	38.746
1478	39.8665
1478.5	40.2054
1479	39.5803
1479.5	38.5001
1480	37.6802
1480.5	37.4959
1481	37.7461
1481.5	37.9441
1482	37.7806
1482.5	37.5459
1483	37.8382
1483.5	38.9141
1484	40.3853
1484.5	41.4133
1485	41.2173
1485.5	39.9203
1486	38.1381
1486.5	36.7163
1487	36.0117
1487.5	35.9379
1488	36.0025
1488.5	35.8728
1489	35.5821
1489.5	35.4142
1490	35.5771
1490.5	36.1051
1491	36.7517
1491.5	37.1904
1492	37.2141
1492.5	36.8563
1493	36.4137
1493.5	36.2628
1494	36.7374
1494.5	37.6642
1495	38.6707
1495.5	39.2244
1496	39.0961
1496.5	38.3136
1497	37.243
1497.5	36.3225
1498	35.7816
1498.5	35.7612
1499	36.2539
1499.5	37.3028
1500	38.7153
1500.5	39.931
1501	40.3772
1501.5	39.6454
1502	38.1604
1502.5	36.6544
1503	36.0378
1503.5	36.3581
1504	37.2176
1504.5	37.9016
1505	38.0303
1505.5	37.6764
1506	37.2728
1506.5	37.0625
1507	36.9406
1507.5	36.6061
1508	35.9971
1508.5	35.3695
1509	35.2698
1509.5	35.8774
1510	37.0963
1510.5	38.5484
1511	39.7117
1511.5	40.2792
1512	40.0372
1512.5	39.1843
1513	37.8975
1513.5	36.5253
1514	35.5883
1514.5	35.4474
1515	36.2832
1515.5	37.584
1516	38.8299
1516.5	39.4057
1517	39.1997
1517.5	38.4084
1518	37.2978
1518.5	36.1393
1519	35.0458
1519.5	34.1992
1520	33.8301
1520.5	34.0957
1521	35.0753
1521.5	36.3569
1522	37.4907
1522.5	37.9941
1523	37.9089
1523.5	37.5254
1524	37.1356
1524.5	36.866
1525	36.6611
1525.5	36.4821
1526	36.3412
1526.5	36.803
1527	37.9701
1527.5	39.3639
1528	40.3635
1528.5	40.4606
1529	39.7319
1529.5	38.53
1530	37.152
1530.5	35.8629
1531	34.8313
1531.5	34.3093
1532	34.4358
1532.5	35.3545
1533	36.6123
1533.5	37.5896
1534	37.8229
1534.5	37.3636
1535	36.6256
1535.5	36.4937
1536	37.079
1536.5	37.9565
1537	38.4509
1537.5	38.1633
1538	37.2414
1538.5	36.4311
1539	36.3075
1539.5	36.8844
1540	37.7083
1540.5	38.0057
1541	37.4247
1541.5	36.2424
1542	35.1147
1542.5	34.5852
1543	34.8784
1543.5	35.6208
1544	36.2471
1544.5	36.4768
1545	36.5033
1545.5	36.7054
1546	37.5798
1546.5	38.9669
1547	40.4371
1547.5	41.3358
1548	41.2981
1548.5	40.1223
1549	38.2405
1549.5	36.3106
1550	34.9754
1550.5	34.5307
1551	34.9773
1551.5	36.0286
1552	37.0905
1552.5	37.8887
1553	38.4141
1553.5	38.8687
1554	39.4353
1554.5	39.9959
1555	40.2322
1555.5	39.7208
1556	38.4715
1556.5	36.6697
1557	34.7865
1557.5	33.1794
1558	31.9775
1558.5	31.1491
1559	30.6498
1559.5	30.6033
1560	31.0581
1560.5	31.9458
1561	33.1118
1561.5	34.3169
1562	35.4455
1562.5	36.4982
1563	37.5077
1563.5	38.3731
1564	38.8889
1564.5	38.9095
1565	38.3327
1565.5	37.4813
1566	36.6711
1566.5	36.1685
1567	36.0003
1567.5	36.1114
1568	36.3559
1568.5	36.6377
1569	36.9618
1569.5	37.3811
1570	37.946
1570.5	38.692
1571	39.4781
1571.5	40.0778
1572	40.2068
1572.5	39.7932
1573	38.8969
1573.5	37.9176
1574	37.2267
1574.5	36.9935
1575	36.9748
1575.5	36.8564
1576	36.3252
1576.5	35.4905
1577	34.714
1577.5	34.3987
1578	34.654
1578.5	35.4415
1579	36.4669
1579.5	37.5079
1580	38.4585
1580.5	39.2939
1581	39.9356
1581.5	40.2005
1582	39.9538
1582.5	39.1936
1583	38.1992
1583.5	37.3196
1584	36.9438
1584.5	37.1922
1585	37.928
1585.5	38.6647
1586	38.9492
1586.5	38.4982
1587	37.3514
1587.5	35.9527
1588	34.9342
1588.5	34.7125
1589	35.2887
1589.5	36.4376
1590	37.5817
1590.5	38.2315
1591	38.042
1591.5	37.1823
1592	35.906
1592.5	34.7024
1593	33.9872
1593.5	34.1918
1594	35.1357
1594.5	36.4298
1595	37.5078
1595.5	37.9808
1596	37.7067
1596.5	36.9223
1597	36.1144
1597.5	35.587
1598	35.4186
1598.5	35.5193
1599	35.8018
1599.5	36.1998
1600	36.69
1600.5	37.1696
1601	37.4477
1601.5	37.3034
1602	36.6195
1602.5	35.5901
1603	34.5976
1603.5	34.0354
1604	34.0881
1604.5	34.8245
1605	35.8848
1605.5	36.8755
1606	37.4319
1606.5	37.5229
1607	37.2696
1607.5	37.0056
1608	36.9958
1608.5	37.324
1609	37.7391
1609.5	38.0046
1610	37.9406
1610.5	37.6549
1611	37.3657
1611.5	37.3078
1612	37.4448
1612.5	37.5891
1613	37.4678
1613.5	36.9409
1614	35.9515
1614.5	34.7788
1615	33.6709
1615.5	32.8854
1616	32.5228
1616.5	32.6628
1617	33.3008
1617.5	34.3461
1618	35.7695
1618.5	37.4501
1619	39.2325
1619.5	40.8014
1620	41.775
1620.5	41.8367
1621	40.9627
1621.5	39.5039
1622	37.86
1622.5	36.4692
1623	35.5231
1623.5	35.0605
1624	34.9228
1624.5	35.0773
1625	35.5292
1625.5	36.1641
1626	36.7839
1626.5	37.0897
1627	37.0278
1627.5	36.7163
1628	36.4746
1628.5	36.5185
1629	36.9547
1629.5	37.5738
1630	38.201
1630.5	38.7641
1631	39.2962
1631.5	39.8154
1632	40.2481
1632.5	40.4718
1633	40.4142
1633.5	40.1964
1634	39.9515
1634.5	39.7743
1635	39.6095
1635.5	39.3144
1636	38.8005
1636.5	38.1551
1637	37.5409
1637.5	37.1325
1638	36.9941
1638.5	37.1324
1639	37.3583
1639.5	37.4956
1640	37.3292
1640.5	36.7885
1641	35.9057
1641.5	35.0095
1642	34.5396
1642.5	34.8756
1643	35.8931
1643.5	37.2169
1644	38.2397
1644.5	38.5926
1645	38.2403
1645.5	37.7098
1646	37.5024
1646.5	37.9383
1647	38.9009
1647.5	40.0333
1648	40.8367
1648.5	41.0893
1649	40.8079
1649.5	40.1377
1650	39.3131
1650.5	38.4708
1651	37.7033
1651.5	37.0473
1652	36.5418
1652.5	36.1871
1653	35.9542
1653.5	35.7824
1654	35.5956
1654.5	35.3905
1655	35.2914
1655.5	35.4442
1656	35.9917
1656.5	36.9213
1657	38.0937
1657.5	39.3169
1658	40.4019
1658.5	41.2649
1659	41.8063
1659.5	41.9906
1660	41.7546
1660.5	41.1725
1661	40.5226
1661.5	40.1651
1662	40.2407
1662.5	40.588
1663	40.7697
1663.5	40.3771
1664	39.2379
1664.5	37.6616
1665	36.2095
1665.5	35.2723
1666	34.9387
1666.5	35.0422
1667	35.4455
1667.5	36.0712
1668	36.8984
1668.5	37.7711
1669	38.366
1669.5	38.3827
1670	37.7771
1670.5	36.965
1671	36.585
1671.5	36.9554
1672	37.8791
1672.5	38.8568
1673	39.4034
1673.5	39.4033
1674	39.1344
1674.5	39.0079
1675	39.0967
1675.5	39.1278
1676	38.8438
1676.5	38.1986
1677	37.6212
1677.5	37.6296
1678	38.5168
1678.5	39.7881
1679	40.79
1679.5	40.7861
1680	39.6713
1680.5	37.7085
1681	35.8012
1681.5	34.6306
1682	34.6798
1682.5	35.7127
1683	37.333
1683.5	38.9392
1684	40.0238
1684.5	40.307
1685	39.9044
1685.5	39.1609
1686	38.4444
1686.5	38.0552
1687	38.0508
1687.5	38.3051
1688	38.4656
1688.5	38.3288
1689	37.8733
1689.5	37.3238
1690	36.9486
1690.5	36.9288
1691	37.1886
1691.5	37.4519
1692	37.4658
1692.5	37.1884
1693	36.7649
1693.5	36.4454
1694	36.3675
1694.5	36.4535
1695	36.4509
1695.5	36.1516
1696	35.5566
1696.5	34.8267
1697	34.2355
1697.5	34.0096
1698	34.2919
1698.5	35.0471
1699	36.0119
1699.5	36.9004
1700	37.4036
1700.5	37.424
1701	36.9916
1701.5	36.408
1702	35.9083
1702.5	35.6033
1703	35.4538
1703.5	35.4915
1704	35.8873
1704.5	36.7775
1705	38.1825
1705.5	39.5611
1706	40.2937
1706.5	39.7456
1707	38.0854
1707.5	35.8281
1708	33.9008
1708.5	33.0458
1709	33.5724
1709.5	35.1621
1710	37.1656
1710.5	38.8292
1711	39.4578
1711.5	38.753
1712	36.6922
1712.5	34.2963
1713	32.5286
1713.5	32.1355
1714	32.9006
1714.5	34.2233
1715	35.2161
1715.5	35.553
1716	35.5003
1716.5	35.7334
1717	36.4731
1717.5	37.4524
1718	38.0862
1718.5	37.9712
1719	37.15
1719.5	36.096
1720	35.2401
1720.5	34.7095
1721	34.4568
1721.5	34.5221
1722	34.9587
1722.5	35.7954
1723	36.7406
1723.5	37.2208
1724	36.8011
1724.5	35.6114
1725	34.2716
1725.5	33.5859
1726	33.9184
1726.5	35.0592
1727	36.2831
1727.5	36.9833
1728	37.0549
1728.5	36.8419
1729	36.7588
1729.5	36.9798
1730	37.2699
1730.5	37.2751
1731	36.7884
1731.5	36.1076
1732	35.5986
1732.5	35.5884
1733	35.9726
1733.5	36.4562
1734	36.6248
1734.5	36.3611
1735	35.8255
1735.5	35.3354
1736	35.0458
1736.5	34.9719
1737	34.9708
1737.5	34.9905
1738	35.1362
1738.5	35.5387
1739	36.2212
1739.5	36.9482
1740	37.4156
1740.5	37.2952
1741	36.6035
1741.5	35.5312
1742	34.4669
1742.5	33.7381
1743	33.5306
1743.5	33.8788
1744	34.6452
1744.5	35.6757
1745	36.6957
1745.5	37.4742
1746	37.768
1746.5	37.6799
1747	37.3963
1747.5	37.2358
1748	37.3783
1748.5	37.8036
1749	38.1498
1749.5	37.9666
1750	36.8747
1750.5	35.1902
1751	33.4861
1751.5	32.5836
1752	32.7639
1752.5	33.893
1753	35.2261
1753.5	35.9574
1754	35.663
1754.5	34.7015
1755	33.6416
1755.5	33.0304
1756	32.952
1756.5	33.2465
1757	33.6453
1757.5	34.0118
1758	34.3716
1758.5	34.7582
1759	35.1385
1759.5	35.4866
1760	35.8889
1760.5	36.4738
1761	37.2951
1761.5	38.0139
1762	38.1254
1762.5	37.2511
1763	35.6862
1763.5	34.0583
1764	33.1455
1764.5	33.1444
1765	33.7151
1765.5	33.9161
1766	33.2286
1766.5	31.7845
1767	30.3719
1767.5	29.6689
1768	29.9362
1768.5	30.8097
1769	31.8146
1769.5	32.6334
1770	33.3482
1770.5	34.1286
1771	34.8702
1771.5	35.2675
1772	34.993
1772.5	34.2017
1773	33.3349
1773.5	33.0224
1774	33.4268
1774.5	34.1996
1775	34.6688
1775.5	34.4547
1776	33.4988
1776.5	32.2966
1777	31.3298
1777.5	30.9849
1778	31.2267
1778.5	31.7977
1779	32.2705
1779.5	32.37
1780	31.9324
1780.5	31.2257
1781	30.6271
1781.5	30.5879
1782	31.1131
1782.5	31.8282
1783	32.1469
1783.5	31.9296
1784	31.4844
1784.5	31.4872
1785	32.2791
1785.5	33.6894
1786	34.8517
1786.5	35.0218
1787	34.1821
1787.5	33.0876
1788	32.529
1788.5	32.8211
1789	33.6161
1789.5	34.2481
1790	34.2434
1790.5	33.5568
1791	32.4667
1791.5	31.3002
1792	30.2073
1792.5	29.3714
1793	29.002
1793.5	29.3667
1794	30.338
1794.5	31.5008
1795	32.1806
1795.5	32.2039
1796	31.8269
1796.5	31.6199
1797	31.8708
1797.5	32.4857
1798	32.961
1798.5	32.9312
1799	32.2746
1799.5	31.4071
1800	30.7433
1800.5	30.5985
1801	30.9296
1801.5	31.6252
1802	32.4316
1802.5	33.0693
1803	33.2361
1803.5	32.8065
1804	31.9046
1804.5	30.8684
1805	30.0567
1805.5	29.6489
1806	29.7295
1806.5	30.2484
1807	31.2318
1807.5	32.5576
1808	33.8827
1808.5	34.5903
1809	34.3767
1809.5	33.4235
1810	32.4014
1810.5	32.0356
1811	32.6132
1811.5	33.7462
1812	34.6501
1812.5	34.6548
1813	33.7342
1813.5	32.4279
1814	31.3539
1814.5	30.8342
1815	30.9063
1815.5	31.472
1816	32.3187
1816.5	33.3144
1817	34.2553
1817.5	34.9132
1818	35.0268
1818.5	34.5478
1819	33.5897
1819.5	32.4344
1820	31.5435
1820.5	31.3002
1821	31.8982
1821.5	32.9741
1822	33.8709
1822.5	33.8397
1823	32.8017
1823.5	31.1439
1824	29.723
1824.5	29.0442
1825	29.2295
1825.5	29.8125
1826	30.47
1826.5	31.1782
1827	32.1595
1827.5	33.4855
1828	34.7335
1828.5	35.4155
1829	35.1454
1829.5	34.3124
1830	33.4315
1830.5	32.9439
1831	32.6766
1831.5	32.1083
1832	30.8422
1832.5	29.201
1833	27.9757
1833.5	27.8603
1834	28.9554
1834.5	30.8035
1835	32.4963
1835.5	33.4733
1836	33.6596
1836.5	33.4823
1837	33.2972
1837.5	33.1276
1838	32.7957
1838.5	32.1939
1839	31.6155
1839.5	31.4735
1840	32.11
1840.5	33.2291
1841	34.2592
1841.5	34.548
1842	34.1609
1842.5	33.6114
1843	33.5555
1843.5	34.1481
1844	35.0342
1844.5	35.5037
1845	35.105
1845.5	33.8463
1846	32.2875
1846.5	31.046
1847	30.5099
1847.5	30.629
1848	31.1946
1848.5	31.7782
1849	32.0921
1849.5	31.9878
1850	31.7148
1850.5	31.6828
1851	32.3328
1851.5	33.6376
1852	35.1146
1852.5	35.9892
1853	35.8885
1853.5	34.7751
1854	33.308
1854.5	31.9928
1855	31.1252
1855.5	30.5455
1856	30.0344
1856.5	29.5413
1857	29.315
1857.5	29.7625
1858	30.9206
1858.5	32.5079
1859	33.9067
1859.5	34.6012
1860	34.3788
1860.5	33.5441
1861	32.7289
1861.5	32.4875
1862	32.8769
1862.5	33.4362
1863	33.5445
1863.5	33.0547
1864	32.2476
1864.5	31.7461
1865	31.8636
1865.5	32.4909
1866	33.0053
1866.5	32.9114
1867	32.0371
1867.5	30.9464
1868	30.2641
1868.5	30.4905
1869	31.4111
1869.5	32.6329
1870	33.5896
1870.5	33.9939
1871	33.765
1871.5	33.1776
1872	32.5838
1872.5	32.3481
1873	32.5623
1873.5	33.1012
1874	33.719
1874.5	34.2343
1875	34.6223
1875.5	34.9706
1876	35.3093
1876.5	35.5072
1877	35.3428
1877.5	34.722
1878	33.7402
1878.5	32.8481
1879	32.4102
1879.5	32.5981
1880	33.1688
1880.5	33.7788
1881	34.0389
1881.5	33.7911
1882	32.9776
1882.5	31.8352
1883	30.6235
1883.5	29.6945
1884	29.2681
1884.5	29.4242
1885	30.0318
1885.5	30.8386
1886	31.6495
1886.5	32.3377
1887	32.8496
1887.5	33.0687
1888	32.9384
1888.5	32.4579
1889	31.8425
1889.5	31.4777
1890	31.6819
1890.5	32.3223
1891	32.9099
1891.5	32.8366
1892	31.9519
1892.5	30.5812
1893	29.4321
1893.5	29.0036
1894	29.3619
1894.5	30.0459
1895	30.4996
1895.5	30.4426
1896	30.1299
1896.5	29.9391
1897	30.1053
1897.5	30.4653
1898	30.7889
1898.5	30.9379
1899	31.0516
1899.5	31.3368
1900	31.8624
1900.5	32.4207
1901	32.656
1901.5	32.3584
1902	31.6281
1902.5	30.783
1903	30.1563
1903.5	29.903
1904	30.0282
1904.5	30.3774
1905	30.7951
1905.5	31.0615
1906	31.0143
1906.5	30.5425
1907	29.8813
1907.5	29.4217
1908	29.7147
1908.5	30.7385
1909	32.1321
1909.5	33.1188
1910	33.1994
1910.5	32.2081
1911	30.7118
1911.5	29.3762
1912	28.8164
1912.5	28.9674
1913	29.4944
1913.5	29.8977
1914	30.005
1914.5	30.0215
1915	30.4072
1915.5	31.351
1916	32.7231
1916.5	33.9344
1917	34.5056
1917.5	34.1494
1918	33.2729
1918.5	32.3464
1919	31.764
1919.5	31.4426
1920	31.059
1920.5	30.3501
1921	29.4753
1921.5	28.9301
1922	29.0578
1922.5	29.8547
1923	30.9311
1923.5	31.7523
1924	31.9666
1924.5	31.54
1925	30.7399
1925.5	29.9118
1926	29.4357
1926.5	29.5178
1927	30.2546
1927.5	31.2674
1928	32.13
1928.5	32.4647
1929	32.3461
1929.5	32.0741
1930	32.029
1930.5	32.2487
1931	32.4589
1931.5	32.3161
1932	31.8016
1932.5	31.341
1933	31.4651
1933.5	32.4017
1934	33.6882
1934.5	34.4986
1935	34.1623
1935.5	32.8642
1936	31.2967
1936.5	30.383
1937	30.4292
1937.5	31.2432
1938	32.2146
1938.5	32.8578
1939	33.0119
1939.5	32.8222
1940	32.4274
1940.5	31.7926
1941	30.9208
1941.5	29.9979
1942	29.4628
1942.5	29.527
1943	30.1081
1943.5	30.733
1944	31.0061
1944.5	30.8266
1945	30.5472
1945.5	30.5294
1946	30.9986
1946.5	31.7624
1947	32.6006
1947.5	33.3295
1948	33.8818
1948.5	34.1201
1949	33.8484
1949.5	33.0481
1950	31.8997
1950.5	30.9039
1951	30.41
1951.5	30.5533
1952	30.9229
1952.5	31.0693
1953	30.5814
1953.5	29.484
1954	28.013
1954.5	26.7044
1955	25.9919
1955.5	26.2416
1956	27.1967
1956.5	28.3614
1957	29.1461
1957.5	29.4493
1958	29.5254
1958.5	29.813
1959	30.3516
1959.5	30.757
1960	30.5504
1960.5	29.7647
1961	29.0627
1961.5	29.2553
1962	30.589
1962.5	32.3835
1963	33.5121
1963.5	33.243
1964	32.0336
1964.5	30.991
1965	31.067
1965.5	32.0512
1966	33.1266
1966.5	33.2509
1967	32.317
1967.5	30.798
1968	29.624
1968.5	29.287
1969	29.8837
1969.5	30.9945
1970	32.2431
1970.5	33.3353
1971	34.0721
1971.5	34.2562
1972	33.7437
1972.5	32.8712
1973	32.1253
1973.5	31.9492
1974	32.2339
1974.5	32.4519
1975	32.0264
1975.5	30.9176
1976	29.6564
1976.5	28.9593
1977	29.0918
1977.5	29.654
1978	29.9867
1978.5	29.7755
1979	29.4268
1979.5	29.5423
1980	30.528
1980.5	31.8881
1981	32.916
1981.5	33.0348
1982	32.4905
1982.5	31.7867
1983	31.4815
1983.5	31.6617
1984	32.1225
1984.5	32.4333
1985	32.3262
1985.5	31.6204
1986	30.5356
1986.5	29.3761
1987	28.6149
1987.5	28.4837
1988	28.9832
1988.5	29.6839
1989	30.1433
1989.5	30.0527
1990	29.5795
1990.5	28.9555
1991	28.364
1991.5	27.8621
1992	27.5471
1992.5	27.6734
1993	28.4104
1993.5	29.7681
1994	31.2462
1994.5	32.2853
1995	32.3801
1995.5	31.7724
1996	30.929
1996.5	30.4339
1997	30.4032
1997.5	30.5981
1998	30.5206
1998.5	29.9495
1999	28.9987
1999.5	28.2185
2000	28.0178
2000.5	28.5821
2001	29.4569
2001.5	30.1201
2002	30.1587
2002.5	29.7477
2003	29.3645
2003.5	29.5136
2004	30.2095
2004.5	31.0726
2005	31.5885
2005.5	31.6348
2006	31.5212
2006.5	31.6653
2007	32.1512
2007.5	32.5644
2008	32.4639
2008.5	31.6638
2009	30.6127
2009.5	29.7869
2010	29.4471
2010.5	29.3078
2011	29.0651
2011.5	28.6038
2012	28.1567
2012.5	28.0462
2013	28.4356
2013.5	29.2312
2014	30.2696
2014.5	31.2972
2015	32.089
2015.5	32.2924
2016	31.7713
2016.5	30.5448
2017	29.0576
2017.5	27.8766
2018	27.4604
2018.5	27.772
2019	28.5026
2019.5	29.3247
2020	30.0762
2020.5	30.7529
2021	31.3074
2021.5	31.6119
2022	31.4859
2022.5	30.8879
2023	29.9637
2023.5	28.9234
2024	28.0413
2024.5	27.5168
2025	27.5539
2025.5	28.0356
2026	28.7095
2026.5	29.112
2027	29.0101
2027.5	28.483
2028	28.0683
2028.5	28.186
2029	28.9417
2029.5	29.7368
2030	29.9697
2030.5	29.3311
2031	28.3757
2031.5	27.9153
2032	28.5287
2032.5	29.9389
2033	31.385
2033.5	32.0197
2034	31.6271
2034.5	30.5338
2035	29.5913
2035.5	29.3581
2036	29.9606
2036.5	30.9034
2037	31.5631
2037.5	31.4576
2038	30.6348
2038.5	29.5331
2039	28.9014
2039.5	29.1801
2040	30.361
2040.5	31.6538
2041	32.2056
2041.5	31.4794
2042	29.8638
2042.5	28.1843
2043	27.2837
2043.5	27.2555
2044	27.597
2044.5	27.5799
2045	27.0686
2045.5	26.6026
2046	26.8464
2046.5	28.1114
2047	29.8819
2047.5	31.3082
2048	31.5398
2048.5	30.5472
2049	28.8179
2049.5	27.2593
2050	26.5886
2050.5	27.0987
2051	28.4636
2051.5	29.9601
2052	30.984
2052.5	31.443
2053	31.7172
2053.5	32.3486
2054	33.41
2054.5	34.5155
2055	34.9273
2055.5	34.3767
2056	33.0151
2056.5	31.5261
2057	30.4488
2057.5	30.0291
2058	29.9954
2058.5	30.0323
2059	29.9426
2059.5	29.8375
2060	29.9542
2060.5	30.5155
2061	31.3944
2061.5	32.1964
2062	32.3481
2062.5	31.6408
2063	30.2616
2063.5	29.0084
2064	28.4867
2064.5	28.9437
2065	29.8355
2065.5	30.5558
2066	30.6702
2066.5	30.2742
2067	29.6383
2067.5	29.0718
2068	28.6822
2068.5	28.5167
2069	28.5271
2069.5	28.6838
2070	28.9628
2070.5	29.4189
2071	30.2534
2071.5	31.5879
2072	33.1759
2072.5	34.345
2073	34.4525
2073.5	33.4253
2074	31.9157
2074.5	30.9427
2075	30.9633
2075.5	31.459
2076	31.4612
2076.5	30.3657
2077	28.7213
2077.5	27.5609
2078	27.9682
2078.5	29.7075
2079	31.9635
2079.5	33.5233
2080	33.9372
2080.5	33.3948
2081	32.7303
2081.5	32.5103
2082	32.7862
2082.5	32.9201
2083	32.3549
2083.5	30.8843
2084	29.2325
2084.5	28.2547
2085	28.6006
2085.5	29.9226
2086	31.4193
2086.5	32.1111
2087	31.7102
2087.5	30.4346
2088	29.0958
2088.5	28.2056
2089	27.9411
2089.5	27.9664
2090	27.9762
2090.5	27.8798
2091	27.8949
2091.5	28.3629
2092	29.3486
2092.5	30.612
2093	31.7049
2093.5	32.3534
2094	32.5229
2094.5	32.3364
2095	31.9042
2095.5	31.195
2096	30.302
2096.5	29.5161
2097	29.2699
2097.5	29.5952
2098	30.17
2098.5	30.4611
2099	30.341
2099.5	30.0604
2100	30.0395
2100.5	30.2889
2101	30.4728
2101.5	30.2644
2102	29.7816
2102.5	29.4844
2103	29.6087
2103.5	29.9287
2104	29.851
2104.5	29.1775
2105	28.2207
2105.5	27.7847
2106	28.3426
2106.5	30.0095
2107	32.1446
2107.5	34.0664
2108	34.9526
2108.5	34.5211
2109	32.7684
2109.5	30.3679
2110	28.3391
2110.5	27.546
2111	27.9814
2111.5	28.9264
2112	29.4515
2112.5	29.2407
2113	28.5758
2113.5	28.0306
2114	27.8371
2114.5	27.9168
2115	28.113
2115.5	28.4542
2116	29.0368
2116.5	29.6669
2117	30.001
2117.5	29.7237
2118	29.0876
2118.5	28.4375
2119	27.9846
2119.5	27.6191
2120	27.3454
2120.5	27.6104
2121	28.8599
2121.5	31.0805
2122	33.0261
2122.5	33.4843
2123	32.0122
2123.5	30.2212
2124	30.0892
2124.5	32.7269
2125	36.9081
2125.5	40.3691
2126	41.2717
2126.5	39.6388
2127	36.4874
2127.5	33.2369
2128	30.2463
2128.5	27.4176
2129	24.9354
2129.5	23.6028
2130	24.1879
2130.5	26.4157
2131	29.2539
2131.5	31.2799
2132	31.9781
2132.5	31.6244
2133	31.1351
2133.5	30.9309
2134	30.8383
2134.5	30.4255
2135	29.4763
2135.5	28.3675
2136	27.6432
2136.5	27.8095
2137	28.6738
2137.5	29.8205
2138	30.7542
2138.5	31.3939
2139	31.9507
2139.5	32.7
2140	33.5414
2140.5	33.9586
2141	33.3826
2141.5	31.6662
2142	29.1191
2142.5	26.6842
2143	25.1425
2143.5	25.0229
2144	26.0501
2144.5	27.6831
2145	29.0101
2145.5	29.4662
2146	28.795
2146.5	27.596
2147	26.5698
2147.5	26.4073
2148	27.0623
2148.5	28.1768
2149	29.1663
2149.5	29.7635
2150	29.9576
2150.5	29.9959
2151	30.0733
2151.5	30.3663
2152	30.9351
2152.5	31.7761
2153	32.6775
2153.5	33.2553
2154	33.0903
2154.5	32.0714
2155	30.5365
2155.5	29.0683
2156	28.1918
2156.5	27.9904
2157	28.099
2157.5	27.8778
2158	26.9637
2158.5	25.5972
2159	24.5479
2159.5	24.6722
2160	26.0909
2160.5	28.1012
2161	29.4335
2161.5	29.3184
2162	27.8494
2162.5	26.0476
2163	25.0522
2163.5	25.4339
2164	26.8578
2164.5	28.6037
2165	30.1466
2165.5	31.3491
2166	32.2014
2166.5	32.4531
2167	31.9366
2167.5	30.6775
2168	29.2791
2168.5	28.493
2169	28.7741
2169.5	29.7013
2170	30.465
2170.5	30.262
2171	29.1626
2171.5	27.7019
2172	26.7072
2172.5	26.5491
2173	27.2074
2173.5	28.1734
2174	28.8796
2174.5	28.8935
2175	28.3261
2175.5	27.6356
2176	27.4691
2176.5	27.8922
2177	28.4479
2177.5	28.2687
2178	27.1518
2178.5	25.6475
2179	25.0222
2179.5	25.9042
2180	28.1142
2180.5	30.2979
2181	31.4708
2181.5	31.2554
2182	30.392
2182.5	29.5129
2183	28.9051
2183.5	28.4142
2184	27.9249
2184.5	27.566
2185	27.4984
2185.5	27.7475
2186	28.084
2186.5	28.4247
2187	28.9176
2187.5	29.6809
2188	30.5703
2188.5	31.0514
2189	30.7354
2189.5	29.4823
2190	27.7835
2190.5	26.1254
2191	24.9522
2191.5	24.3999
2192	24.6073
2192.5	25.6014
2193	27.0159
2193.5	28.2124
2194	28.4621
2194.5	27.6324
2195	26.1777
2195.5	25.1737
2196	25.3254
2196.5	26.7977
2197	28.7845
2197.5	30.3983
2198	30.8715
2198.5	30.1365
2199	28.4121
2199.5	26.4219
2200	24.7655
2200.5	24.0542
2201	24.3377
2201.5	25.5158
2202	27.2108
2202.5	28.9224
2203	30.2283
2203.5	30.8905
2204	31.0011
2204.5	30.8507
2205	30.8615
2205.5	31.1446
2206	31.3599
2206.5	30.9287
2207	29.4405
2207.5	27.1031
2208	24.6924
2208.5	23.0555
2209	22.5605
2209.5	23.0259
2210	24.1364
2210.5	25.496
2211	26.966
2211.5	28.3745
2212	29.4722
2212.5	29.9569
2213	29.7239
2213.5	28.9879
2214	28.1148
2214.5	27.5472
2215	27.5098
2215.5	28.0341
2216	28.7339
2216.5	29.2456
2217	29.4172
2217.5	29.5618
2218	30.1453
2218.5	31.2098
2219	32.1872
2219.5	32.1125
2220	30.8525
2220.5	29.0815
2221	28.1426
2221.5	28.5456
2222	29.858
2222.5	30.7982
2223	30.7353
2223.5	29.9043
2224	29.3016
2224.5	29.3637
2225	29.7873
2225.5	29.8293
2226	29.2444
2226.5	28.4608
2227	28.0384
2227.5	28.1426
2228	28.3953
2228.5	28.4813
2229	28.4185
2229.5	28.5302
2230	28.9804
2230.5	29.7016
2231	30.494
2231.5	31.3172
2232	32.1686
2232.5	32.8705
2233	33.0122
2233.5	32.3796
2234	31.21
2234.5	30.1428
2235	29.7125
2235.5	29.9934
2236	30.6426
2236.5	31.2667
2237	31.7508
2237.5	32.1734
2238	32.5255
2238.5	32.575
2239	32.1373
2239.5	31.2838
2240	30.4071
2240.5	29.9352
2241	30.0279
2241.5	30.4578
2242	30.8471
2242.5	30.9835
2243	30.9946
2243.5	31.1315
2244	31.5858
2244.5	32.1592
2245	32.4729
2245.5	32.0155
2246	30.7225
2246.5	28.8238
2247	27.0548
2247.5	26.0702
2248	26.3169
2248.5	27.38
2249	28.5573
2249.5	29.0811
2250	28.9319
2250.5	28.5185
2251	28.4474
2251.5	28.7701
2252	29.0663
2252.5	28.7713
2253	27.8271
2253.5	26.6106
2254	25.7334
2254.5	25.4458
2255	25.6378
2255.5	25.8993
2256	25.9645
2256.5	25.7837
2257	25.5485
2257.5	25.5886
2258	26.2183
2258.5	27.5143
2259	29.2742
2259.5	30.8233
2260	31.5492
2260.5	31.027
2261	29.5496
2261.5	27.5895
2262	25.8396
2262.5	24.7113
2263	24.4722
2263.5	24.8835
2264	25.5833
2264.5	26.1253
2265	26.3687
2265.5	26.4877
2266	26.8622
2266.5	27.5881
2267	28.4425
2267.5	28.9595
2268	28.92
2268.5	28.3507
2269	27.6575
2269.5	27.1369
2270	26.9698
2270.5	27.0485
2271	27.152
2271.5	26.9511
2272	26.3169
2272.5	25.3762
2273	24.6493
2273.5	24.5404
2274	25.195
2274.5	26.1177
2275	26.8719
2275.5	27.3077
2276	27.6938
2276.5	28.2599
2277	28.8226
2277.5	28.9758
2278	28.4376
2278.5	27.7097
2279	27.4869
2279.5	28.3593
2280	29.9377
2280.5	31.4291
2281	31.9062
2281.5	31.226
2282	29.7718
2282.5	28.4643
2283	27.843
2283.5	28.0744
2284	28.6099
2284.5	28.9527
2285	28.7379
2285.5	28.0686
2286	27.2169
2286.5	26.6054
2287	26.4982
2287.5	27.0676
2288	28.0373
2288.5	28.9788
2289	29.2843
2289.5	28.8157
2290	27.7573
2290.5	26.6988
2291	26.1123
2291.5	26.2226
2292	26.7526
2292.5	27.2947
2293	27.4504
2293.5	27.2525
2294	27.0182
2294.5	27.2839
2295	28.1533
2295.5	29.2524
2296	29.7081
2296.5	29.0732
2297	27.4907
2297.5	25.9921
2298	25.3333
2298.5	25.7682
2299	26.6073
2299.5	27.2664
2300	27.4735
2300.5	27.334
2301	26.8817
2301.5	26.194
2302	25.5562
2302.5	25.5844
2303	26.509
2303.5	27.9724
2304	28.992
2304.5	29.0185
2305	28.2323
2305.5	27.5498
2306	27.4794
2306.5	27.8162
2307	27.7501
2307.5	26.9079
2308	25.5221
2308.5	24.3983
2309	24.0905
2309.5	24.7753
2310	26.1181
2310.5	27.6847
2311	28.7443
2311.5	28.7435
2312	27.3625
2312.5	25.3828
2313	23.8127
2313.5	23.6208
2314	24.5398
2314.5	25.8166
2315	26.5245
2315.5	26.4977
2316	26.0285
2316.5	25.6163
2317	25.4162
2317.5	25.4059
2318	25.5377
2318.5	25.8682
2319	26.3886
2319.5	26.9185
2320	27.3147
2320.5	27.6697
2321	28.2153
2321.5	29.0837
2322	29.9649
2322.5	30.4466
2323	30.2492
2323.5	29.758
2324	29.4711
2324.5	29.6589
2325	29.9685
2325.5	29.8517
2326	29.2448
2326.5	28.82
2327	29.7914
2327.5	32.4235
2328	36.0765
2328.5	39.1053
2329	40.2593
2329.5	39.0574
2330	36.297
2330.5	33.1948
2331	30.6514
2331.5	28.8652
2332	27.6668
2332.5	26.9922
2333	26.8435
2333.5	27.298
2334	28.1748
2334.5	29.0596
2335	29.6427
2335.5	29.9356
2336	30.0921
2336.5	30.1013
2337	29.7691
2337.5	28.9825
2338	28.0045
2338.5	27.4408
2339	27.744
2339.5	28.7855
2340	29.9304
2340.5	30.5834
2341	30.6748
2341.5	30.4992
2342	30.3249
2342.5	30.1113
2343	29.7257
2343.5	29.255
2344	28.9717
2344.5	28.986
2345	28.9643
2345.5	28.5149
2346	27.5164
2346.5	26.4956
2347	25.9548
2347.5	26.0565
2348	26.2592
2348.5	26.0571
2349	25.368
2349.5	24.6732
2350	24.5468
2350.5	25.122
2351	26.1387
2351.5	27.2689
2352	28.2751
2352.5	29.044
2353	29.424
2353.5	29.3843
2354	28.9751
2354.5	28.4654
2355	28.0961
2355.5	27.9928
2356	28.0826
2356.5	28.2965
2357	28.6408
2357.5	29.0805
2358	29.4876
2358.5	29.5832
2359	29.1979
2359.5	28.2886
2360	27.1723
2360.5	26.2748
2361	26.0635
2361.5	26.5088
2362	27.2361
2362.5	27.5173
2363	26.9581
2363.5	25.5978
2364	24.0633
2364.5	22.9393
2365	22.5334
2365.5	22.7593
2366	23.5441
2366.5	24.9608
2367	26.7191
2367.5	28.3435
2368	29.2395
2368.5	29.4846
2369	29.6037
2369.5	30.1612
2370	30.9452
2370.5	31.0836
2371	30.1148
2371.5	28.559
2372	27.6209
2372.5	27.7288
2373	28.3251
2373.5	28.1627
2374	26.8966
2374.5	25.1645
2375	24.2137
2375.5	24.4224
2376	25.2615
2376.5	25.6115
2377	25.0006
2377.5	23.8031
2378	22.9238
2378.5	23.0483
2379	24.3268
2379.5	26.3049
2380	28.2459
2380.5	29.3836
2381	29.4832
2381.5	28.8282
2382	28.2013
2382.5	27.9972
2383	28.0783
2383.5	28.065
2384	27.8969
2384.5	27.8678
2385	28.0046
2385.5	27.7721
2386	26.6561
2386.5	24.8696
2387	23.6803
2387.5	24.1497
2388	26.3669
2388.5	28.8526
2389	30.1322
2389.5	29.6108
2390	28.4838
2390.5	27.9112
2391	28.334
2391.5	28.9023
2392	28.8373
2392.5	27.9031
2393	26.6598
2393.5	25.6641
2394	25.1302
2394.5	24.9204
2395	24.9106
2395.5	25.0316
2396	25.2438
2396.5	25.4649
2397	25.664
2397.5	25.8828
2398	26.1054
2398.5	26.1667
2399	25.8577
2399.5	25.3244
2400	25.0061
2400.5	25.462
2401	26.5036
2401.5	27.4479
2402	27.3159
2402.5	25.9876
2403	23.9225
2403.5	22.1824
2404	21.4542
2404.5	22.0555
2405	23.4184
2405.5	24.8395
2406	25.5512
2406.5	25.4761
2407	25.0183
2407.5	24.9972
2408	25.6417
2408.5	26.4802
2409	26.5334
2409.5	25.5068
2410	24.0686
2410.5	23.6325
2411	24.8813
2411.5	27.2197
2412	28.9706
2412.5	28.9002
2413	27.2866
2413.5	25.4614
2414	24.5583
2414.5	24.5889
2415	24.9208
2415.5	24.9179
2416	24.6474
2416.5	24.4959
2417	24.8279
2417.5	25.5648
2418	26.4884
2418.5	27.3063
2419	27.8146
2419.5	27.7411
2420	27.1034
2420.5	26.1662
2421	25.4783
2421.5	25.3049
2422	25.4593
2422.5	25.3059
2423	24.5457
2423.5	23.4981
2424	23.0806
2424.5	23.7473
2425	25.3252
2425.5	26.7741
2426	27.3975
2426.5	27.1759
2427	26.8739
2427.5	27.0808
2428	27.5824
2428.5	27.5941
2429	26.5585
2429.5	25.2404
2430	24.7882
2430.5	26.0448
2431	27.973
2431.5	28.956
2432	27.7229
2432.5	24.9974
2433	22.4275
2433.5	21.5067
2434	22.0455
2434.5	23.0284
2435	23.612
2435.5	23.8208
2436	24.012
2436.5	24.1882
2437	24.0594
2437.5	23.6185
2438	23.3544
2438.5	23.8273
2439	24.7698
2439.5	25.5416
2440	25.6607
2440.5	25.5333
2441	25.732
2441.5	26.5258
2442	27.5211
2442.5	28.2376
2443	28.4947
2443.5	28.4076
2444	28.0051
2444.5	27.2812
2445	26.3415
2445.5	25.5909
2446	25.3525
2446.5	25.6373
2447	25.9926
2447.5	25.9646
2448	25.3079
2448.5	24.2968
2449	23.3636
2449.5	22.985
2450	23.1289
2450.5	23.3598
2451	22.7234
2451.5	20.6766
2452	17.1984
2452.5	13.2868
2453	10.0615
2453.5	8.47694
2454	8.68054
2454.5	10.66
2455	14.2962
2455.5	18.5882
2456	22.3722
2456.5	24.5153
2457	25.1758
2457.5	25.2413
2458	25.7534
2458.5	26.6068
2459	26.8852
2459.5	26.1405
2460	24.8338
2460.5	24.1807
2461	24.7281
2461.5	26.1816
2462	27.4672
2462.5	27.9771
2463	27.7005
2463.5	27.0916
2464	26.3413
2464.5	25.4312
2465	24.4982
2465.5	23.923
2466	24.1981
2466.5	25.2283
2467	26.412
2467.5	26.8682
2468	26.3404
2468.5	25.1093
2469	23.9785
2469.5	23.3714
2470	23.317
2470.5	23.5235
2471	23.9621
2471.5	24.7956
2472	25.9558
2472.5	27.0635
2473	27.655
2473.5	27.6849
2474	27.4408
2474.5	27.2419
2475	27.0103
2475.5	26.4638
2476	25.7399
2476.5	25.3221
2477	25.5771
2477.5	26.2182
2478	26.4898
2478.5	25.8575
2479	24.4195
2479.5	22.8247
2480	21.7974
2480.5	21.7087
2481	22.5852
2481.5	24.0958
2482	25.8123
2482.5	27.1733
2483	27.9447
2483.5	28.2049
2484	28.3989
2484.5	28.6588
2485	28.6889
2485.5	28.213
2486	27.2933
2486.5	26.5002
2487	26.2293
2487.5	26.4338
2488	26.5239
2488.5	26.2181
2489	25.8942
2489.5	26.1985
2490	27.3194
2490.5	28.5552
2491	28.9349
2491.5	27.8948
2492	26.1044
2492.5	24.7069
2493	24.6093
2493.5	25.3192
2494	25.8773
2494.5	25.2636
2495	23.6302
2495.5	21.7865
2496	20.9318
2496.5	21.4224
2497	22.7537
2497.5	23.7536
2498	23.8925
2498.5	23.4714
2499	23.5756
2499.5	24.8445
2500	26.8972
2500.5	28.4507
2501	28.5075
2501.5	27.3167
2502	25.8424
2502.5	24.9486
2503	24.6342
2503.5	24.5057
2504	24.2645
2504.5	24.0404
2505	23.9918
2505.5	24.0147
2506	23.9435
2506.5	23.8519
2507	24.0532
2507.5	24.6459
2508	25.3568
2508.5	25.7117
2509	25.6159
2509.5	25.3914
2510	25.3659
2510.5	25.5266
2511	25.4872
2511.5	24.9925
2512	24.132
2512.5	23.5763
2513	23.9009
2513.5	25.3976
2514	27.3793
2514.5	28.97
2515	29.3935
2515.5	28.8573
2516	28.0708
2516.5	27.7837
2517	27.9193
2517.5	27.9104
2518	27.4373
2518.5	26.7722
2519	26.5933
2519.5	27.0755
2520	27.8142
2520.5	27.9682
2521	27.2283
2521.5	25.7158
2522	24.0964
2522.5	22.8852
2523	22.4927
2523.5	22.7874
2524	23.5316
2524.5	24.4069
2525	25.2942
2525.5	26.2209
2526	27.1149
2526.5	27.6798
2527	27.3571
2527.5	26.0319
2528	24.1314
2528.5	22.604
2529	22.1787
2529.5	23.105
2530	24.7681
2530.5	26.1585
2531	26.4014
2531.5	25.6969
2532	24.9082
2532.5	25.0241
2533	25.9205
2533.5	26.7523
2534	26.3345
2534.5	24.6658
2535	22.731
2535.5	22.0021
2536	22.8579
2536.5	24.8806
2537	26.9204
2537.5	28.3848
2538	29.1355
2538.5	29.4486
2539	29.3302
2539.5	28.6283
2540	27.4627
2540.5	26.2272
2541	25.465
2541.5	25.2993
2542	25.4636
2542.5	25.5147
2543	25.4761
2543.5	25.7464
2544	26.4512
2544.5	27.2162
2545	27.2474
2545.5	26.3128
2546	24.9458
2546.5	24.1133
2547	24.1482
2547.5	24.7492
2548	25.207
2548.5	25.2104
2549	24.7717
2549.5	23.9959
2550	22.8129
2550.5	21.4694
2551	20.5773
2551.5	20.9941
2552	22.6504
2552.5	24.8177
2553	26.3838
2553.5	27.1332
2554	27.4837
2554.5	28.1266
2555	29.1234
2555.5	29.9008
2556	29.6624
2556.5	28.2655
2557	26.0749
2557.5	24.0054
2558	22.6532
2558.5	22.274
2559	22.5643
2559.5	23.2082
2560	23.9
2560.5	24.5005
2561	24.8885
2561.5	25.0441
2562	25.0288
2562.5	24.9755
2563	24.9684
2563.5	24.9933
2564	25.0103
2564.5	24.9892
2565	24.8108
2565.5	24.2647
2566	23.3113
2566.5	22.358
2567	22.0465
2567.5	22.6226
2568	23.6327
2568.5	24.3162
2569	24.4902
2569.5	24.9636
2570	26.3666
2570.5	28.449
2571	29.8132
2571.5	29.4946
2572	27.4273
2572.5	25.109
2573	23.7019
2573.5	23.539
2574	24.0578
2574.5	24.7882
2575	25.5061
2575.5	26.1844
2576	26.7038
2576.5	26.9606
2577	26.9594
2577.5	26.7833
2578	26.4732
2578.5	25.944
2579	25.179
2579.5	24.4169
2580	24.0289
2580.5	24.1827
2581	24.6889
2581.5	24.989
2582	24.5702
2582.5	23.3926
2583	22.2207
2583.5	21.9833
2584	23.2575
2584.5	25.5166
2585	27.6968
2585.5	28.7763
2586	28.9206
2586.5	28.6681
2587	28.4796
2587.5	28.328
2588	28.0269
2588.5	27.5667
2589	27.1218
2589.5	26.7345
2590	26.2843
2590.5	25.7511
2591	25.2811
2591.5	24.9073
2592	24.3933
2592.5	23.5091
2593	22.6133
2593.5	22.4246
2594	23.3545
2594.5	24.8523
2595	25.8216
2595.5	25.8309
2596	25.3785
2596.5	25.3918
2597	26.0492
2597.5	26.838
2598	26.9885
2598.5	26.577
2599	26.1097
2599.5	26.0039
2600	26.0804
2600.5	25.7629
2601	24.7456
2601.5	23.2582
2602	21.9875
2602.5	21.5543
2603	22.3159
2603.5	23.9452
2604	25.543
2604.5	26.1099
2605	25.4673
2605.5	24.213
2606	23.4661
2606.5	23.8044
2607	25.0299
2607.5	26.1336
2608	26.483
2608.5	26.0685
2609	25.5956
2609.5	25.603
2610	26.1471
2610.5	26.5266
2611	26.2622
2611.5	25.3142
2612	24.2612
2612.5	23.5378
2613	23.1192
2613.5	22.6561
2614	22.0918
2614.5	21.8771
2615	22.3941
2615.5	23.6077
2616	24.6783
2616.5	25.0791
2617	25.0142
2617.5	25.2568
2618	26.2771
2618.5	27.5617
2619	28.1029
2619.5	27.2035
2620	25.5123
2620.5	24.0775
2621	23.8995
2621.5	24.671
2622	25.4798
2622.5	25.4372
2623	24.7094
2623.5	24.0804
2624	24.4023
2624.5	25.7111
2625	27.2929
2625.5	28.2798
2626	28.374
2626.5	27.7503
2627	26.8963
2627.5	26.1075
2628	25.5581
2628.5	25.3218
2629	25.4268
2629.5	25.5832
2630	25.3803
2630.5	24.4177
2631	23.023
2631.5	21.7377
2632	21.2094
2632.5	21.5572
2633	22.6912
2633.5	24.2392
2634	25.9447
2634.5	27.4949
2635	28.4049
2635.5	28.208
2636	26.6921
2636.5	24.7513
2637	23.3615
2637.5	23.2184
2638	24.0041
2638.5	24.9564
2639	25.4303
2639.5	25.562
2640	25.8227
2640.5	26.3116
2641	26.6373
2641.5	26.1581
2642	25.0316
2642.5	23.8398
2643	23.2888
2643.5	23.4905
2644	24.1808
2644.5	24.8491
2645	25.3027
2645.5	25.474
2646	25.3898
2646.5	25.1139
2647	25.0716
2647.5	25.7445
2648	27.3215
2648.5	28.9588
2649	29.476
2649.5	27.734
2650	24.7737
2650.5	22.3454
2651	22.0972
2651.5	23.5342
2652	25.1323
2652.5	25.2605
2653	24.2754
2653.5	23.5563
2654	24.173
2654.5	25.9153
2655	27.7321
2655.5	28.8087
2656	28.9549
2656.5	28.0963
2657	26.2878
2657.5	23.8565
2658	22.1281
2658.5	22.0948
2659	23.9212
2659.5	26.0063
2660	26.9654
2660.5	26.2833
2661	25.2271
2661.5	24.8178
2662	25.2264
2662.5	25.7356
2663	25.5126
2663.5	24.466
2664	23.0348
2664.5	21.8401
2665	21.1798
2665.5	20.9919
2666	20.869
2666.5	20.5668
2667	20.1784
2667.5	19.9962
2668	20.0849
2668.5	20.3224
2669	20.7073
2669.5	21.496
2670	22.8334
2670.5	24.1005
2671	24.4201
2671.5	23.6437
2672	22.6478
2672.5	22.363
2673	22.7868
2673.5	23.2368
2674	23.3791
2674.5	23.906
2675	25.4215
2675.5	27.5366
2676	28.8119
2676.5	28.281
2677	26.487
2677.5	24.6712
2678	23.8054
2678.5	23.8766
2679	24.4487
2679.5	25.1636
2680	25.7265
2680.5	25.8139
2681	25.1763
2681.5	24.1838
2682	23.4744
2682.5	23.4655
2683	23.9699
2683.5	24.45
2684	24.5112
2684.5	24.2332
2685	24.0137
2685.5	24.2021
2686	24.9294
2686.5	25.8535
2687	26.4626
2687.5	26.3547
2688	25.7064
2688.5	24.9623
2689	24.4824
2689.5	24.0355
2690	23.2928
2690.5	22.2936
2691	21.6613
2691.5	22.021
2692	23.1344
2692.5	24.2008
2693	24.3856
2693.5	23.7432
2694	22.9096
2694.5	22.6264
2695	22.9948
2695.5	23.832
2696	24.7865
2696.5	25.6367
2697	26.28
2697.5	26.7241
2698	26.9814
2698.5	26.8413
2699	26.0459
2699.5	24.5182
2700	22.8465
2700.5	22.0419
2701	22.806
2701.5	24.2803
2702	25.0799
2702.5	24.3337
2703	22.9656
2703.5	22.3364
2704	23.0641
2704.5	24.0912
2705	24.4702
2705.5	24.168
2706	24.0601
2706.5	24.6454
2707	25.4928
2707.5	26.1782
2708	26.8874
2708.5	28.0968
2709	29.5728
2709.5	30.2798
2710	29.6909
2710.5	28.1099
2711	26.6662
2711.5	25.767
2712	25.1255
2712.5	24.3473
2713	23.6403
2713.5	23.5321
2714	23.8309
2714.5	23.9923
2715	23.6713
2715.5	23.4483
2716	24.0602
2716.5	25.343
2717	26.3512
2717.5	26.1298
2718	25.0842
2718.5	24.228
2719	24.3579
2719.5	25.0775
2720	25.6314
2720.5	25.4095
2721	24.71
2721.5	24.1198
2722	24.1406
2722.5	24.6651
2723	25.1483
2723.5	24.9363
2724	23.8391
2724.5	22.4951
2725	21.8819
2725.5	22.4319
2726	23.6529
2726.5	24.3835
2727	24.0104
2727.5	22.853
2728	21.7919
2728.5	21.5959
2729	22.2003
2729.5	23.1553
2730	24.0351
2730.5	24.6082
2731	24.8388
2731.5	24.8091
2732	24.7162
2732.5	24.8529
2733	25.4195
2733.5	26.1631
2734	26.5454
2734.5	26.0399
2735	24.4621
2735.5	22.3587
2736	20.5764
2736.5	19.8071
2737	20.2952
2737.5	21.6444
2738	22.9872
2738.5	23.6368
2739	23.3436
2739.5	22.4456
2740	21.7836
2740.5	21.999
2741	23.1578
2741.5	24.6676
2742	25.5235
2742.5	25.2029
2743	23.9459
2743.5	22.5079
2744	21.6908
2744.5	21.7582
2745	22.4338
2745.5	23.3425
2746	24.2043
2746.5	24.8037
2747	24.9321
2747.5	24.4515
2748	23.5098
2748.5	22.6785
2749	22.7423
2749.5	23.9749
2750	25.922
2750.5	27.579
2751	27.8813
2751.5	26.7073
2752	24.7887
2752.5	23.0948
2753	22.2552
2753.5	22.2928
2754	22.8731
2754.5	23.8323
2755	25.0295
2755.5	25.9795
2756	25.8594
2756.5	24.3635
2757	22.1799
2757.5	20.7334
2758	21.2355
2758.5	23.295
2759	25.511
2759.5	26.6993
2760	26.6611
2760.5	26.1061
2761	25.7111
2761.5	25.5104
2762	25.2716
2762.5	24.8823
2763	24.3526
2763.5	23.5377
2764	22.2787
2764.5	20.8202
2765	19.9292
2765.5	20.0463
2766	20.5039
2766.5	20.0348
2767	17.8615
2767.5	14.5281
2768	11.481
2768.5	9.35285
2769	7.81315
2769.5	6.41665
2770	5.75206
2770.5	7.06208
2771	10.8346
2771.5	16.1367
2772	21.1068
2772.5	24.3524
2773	26.0167
2773.5	26.8232
2774	27.2595
2774.5	27.2575
2775	26.6332
2775.5	25.6357
2776	24.8496
2776.5	24.8432
2777	25.8325
2777.5	27.3769
2778	28.7625
2778.5	29.3848
2779	29.0186
2779.5	27.8898
2780	26.5674
2780.5	25.4855
2781	24.8779
2781.5	24.8117
2782	25.2034
2782.5	25.7193
2783	25.9292
2783.5	25.472
2784	24.217
2784.5	22.3155
2785	20.1927
2785.5	18.4063
2786	17.6347
2786.5	18.4535
2787	20.8181
2787.5	23.6324
2788	25.5706
2788.5	25.9047
2789	25.028
2789.5	24.2287
2790	24.4449
2790.5	25.5361
2791	26.6491
2791.5	26.9628
2792	26.2997
2792.5	25.1533
2793	24.0009
2793.5	23.1209
2794	22.6924
2794.5	22.9336
2795	23.8565
2795.5	25.1306
2796	26.1592
2796.5	26.4406
2797	25.9474
2797.5	25.2132
2798	24.7695
2798.5	24.876
2799	25.4427
2799.5	26.0835
2800	26.3086
2800.5	25.8307
2801	24.7544
2801.5	23.5891
2802	22.9452
2802.5	22.8871
2803	22.9646
2803.5	22.7575
2804	22.354
2804.5	22.3605
2805	23.1701
2805.5	24.4835
2806	25.6547
2806.5	26.2519
2807	26.3493
2807.5	26.3279
2808	26.3546
2808.5	26.3761
2809	26.34
2809.5	26.3083
2810	26.335
2810.5	26.3584
2811	26.3442
2811.5	26.3968
2812	26.6423
2812.5	26.9014
2813	26.6724
2813.5	25.6125
2814	23.9479
2814.5	22.4593
2815	21.9894
2815.5	22.5513
2816	23.517
2816.5	24.1926
2817	24.3149
2817.5	24.0828
2818	23.7615
2818.5	23.3553
2819	22.8471
2819.5	22.4781
2820	22.7129
2820.5	23.7465
2821	25.1928
2821.5	26.502
2822	27.405
2822.5	28.0344
2823	28.5658
2823.5	28.7934
2824	28.3129
2824.5	27.0077
2825	25.2734
2825.5	23.7624
2826	22.7232
2826.5	21.8631
2827	20.8495
2827.5	19.8056
2828	19.4008
2828.5	20.3026
2829	22.3856
2829.5	24.8946
2830	26.9612
2830.5	28.1205
2831	28.3965
2831.5	28.0336
2832	27.1401
2832.5	25.8583
2833	24.5673
2833.5	23.8294
2834	23.9675
2834.5	24.7641
2835	25.7104
2835.5	26.2731
2836	26.086
2836.5	25.0658
2837	23.6514
2837.5	22.5819
2838	22.4999
2838.5	23.4775
2839	24.899
2839.5	25.9318
2840	26.3114
2840.5	26.3099
2841	26.3072
2841.5	26.4604
2842	26.7042
2842.5	26.9119
2843	26.9647
2843.5	26.7802
2844	26.4616
2844.5	26.3458
2845	26.6308
2845.5	26.8465
2846	26.2419
2846.5	24.6589
2847	22.9946
2847.5	22.6626
2848	23.9975
2848.5	25.8515
2849	26.8243
2849.5	26.4498
2850	25.4122
2850.5	24.6868
2851	24.3987
2851.5	24.0422
2852	23.2924
2852.5	22.42
2853	22.0686
2853.5	22.6661
2854	23.9918
2854.5	25.4499
2855	26.3768
2855.5	26.3679
2856	25.5316
2856.5	24.5797
2857	24.2751
2857.5	24.8428
2858	25.8155
2858.5	26.4091
2859	26.1669
2859.5	25.4371
2860	24.8402
2860.5	24.5981
2861	24.3659
2861.5	23.6325
2862	22.3195
2862.5	21.0135
2863	20.3684
2863.5	20.6572
2864	21.7388
2864.5	23.2975
2865	24.9872
2865.5	26.3636
2866	26.9347
2866.5	26.4354
2867	25.1207
2867.5	23.7187
2868	22.9911
2868.5	23.0893
2869	23.594
2869.5	23.913
2870	23.7134
2870.5	23.1655
2871	22.8851
2871.5	23.3963
2872	24.6541
2872.5	26.0383
2873	26.7806
2873.5	26.5104
2874	25.4775
2874.5	24.3159
2875	23.5294
2875.5	23.4533
2876	24.2004
2876.5	25.4366
2877	26.1762
2877.5	25.4476
2878	23.2882
2878.5	20.9299
2879	19.9237
2879.5	20.8691
2880	22.888
2880.5	24.4309
2881	24.7551
2881.5	24.003
2882	22.667
2882.5	21.1647
2883	19.9248
2883.5	19.4755
2884	20.0648
2884.5	21.3328
2885	22.4994
2885.5	22.9907
2886	22.9078
2886.5	22.9063
2887	23.4643
2887.5	24.5468
2888	25.6941
2888.5	26.3057
2889	25.9491
2889.5	24.6742
2890	23.066
2890.5	21.7496
2891	20.981
2891.5	20.5602
2892	20.1847
2892.5	19.879
2893	19.9141
2893.5	20.3343
2894	20.8404
2894.5	21.1394
2895	21.3142
2895.5	21.744
2896	22.541
2896.5	23.2989
2897	23.4964
2897.5	22.9655
2898	22.0094
2898.5	21.142
2899	20.755
2899.5	20.9069
2900	21.3881
2900.5	21.7909
2901	21.7067
2901.5	21.0574
2902	20.3547
2902.5	20.4705
2903	21.8875
2903.5	24.2668
2904	26.5648
2904.5	27.656
2905	27.0466
2905.5	25.2361
2906	23.364
2906.5	22.2124
2907	21.8656
2907.5	21.9511
2908	22.2107
2908.5	22.7813
2909	23.7697
2909.5	24.7195
2910	24.8698
2910.5	23.8998
2911	22.3659
2911.5	21.2953
2912	21.2696
2912.5	21.7965
2913	22.0128
2913.5	21.5218
2914	20.685
2914.5	20.2695
2915	20.8363
2915.5	22.3172
2916	24.0373
2916.5	25.3283
2917	25.8758
2917.5	25.7769
2918	25.2983
2918.5	24.6294
2919	23.9153
2919.5	23.4008
2920	23.3066
2920.5	23.5591
2921	23.8064
2921.5	23.8058
2922	23.7454
2922.5	23.9927
2923	24.4997
2923.5	24.8709
2924	24.9026
2924.5	24.8566
2925	25.0646
2925.5	25.3214
2926	24.9648
2926.5	23.7871
2927	22.4067
2927.5	21.7751
2928	22.3671
2928.5	23.8297
2929	25.2856
2929.5	25.9648
2930	25.6764
2930.5	24.7674
2931	23.8587
2931.5	23.4001
2932	23.3387
2932.5	23.2528
2933	22.9494
2933.5	22.7704
2934	23.069
2934.5	23.6183
2935	23.7124
2935.5	22.948
2936	21.8335
2936.5	21.4042
2937	21.9742
2937.5	22.8009
2938	22.8768
2938.5	22.0065
2939	21.1126
2939.5	21.4566
2940	23.4113
2940.5	25.869
2941	27.2966
2941.5	26.8734
2942	24.9724
2942.5	22.7183
2943	21.1324
2943.5	20.6108
2944	20.8869
2944.5	21.4535
2945	21.7942
2945.5	21.5352
2946	20.6447
2946.5	19.4918
2947	18.5907
2947.5	18.1884
2948	18.1932
2948.5	18.5975
2949	19.623
2949.5	21.3586
2950	23.2838
2950.5	24.3338
2951	23.6284
2951.5	21.4842
2952	19.1714
2952.5	17.9692
2953	18.333
2953.5	19.7383
2954	21.2278
2954.5	22.1321
2955	22.4062
2955.5	22.3915
2956	22.3201
2956.5	22.2762
2957	22.4003
2957.5	22.9967
2958	24.3713
2958.5	26.602
2959	29.4193
2959.5	32.2873
2960	34.4068
2960.5	34.8015
2961	32.8531
2961.5	29.0301
2962	25.0223
2962.5	22.8264
2963	22.9613
2963.5	24.0884
2964	24.3747
2964.5	23.119
2965	21.2742
2965.5	20.4147
2966	21.1662
2966.5	22.5792
2967	23.1771
2967.5	22.6478
2968	21.9869
2968.5	22.3036
2969	23.5752
2969.5	24.6751
2970	24.641
2970.5	23.7977
2971	23.4143
2971.5	24.1273
2972	25.3774
2972.5	26.1247
2973	25.8683
2973.5	24.9357
2974	24.0143
2974.5	23.6549
2975	24.0517
2975.5	24.972
2976	25.7206
2976.5	25.4505
2977	23.8605
2977.5	21.5836
2978	19.6943
2978.5	18.7592
2979	18.4624
2979.5	18.3585
2980	18.6252
2980.5	19.741
2981	21.6532
2981.5	23.4742
2982	24.1373
2982.5	23.3637
2983	21.9938
2983.5	21.2847
2984	21.8274
2984.5	23.2788
2985	24.7535
2985.5	25.4697
2986	25.1789
2986.5	24.2197
2987	23.326
2987.5	23.2649
2988	24.2553
2988.5	25.6713
2989	26.3166
2989.5	25.3628
2990	23.184
2990.5	21.1352
2991	20.3069
2991.5	20.5359
2992	20.8279
2992.5	20.8185
2993	20.9535
2993.5	21.4898
2994	21.8266
2994.5	21.202
2995	19.8296
2995.5	18.8635
2996	19.1354
2996.5	20.1587
2997	21.0852
2997.5	21.6874
2998	22.228
2998.5	22.7133
2999	22.805
2999.5	22.4945
3000	22.3701
3000.5	22.8625
3001	23.4666
3001.5	23.4201
3002	22.6757
3002.5	21.8514
3003	21.3269
3003.5	20.81
3004	19.931
3004.5	18.9221
3005	18.3934
3005.5	18.5274
3006	19.0926
3006.5	19.9787
3007	21.202
3007.5	22.3871
3008	22.7211
3008.5	21.7728
3009	20.196
3009.5	19.2589
3010	19.5306
3010.5	20.4912
3011	21.4771
3011.5	22.3581
3012	23.2257
3012.5	23.763
3013	23.3413
3013.5	21.8039
3014	19.9237
3014.5	18.9184
3015	19.3811
3015.5	20.9394
3016	22.6635
3016.5	23.6837
3017	23.6291
3017.5	22.724
3018	21.554
3018.5	20.6725
3019	20.3519
3019.5	20.6172
3020	21.3778
3020.5	22.4124
3021	23.2406
3021.5	23.2621
3022	22.1811
3022.5	20.3582
3023	18.7256
3023.5	18.2308
3024	19.1388
3024.5	20.6343
3025	21.4295
3025.5	20.9744
3026	20.0607
3026.5	20.0825
3027	21.465
3027.5	22.9769
3028	22.9452
3028.5	21.22
3029	19.5805
3029.5	19.8033
3030	21.393
3030.5	22.305
3031	21.3196
3031.5	19.3641
3032	18.3724
3032.5	19.1861
3033	20.7979
3033.5	21.5468
3034	20.7974
3034.5	19.4245
3035	18.796
3035.5	19.4048
3036	20.6602
3036.5	21.6051
3037	21.7996
3037.5	21.5485
3038	21.3471
3038.5	21.2427
3039	20.8818
3039.5	20.1413
3040	19.4513
3040.5	19.2261
3041	19.3104
3041.5	19.3131
3042	19.2878
3042.5	19.6752
3043	20.4676
3043.5	20.8212
3044	19.9323
3044.5	18.2447
3045	17.3452
3045.5	18.3154
3046	20.3859
3046.5	21.8625
3047	21.8286
3047.5	20.8231
3048	19.9789
3048.5	19.8536
3049	20.2227
3049.5	20.7441
3050	21.4536
3050.5	22.4983
3051	23.5731
3051.5	23.9463
3052	23.1769
3052.5	21.6438
3053	20.3299
3053.5	20.0327
3054	20.7503
3054.5	21.7904
3055	22.4094
3055.5	22.3206
3056	21.6957
3056.5	20.8999
3057	20.3365
3057.5	20.3182
3058	20.8305
3058.5	21.3864
3059	21.3585
3059.5	20.5901
3060	19.5672
3060.5	18.8577
3061	18.4657
3061.5	17.9397
3062	17.1448
3062.5	16.7153
3063	17.467
3063.5	19.3236
3064	21.1856
3064.5	21.8199
3065	20.9474
3065.5	19.4823
3066	18.6773
3066.5	18.9697
3067	19.6645
3067.5	19.8134
3068	19.3841
3068.5	19.3378
3069	20.4395
3069.5	22.1402
3070	23.2631
3070.5	23.384
3071	23.2267
3071.5	23.6162
3072	24.3747
3072.5	24.5472
3073	23.5973
3073.5	22.0513
3074	20.9043
3074.5	20.654
3075	21.0613
3075.5	21.5999
3076	21.8515
3076.5	21.534
3077	20.547
3077.5	19.1197
3078	17.7015
3078.5	16.5987
3079	15.8457
3079.5	15.5003
3080	15.8417
3080.5	17.0193
3081	18.5973
3081.5	19.7947
3082	20.2834
3082.5	20.4818
3083	20.7516
3083.5	20.8061
3084	20.2281
3084.5	19.3511
3085	19.1087
3085.5	19.8559
3086	20.7177
3086.5	20.4504
3087	18.8111
3087.5	16.7735
3088	15.4993
3088.5	15.5063
3089	16.8304
3089.5	19.2419
3090	21.8899
3090.5	23.2056
3091	22.1155
3091.5	19.502
3092	17.8081
3092.5	18.6714
3093	21.1368
3093.5	22.6744
3094	21.9722
3094.5	20.2714
3095	19.7197
3095.5	20.7952
3096	21.8901
3096.5	21.4592
3097	20.062
3097.5	19.5
3098	20.5437
3098.5	21.9817
3099	22.0265
3099.5	20.3465
3100	18.4261
3100.5	17.9774
3101	19.2292
3101.5	20.8326
3102	21.2482
3102.5	20.0884
3103	18.2581
3103.5	17.0761
3104	17.3278
3104.5	18.8123
3105	20.6579
3105.5	21.8986
3106	21.9325
3106.5	20.7355
3107	18.8522
3107.5	17.2167
3108	16.7344
3108.5	17.6634
3109	19.2518
3109.5	20.2086
3110	19.8489
3110.5	18.8141
3111	18.4625
3111.5	19.4541
3112	21.0676
3112.5	22.0122
3113	21.8308
3113.5	21.1757
3114	20.9712
3114.5	21.5528
3115	22.5631
3115.5	23.3829
3116	23.5097
3116.5	22.7129
3117	21.1431
3117.5	19.4002
3118	18.3055
3118.5	18.3359
3119	19.1531
3119.5	19.774
3120	19.3935
3120.5	18.1558
3121	17.0931
3121.5	17.1399
3122	18.2375
3122.5	19.4837
3123	20.0604
3123.5	19.9587
3124	19.8397
3124.5	20.3391
3125	21.5563
3125.5	23.0582
3126	24.2028
3126.5	24.5331
3127	24.1061
3127.5	23.5191
3128	23.4096
3128.5	23.7417
3129	23.7003
3129.5	22.5352
3130	20.5176
3130.5	18.8364
3131	18.3986
3131.5	19.0069
3132	19.8486
3132.5	20.4388
3133	20.8242
3133.5	21.0451
3134	20.8635
3134.5	20.1852
3135	19.4577
3135.5	19.3499
3136	20.0966
3136.5	21.3395
3137	22.5385
3137.5	23.3169
3138	23.4505
3138.5	22.8605
3139	21.7986
3139.5	20.8316
3140	20.385
3140.5	20.3569
3141	20.3676
3141.5	20.339
3142	20.5462
3142.5	21.1001
3143	21.6659
3143.5	21.8181
3144	21.5567
3144.5	21.3228
3145	21.4939
3145.5	21.9349
3146	22.117
3146.5	21.7213
3147	21.0848
3147.5	20.8978
3148	21.3634
3148.5	21.7998
3149	21.3114
3149.5	19.8486
3150	18.366
3150.5	17.881
3151	18.617
3151.5	20.1466
3152	21.9758
3152.5	23.6043
3153	24.3151
3153.5	23.6262
3154	22.0622
3154.5	20.9821
3155	21.2789
3155.5	22.4443
3156	23.1733
3156.5	22.736
3157	21.5015
3157.5	20.2749
3158	19.5228
3158.5	19.3027
3159	19.5461
3159.5	20.0666
3160	20.3946
3160.5	19.9736
3161	18.7303
3161.5	17.3719
3162	16.9097
3162.5	17.7591
3163	19.3472
3163.5	20.7145
3164	21.4883
3164.5	22.1135
3165	23.0924
3165.5	24.2328
3166	24.8588
3166.5	24.6071
3167	23.7079
3167.5	22.5163
3168	21.2738
3168.5	20.3822
3169	20.402
3169.5	21.3536
3170	22.2673
3170.5	21.9769
3171	20.4764
3171.5	19.1302
3172	19.2832
3172.5	20.796
3173	22.1605
3173.5	22.055
3174	20.6818
3174.5	19.5595
3175	20.0164
3175.5	21.865
3176	23.5486
3176.5	23.6227
3177	22.0471
3177.5	19.9574
3178	18.3193
3178.5	17.1548
3179	16.1686
3179.5	15.6962
3180	16.5007
3180.5	18.6906
3181	21.2836
3181.5	23.0388
3182	23.4978
3182.5	23.0555
3183	22.2871
3183.5	21.5646
3184	21.2245
3184.5	21.6049
3185	22.6299
3185.5	23.5919
3186	23.7299
3186.5	23.0986
3187	22.6265
3187.5	23.1394
3188	24.4272
3188.5	25.456
3189	25.4619
3189.5	24.6256
3190	23.6103
3190.5	22.684
3191	21.5743
3191.5	20.1633
3192	19.0185
3192.5	18.997
3193	20.3598
3193.5	22.4485
3194	24.2762
3194.5	25.3089
3195	25.5943
3195.5	25.3137
3196	24.5232
3196.5	23.4015
3197	22.4143
3197.5	21.8745
3198	21.4363
3198.5	20.4537
3199	18.9722
3199.5	17.973
3200	18.298
3200.5	19.5866
3201	20.7294
3201.5	21.2763
3202	21.8469
3202.5	23.015
3203	24.3291
3203.5	24.8472
3204	24.2972
3204.5	23.1862
3205	21.9108
3205.5	20.3799
3206	18.6665
3206.5	17.5034
3207	17.6884
3207.5	19.1535
3208	20.9499
3208.5	22.1204
3209	22.3808
3209.5	22.0432
3210	21.621
3210.5	21.6172
3211	22.372
3211.5	23.7193
3212	24.7946
3212.5	24.5476
3213	22.8154
3213.5	20.8585
3214	20.4373
3214.5	22.06
3215	24.3011
3215.5	25.184
3216	24.2472
3216.5	22.8227
3217	22.275
3217.5	22.4231
3218	22.0258
3218.5	20.5219
3219	18.7728
3219.5	18.0611
3220	18.7472
3220.5	20.0765
3221	21.0601
3221.5	21.3486
3222	21.3697
3222.5	21.7624
3223	22.6069
3223.5	23.1439
3224	22.4278
3224.5	20.4511
3225	18.5191
3225.5	18.227
3226	19.9482
3226.5	22.4271
3227	23.9318
3227.5	23.7545
3228	22.5888
3228.5	21.6119
3229	21.3887
3229.5	21.6435
3230	21.8343
3230.5	21.6923
3231	21.2515
3231.5	20.6906
3232	20.3696
3232.5	20.7838
3233	22.0456
3233.5	23.3983
3234	23.7245
3234.5	22.8275
3235	21.8558
3235.5	21.986
3236	22.87
3236.5	22.9979
3237	21.6906
3237.5	20.1264
3238	19.993
3238.5	21.5191
3239	23.3539
3239.5	24.1699
3240	23.7762
3240.5	22.6823
3241	21.3048
3241.5	20.0047
3242	19.4022
3242.5	19.971
3243	21.3426
3243.5	22.5027
3244	22.8166
3244.5	22.56
3245	22.3565
3245.5	22.4636
3246	22.8471
3246.5	23.604
3247	24.8116
3247.5	26.005
3248	26.3138
3248.5	25.3835
3249	23.9069
3249.5	22.9474
3250	22.8409
3250.5	23.0211
3251	22.8551
3251.5	22.328
3252	21.8621
3252.5	21.8051
3253	22.3046
3253.5	23.3912
3254	24.7617
3254.5	25.5688
3255	24.915
3255.5	22.8188
3256	20.4833
3256.5	19.3304
3257	19.7832
3257.5	21.0982
3258	22.2688
3258.5	22.8356
3259	22.8474
3259.5	22.3909
3260	21.4161
3260.5	19.9736
3261	18.4584
3261.5	17.5436
3262	17.8246
3262.5	19.3975
3263	21.6656
3263.5	23.5885
3264	24.2788
3264.5	23.5388
3265	21.9669
3265.5	20.6098
3266	20.3878
3266.5	21.5849
3267	23.6988
3267.5	25.816
3268	27.2339
3268.5	27.737
3269	27.3325
3269.5	26.0003
3270	23.9557
3270.5	21.9726
3271	20.926
3271.5	20.7673
3272	20.2764
3272.5	18.2579
3273	14.9887
3273.5	12.1886
3274	11.4756
3274.5	13.0296
3275	15.7811
3275.5	18.5597
3276	20.7762
3276.5	22.2235
3277	22.8032
3277.5	22.7618
3278	22.9012
3278.5	24.0022
3279	25.8402
3279.5	27.1129
3280	26.762
3280.5	25.3045
3281	24.3954
3281.5	24.8992
3282	25.8295
3282.5	25.6391
3283	24.2679
3283.5	23.1984
3284	23.3877
3284.5	23.899
3285	23.2134
3285.5	21.4474
3286	20.3613
3286.5	21.1664
3287	22.9968
3287.5	23.9343
3288	23.1654
3288.5	21.6577
3289	20.827
3289.5	20.9961
3290	21.3491
3290.5	21.1746
3291	20.8657
3291.5	21.6875
3292	24.5863
3292.5	29.125
3293	33.4666
3293.5	35.4806
3294	34.1693
3294.5	30.3335
3295	25.9668
3295.5	22.9053
3296	21.8504
3296.5	22.4054
3297	23.7145
3297.5	24.916
3298	25.2734
3298.5	24.4367
3299	22.84
3299.5	21.5766
3300	21.5133
3300.5	22.5149
3301	23.6863
3301.5	24.2927
3302	24.2448
3302.5	23.7686
3303	23.0341
3303.5	22.2319
3304	21.7457
3304.5	21.9437
3305	22.7195
3305.5	23.3325
3306	22.9072
3306.5	21.3439
3307	19.7627
3307.5	19.6955
3308	21.5255
3308.5	23.9192
3309	25.1842
3309.5	25.0718
3310	24.7591
3310.5	25.0858
3311	25.4665
3311.5	24.8725
3312	23.3651
3312.5	22.0954
3313	21.9864
3313.5	22.9076
3314	24.0676
3314.5	24.7561
3315	24.6933
3315.5	24.0717
3316	23.439
3316.5	23.2978
3317	23.6167
3317.5	23.8375
3318	23.4574
3318.5	22.5644
3319	21.7919
3319.5	21.78
3320	22.609
3320.5	23.6747
3321	24.1906
3321.5	23.9074
3322	23.2745
3322.5	22.8738
3323	22.9054
3323.5	23.3124
3324	24.0376
3324.5	24.8135
3325	25.0219
3325.5	24.3431
3326	23.4494
3326.5	23.3648
3327	24.0252
3327.5	24.3031
3328	23.6125
3328.5	22.8427
3329	23.1952
3329.5	24.5222
3330	25.4723
3330.5	25.1619
3331	24.0827
3331.5	23.2648
3332	23.1227
3332.5	23.4853
3333	24.3365
3333.5	25.8434
3334	27.5783
3334.5	28.3293
3335	27.2475
3335.5	25.0509
3336	23.5239
3336.5	23.5553
3337	24.2067
3337.5	24.128
3338	23.2858
3338.5	22.702
3339	22.7596
3339.5	22.7161
3340	22.1362
3340.5	21.902
3341	23.0436
3341.5	25.0451
3342	26.2344
3342.5	25.8122
3343	24.6806
3343.5	24.095
3344	24.243
3344.5	24.5536
3345	24.7815
3345.5	25.1472
3346	25.7148
3346.5	26.2914
3347	26.7669
3347.5	27.0535
3348	26.8703
3348.5	26.1259
3349	25.4311
3349.5	25.6447
3350	26.7964
3350.5	27.9483
3351	28.3063
3351.5	28.0544
3352	27.8528
3352.5	27.8907
3353	27.8015
3353.5	27.3341
3354	26.7969
3354.5	26.7907
3355	27.5589
3355.5	28.5434
3356	28.6858
3356.5	27.5278
3357	25.9741
3357.5	25.4551
3358	26.207
3358.5	26.9303
3359	26.4359
3359.5	25.0594
3360	23.9878
3360.5	23.7424
3361	24.0466
3361.5	24.7971
3362	26.1689
3362.5	27.7921
3363	28.8661
3363.5	29.2532
3364	29.6287
3364.5	30.2091
3365	30.0896
3365.5	28.4279
3366	25.8582
3366.5	24.062
3367	24.0145
3367.5	25.1544
3368	26.286
3368.5	26.8137
3369	26.9032
3369.5	26.8424
3370	26.663
3370.5	26.3287
3371	25.8757
3371.5	25.2717
3372	24.3708
3372.5	23.1689
3373	21.9935
3373.5	21.3037
3374	21.3536
3374.5	22.1151
3375	23.3725
3375.5	24.7234
3376	25.6277
3376.5	25.8003
3377	25.518
3377.5	25.2922
3378	25.3001
3378.5	25.3815
3379	25.6085
3379.5	26.5033
3380	28.4021
3380.5	30.666
3381	31.8173
3381.5	30.7759
3382	28.1353
3382.5	26.0109
3383	26.0993
3383.5	27.7342
3384	28.7417
3384.5	28.0812
3385	26.9888
3385.5	27.0159
3386	27.7575
3386.5	27.6058
3387	26.319
3387.5	25.4327
3388	25.9779
3388.5	27.164
3389	27.9251
3389.5	28.5511
3390	29.589
3390.5	30.242
3391	29.3143
3391.5	27.3216
3392	26.3803
3392.5	27.7859
3393	30.5219
3393.5	32.4864
3394	32.6256
3394.5	31.4825
3395	30.0638
3395.5	28.7898
3396	27.7083
3396.5	27.2773
3397	28.1979
3397.5	30.2882
3398	32.0425
3398.5	31.9952
3399	30.4812
3399.5	29.3983
3400	30.0523
3400.5	31.7876
3401	33.0656
3401.5	33.333
3402	33.2315
3402.5	33.3839
3403	33.7162
3403.5	33.8124
3404	33.5602
3404.5	33.3305
3405	33.529
3405.5	33.9606
3406	33.8547
3406.5	32.8249
3407	31.6494
3407.5	31.4669
3408	32.3384
3408.5	33.2991
3409	33.7472
3409.5	34.1179
3410	34.9956
3410.5	36.2034
3411	37.1679
3411.5	37.7447
3412	38.2575
3412.5	39.0302
3413	40.2587
3413.5	42.0852
3414	44.3335
3414.5	46.3198
3415	47.3031
3415.5	47.2117
3416	46.8566
3416.5	47.4116
3417	49.5345
3417.5	52.7213
3418	55.5596
3418.5	57.194
3419	58.4795
3419.5	61.3807
3420	66.9496
3420.5	74.1162
3421	80.887
3421.5	86.7255
3422	93.3009
3422.5	102.669
3423	115.147
3423.5	129.769
3424	146.893
3424.5	168.686
3425	196.88
3425.5	231.239
3426	271.463
3426.5	319.777
3427	379.563
3427.5	450.624
3428	526.03
3428.5	593.605
3429	639.52
3429.5	651.269
3430	622.818
3430.5	559.945
3431	479.251
3431.5	398.996
3432	329.702
3432.5	273.223
3433	227.922
3433.5	192.372
3434	164.907
3434.5	143.008
3435	124.915
3435.5	110.369
3436	99.3056
3436.5	90.9421
3437	84.3919
3437.5	78.9276
3438	73.3206
3438.5	66.5257
3439	59.1745
3439.5	53.2392
3440	49.691
3440.5	47.548
3441	45.7797
3441.5	44.9833
3442	46.083
3442.5	47.8934
3443	47.8429
3443.5	44.897
3444	40.7372
3444.5	37.858
3445	37.0757
3445.5	37.2912
3446	37.2603
3446.5	36.8845
3447	36.627
3447.5	36.306
3448	35.3055
3448.5	33.7128
3449	32.5237
3449.5	32.4616
3450	33.0609
3450.5	33.3046
3451	32.8297
3451.5	32.015
3452	31.0085
3452.5	29.5748
3453	27.9434
3453.5	27.1174
3454	27.8467
3454.5	29.4869
3455	30.3398
3455.5	29.3062
3456	27.1815
3456.5	25.8137
3457	26.3711
3457.5	28.3808
3458	30.369
3458.5	31.302
3459	31.2949
3459.5	31.0219
3460	30.7587
3460.5	30.2904
3461	29.5723
3461.5	28.9878
3462	28.901
3462.5	29.1981
3463	29.3924
3463.5	29.072
3464	28.2497
3464.5	27.4801
3465	27.5119
3465.5	28.6486
3466	30.2741
3466.5	31.278
3467	31.1186
3467.5	30.2817
3468	29.5935
3468.5	29.3271
3469	29.2984
3469.5	29.3727
3470	29.4313
3470.5	29.1503
3471	28.3402
3471.5	27.4476
3472	27.2202
3472.5	27.6438
3473	27.8895
3473.5	27.3704
3474	26.49
3474.5	26.1557
3475	26.7711
3475.5	27.9233
3476	28.8459
3476.5	29.0921
3477	28.777
3477.5	28.3996
3478	28.4149
3478.5	28.8932
3479	29.6168
3479.5	30.4132
3480	31.1862
3480.5	31.7208
3481	31.8563
3481.5	31.8302
3482	32.0243
3482.5	32.3049
3483	32.1133
3483.5	31.4182
3484	31.0202
3484.5	31.365
3485	31.8467
3485.5	31.7796
3486	31.5554
3486.5	32.1516
3487	33.7211
3487.5	35.3364
3488	36.1885
3488.5	36.2873
3489	36.001
3489.5	35.6141
3490	35.3707
3490.5	35.4601
3491	35.779
3491.5	35.9734
3492	35.8483
3492.5	35.5321
3493	35.3802
3493.5	35.8374
3494	37.1524
3494.5	39.0274
3495	40.7812
3495.5	42.1281
3496	43.3622
3496.5	44.7047
3497	45.9497
3497.5	46.9785
3498	48.1631
3498.5	49.8781
3499	51.9512
3499.5	54.0912
3500	56.2614
3500.5	58.3148
3501	59.7458
3501.5	60.4075
3502	61.2834
3502.5	63.6807
3503	67.6242
3503.5	71.666
3504	74.4217
3504.5	76.0627
3505	77.8987
3505.5	80.4911
3506	82.8457
3506.5	84.2957
3507	86.0398
3507.5	89.7428
3508	94.7191
3508.5	98.0213
3509	98.2746
3509.5	98.1629
3510	100.849
3510.5	105.745
3511	108.946
3511.5	107.805
3512	103.717
3512.5	100.187
3513	98.8087
3513.5	98.4668
3514	97.3031
3514.5	94.7486
3515	91.7611
3515.5	89.3709
3516	87.1399
3516.5	83.7978
3517	79.2212
3517.5	75.0255
3518	72.6478
3518.5	71.3365
3519	69.0271
3519.5	65.3863
3520	62.1821
3520.5	60.695
3521	60.026
3521.5	58.555
3522	56.1157
3522.5	53.7444
3523	51.7809
3523.5	49.7405
3524	47.4906
3524.5	45.4736
3525	43.9794
3525.5	43.0718
3526	42.9183
3526.5	43.2528
3527	42.907
3527.5	41.0836
3528	38.8713
3528.5	38.2996
3529	39.4388
3529.5	40.2136
3530	39.058
3530.5	36.6248
3531	34.7453
3531.5	34.468
3532	35.2906
3532.5	35.9232
3533	35.4549
3533.5	33.9745
3534	32.3379
3534.5	31.2089
3535	30.4864
3535.5	29.7571
3536	28.9156
3536.5	28.1471
3537	27.9021
3537.5	28.7901
3538	30.7561
3538.5	32.4431
3539	32.6933
3539.5	32.0679
3540	31.8938
3540.5	32.0112
3541	30.9187
3541.5	28.4957
3542	26.3341
3542.5	25.4043
3543	25.202
3543.5	25.3788
3544	26.4545
3544.5	28.0871
3545	28.7727
3545.5	27.911
3546	26.6884
3546.5	26.2771
3547	26.361
3547.5	26.1843
3548	25.8897
3548.5	25.8335
3549	25.8453
3549.5	25.7489
3550	25.8681
3550.5	26.3888
3551	26.8848
3551.5	26.7929
3552	25.99
3552.5	24.8587
3553	24.0284
3553.5	23.8165
3554	23.9148
3554.5	23.871
3555	23.8482
3555.5	24.2959
3556	24.7615
3556.5	24.1976
3557	22.7225
3557.5	21.8732
3558	22.7179
3558.5	24.5053
3559	25.6721
3559.5	25.5458
3560	24.354
3560.5	22.7926
3561	21.9063
3561.5	22.36
3562	23.264
3562.5	23.3064
3563	22.9023
3563.5	23.9157
3564	26.6697
3564.5	28.5282
3565	27.129
3565.5	23.4425
3566	20.5065
3566.5	20.1131
3567	21.5793
3567.5	23.1568
3568	23.8894
3568.5	23.8081
3569	23.3456
3569.5	22.6614
3570	21.4428
3570.5	19.7268
3571	18.5002
3571.5	18.8034
3572	20.3007
3572.5	21.5329
3573	21.8414
3573.5	21.9229
3574	22.3291
3574.5	22.7376
3575	22.8457
3575.5	22.882
3576	22.6616
3576.5	21.4395
3577	19.4126
3577.5	18.2584
3578	19.2
3578.5	20.9774
3579	21.6767
3579.5	21.392
3580	21.8426
3580.5	23.4731
3581	24.2636
3581.5	22.6961
3582	20.1707
3582.5	19.5014
3583	21.5651
3583.5	24.3068
3584	25.3755
3584.5	24.4374
3585	22.5467
3585.5	20.7695
3586	19.8434
3586.5	20.082
3587	21.0935
3587.5	22.0076
3588	22.4965
3588.5	23.0282
3589	23.6583
3589.5	23.5475
3590	22.3148
3590.5	20.9706
3591	20.8563
3591.5	21.8986
3592	22.8206
3592.5	22.6334
3593	21.3456
3593.5	19.83
3594	19.2305
3594.5	19.8941
3595	21.0427
3595.5	21.8321
3596	22.724
3596.5	24.9799
3597	28.528
3597.5	31.805
3598	33.4509
3598.5	33.238
3599	31.34
3599.5	28.0326
3600	24.3299
3600.5	21.7899
3601	20.8713
3601.5	20.3809
3602	19.455
3602.5	18.9452
3603	19.9258
3603.5	21.7143
3604	22.3145
3604.5	21.1514
3605	19.947
3605.5	20.7899
3606	23.586
3606.5	25.7703
3607	25.3571
3607.5	23.2486
3608	21.8482
3608.5	21.8522
3609	21.5509
3609.5	20.1236
3610	19.298
3610.5	20.565
3611	22.198
3611.5	21.2626
3612	18.3527
3612.5	17.0052
3613	19.017
3613.5	22.2395
3614	23.8106
3614.5	23.6276
3615	22.8353
3615.5	21.6064
3616	19.861
3616.5	18.7699
3617	19.2194
3617.5	20.1168
3618	19.7729
3618.5	18.4444
3619	17.8958
3619.5	18.6517
3620	19.7748
3620.5	20.5675
3621	21.2934
3621.5	22.1522
3622	22.7909
3622.5	22.849
3623	22.2538
3623.5	21.1712
3624	19.9757
3624.5	19.1803
3625	19.1112
3625.5	19.7256
3626	20.5918
3626.5	21.1002
3627	20.8988
3627.5	20.5271
3628	20.9083
3628.5	21.7091
3629	21.6478
3629.5	20.6725
3630	20.5938
3630.5	22.1248
3631	23.2176
3631.5	21.8515
3632	18.9994
3632.5	17.4636
3633	18.094
3633.5	19.5494
3634	20.5548
3634.5	20.8525
3635	20.585
3635.5	20.0459
3636	19.8217
3636.5	20.1383
3637	20.3143
3637.5	19.7367
3638	18.7596
3638.5	18.0586
3639	17.8403
3639.5	18.0661
3640	18.7148
3640.5	19.2791
3641	18.8869
3641.5	17.561
3642	16.6124
3642.5	16.9417
3643	18.0696
3643.5	19.0087
3644	19.5634
3644.5	20.1015
3645	20.6725
3645.5	20.9127
3646	20.4621
3646.5	19.3181
3647	17.8244
3647.5	16.5222
3648	15.7312
3648.5	15.3717
3649	15.5394
3649.5	16.6416
3650	18.5672
3650.5	20.115
3651	20.2489
3651.5	19.3632
3652	18.7404
3652.5	18.9074
3653	19.0597
3653.5	18.5527
3654	17.8992
3654.5	18.2069
3655	19.5123
3655.5	20.4944
3656	19.8499
3656.5	17.7001
3657	15.5719
3657.5	14.697
3658	15.1632
3658.5	16.3279
3659	17.3983
3659.5	17.8288
3660	17.6213
3660.5	17.3485
3661	17.5144
3661.5	17.9027
3662	18.1871
3662.5	18.4613
3663	18.7741
3663.5	18.7496
3664	18.4107
3664.5	18.4982
3665	19.3189
3665.5	19.9485
3666	19.7316
3666.5	19.3259
3667	19.4678
3667.5	19.5259
3668	18.6699
3668.5	17.527
3669	17.498
3669.5	18.8566
3670	20.4805
3670.5	21.4169
3671	21.5213
3671.5	21.174
3672	20.886
3672.5	20.9105
3673	20.8798
3673.5	19.9101
3674	17.744
3674.5	15.3791
3675	14.377
3675.5	15.3534
3676	17.0436
3676.5	17.8322
3677	17.4398
3677.5	16.9053
3678	16.833
3678.5	16.8373
3679	17.0291
3679.5	18.4994
3680	21.1143
3680.5	22.696
3681	21.5748
3681.5	18.9651
3682	17.4796
3682.5	17.7106
3683	18.3791
3683.5	18.4966
3684	18.2398
3684.5	17.9546
3685	17.7582
3685.5	17.799
3686	18.0731
3686.5	18.3298
3687	18.4196
3687.5	18.2645
3688	17.5662
3688.5	16.2624
3689	15.0778
3689.5	14.9074
3690	15.6733
3690.5	16.8915
3691	18.418
3691.5	19.8695
3692	20.2244
3692.5	19.1458
3693	17.7375
3693.5	17.2926
3694	17.746
3694.5	18.739
3695	20.6364
3695.5	23.8286
3696	27.6022
3696.5	30.7701
3697	32.0924
3697.5	30.4893
3698	26.3667
3698.5	21.9918
3699	19.8924
3699.5	20.042
3700	20.2432
