#Imported=	16.12.2021 13:56:04
50	0
50.5	0.45934
51	1.06583
51.5	1.61358
52	1.92465
52.5	1.87509
53	1.54181
53.5	1.1495
54	1.0328
54.5	1.42868
55	2.21892
55.5	3.16167
56	3.88995
56.5	4.16922
57	3.90239
57.5	3.37169
58	3.05675
58.5	3.33082
59	4.3541
59.5	5.95066
60	7.84758
60.5	9.59633
61	10.9514
61.5	11.8675
62	12.4763
62.5	13.0143
63	13.6791
63.5	14.6438
64	15.9225
64.5	17.5258
65	19.4937
65.5	21.8186
66	24.5591
66.5	27.767
67	31.3354
67.5	35.1151
68	38.931
68.5	42.6108
69	46.0088
69.5	48.9729
70	51.4918
70.5	53.6018
71	55.386
71.5	57.0329
72	58.6971
72.5	60.567
73	62.7482
73.5	65.2597
74	68.0239
74.5	70.8693
75	73.6747
75.5	76.3284
76	78.8268
76.5	81.2011
77	83.4774
77.5	85.6233
78	87.5112
78.5	88.8597
79	89.565
79.5	89.5063
80	88.8268
80.5	88.0437
81	87.5537
81.5	87.8514
82	88.9458
82.5	90.7046
83	92.6542
83.5	94.2001
84	95.0595
84.5	95.0467
85	94.5071
85.5	93.7703
86	93.2309
86.5	92.9641
87	92.8218
87.5	92.5551
88	92.0263
88.5	91.2762
89	90.5913
89.5	90.4199
90	90.9535
90.5	92.2556
91	93.942
91.5	95.6219
92	96.8689
92.5	97.558
93	97.9116
93.5	98.3142
94	99.0872
94.5	100.349
95	102.099
95.5	104.069
96	106.015
96.5	107.837
97	109.636
97.5	111.569
98	113.82
98.5	116.44
99	119.386
99.5	122.583
100	125.957
100.5	129.518
101	133.333
101.5	137.391
102	141.586
102.5	145.703
103	149.56
103.5	153.187
104	156.812
104.5	160.88
105	165.8
105.5	172.077
106	179.733
106.5	188.163
107	196.767
107.5	204.834
108	211.95
108.5	217.847
109	222.689
109.5	227.088
110	231.534
110.5	236.36
111	241.595
111.5	247.114
112	252.6
112.5	257.739
113	262.359
113.5	266.451
114	270.149
114.5	273.489
115	276.438
115.5	278.917
116	280.744
116.5	281.887
117	282.59
117.5	283.135
118	283.938
118.5	285.283
119	287.382
119.5	290.174
120	293.285
120.5	296.492
121	299.63
121.5	302.694
122	305.77
122.5	309.035
123	312.551
123.5	316.346
124	320.497
124.5	325.044
125	330.143
125.5	336.079
126	342.799
126.5	349.999
127	356.956
127.5	362.812
128	366.696
128.5	367.355
129	364.817
129.5	359.121
130	350.898
130.5	341.681
131	332.448
131.5	324.315
132	317.696
132.5	312.793
133	309.767
133.5	307.816
134	306.65
134.5	306.167
135	306.153
135.5	306.537
136	307.186
136.5	307.675
137	307.61
137.5	306.525
138	304.525
138.5	301.903
139	299.272
139.5	297.453
140	296.976
140.5	298.038
141	300.011
141.5	302.234
142	303.922
142.5	304.631
143	304.266
143.5	303.088
144	301.772
144.5	300.735
145	300.304
145.5	300.471
146	301.108
146.5	302.11
147	303.311
147.5	304.62
148	305.949
148.5	307.137
149	307.994
149.5	308.224
150	307.67
150.5	306.395
151	304.624
151.5	302.721
152	300.97
152.5	299.563
153	298.474
153.5	297.521
154	296.474
154.5	295.246
155	293.954
155.5	292.863
156	292.279
156.5	292.349
157	293.135
157.5	294.339
158	295.493
158.5	296.244
159	296.424
159.5	296.148
160	295.615
160.5	295.147
161	294.969
161.5	295.133
162	295.558
162.5	296.114
163	296.75
163.5	297.478
164	298.337
164.5	299.363
165	300.467
165.5	301.494
166	302.295
166.5	302.767
167	302.968
167.5	302.989
168	302.972
168.5	302.989
169	302.989
169.5	302.847
170	302.488
170.5	301.908
171	301.253
171.5	300.849
172	301.058
172.5	302.197
173	304.154
173.5	306.75
174	309.588
174.5	312.135
175	313.934
175.5	314.514
176	314.155
176.5	313.076
177	311.577
177.5	310.039
178	308.649
178.5	307.547
179	306.741
179.5	306.3
180	306.488
180.5	307.411
181	309.182
181.5	311.885
182	315.072
182.5	318.284
183	320.835
183.5	322.525
184	323.347
184.5	323.443
185	323.357
185.5	323.489
186	324.305
186.5	325.886
187	328.08
187.5	330.703
188	333.374
188.5	335.821
189	337.744
189.5	339.136
190	340.121
190.5	341.07
191	342.405
191.5	344.396
192	347.308
192.5	350.982
193	355.226
193.5	359.922
194	364.962
194.5	370.374
195	376.293
195.5	382.609
196	389.071
196.5	395.244
197	400.716
197.5	405.263
198	408.961
198.5	412.301
199	415.688
199.5	419.409
200	423.448
200.5	427.595
201	431.535
201.5	435.05
202	438.184
202.5	440.959
203	443.387
203.5	445.368
204	446.612
204.5	446.959
205	446.507
205.5	445.657
206	445.025
206.5	444.959
207	445.526
207.5	446.28
208	446.551
208.5	445.559
209	442.845
209.5	438.914
210	434.321
210.5	429.742
211	425.507
211.5	421.555
212	417.413
212.5	412.539
213	406.576
213.5	399.764
214	392.726
214.5	386.061
215	380.282
215.5	375.453
216	371.561
216.5	368.53
217	366.226
217.5	364.768
218	364.248
218.5	364.334
219	364.516
219.5	363.932
220	361.976
220.5	358.227
221	353.165
221.5	347.898
222	343.316
222.5	340.125
223	338.117
223.5	336.809
224	335.389
224.5	333.31
225	330.654
225.5	327.967
226	325.846
226.5	324.602
227	324.205
227.5	324.001
228	323.356
228.5	321.59
229	318.951
229.5	315.787
230	312.613
230.5	309.848
231	307.691
231.5	306.313
232	305.585
232.5	305.486
233	305.992
233.5	306.744
234	307.347
234.5	307.1
235	305.671
235.5	302.938
236	299.056
236.5	295.081
237	291.872
237.5	290.313
238	290.341
238.5	291.691
239	293.961
239.5	296.451
240	298.79
240.5	300.742
241	302.319
241.5	303.45
242	303.848
242.5	303.393
243	302.026
243.5	299.743
244	297.016
244.5	294.344
245	292.205
245.5	290.723
246	289.844
246.5	289.517
247	289.588
247.5	290.019
248	290.905
248.5	292.178
249	293.565
249.5	294.649
250	295.05
250.5	294.63
251	293.411
251.5	291.874
252	290.565
252.5	290.054
253	290.338
253.5	291.074
254	291.792
254.5	292.037
255	291.651
255.5	290.67
256	289.461
256.5	288.455
257	287.986
257.5	288.121
258	288.725
258.5	289.675
259	290.798
259.5	291.988
260	293.252
260.5	294.716
261	296.557
261.5	299.002
262	302.164
262.5	305.879
263	309.843
263.5	313.469
264	316.204
264.5	317.451
265	316.878
265.5	314.962
266	311.996
266.5	308.358
267	304.389
267.5	300.209
268	295.932
268.5	291.755
269	288.048
269.5	285.195
270	283.178
270.5	281.832
271	280.743
271.5	279.493
272	277.974
272.5	276.508
273	275.755
273.5	276.322
274	278.346
274.5	281.038
275	283.509
275.5	284.684
276	284.322
276.5	282.637
277	280.471
277.5	279.029
278	278.947
278.5	280.354
279	282.446
279.5	284.503
280	285.726
280.5	285.921
281	285.133
281.5	283.561
282	281.73
282.5	279.935
283	278.458
283.5	277.438
284	276.997
284.5	277.284
285	278.041
285.5	279.004
286	279.746
286.5	280.065
287	280.034
287.5	279.946
288	280.17
288.5	280.877
289	282.029
289.5	283.156
290	283.777
290.5	283.273
291	281.85
291.5	279.868
292	277.85
292.5	276.268
293	275.311
293.5	275.017
294	275.071
294.5	275.229
295	275.375
295.5	275.579
296	275.956
296.5	276.616
297	277.484
297.5	278.415
298	279.229
298.5	279.835
299	280.255
299.5	280.579
300	280.854
300.5	280.987
301	280.704
301.5	279.789
302	278.204
302.5	276.096
303	274.021
303.5	272.666
304	272.695
304.5	274.094
305	276.356
305.5	278.727
306	280.308
306.5	280.619
307	279.465
307.5	277.386
308	275.299
308.5	274.122
309	274.275
309.5	275.52
310	277.386
310.5	279.099
311	280.086
311.5	279.977
312	278.845
312.5	277.142
313	275.349
313.5	273.856
314	272.787
314.5	272.19
315	272.046
315.5	272.303
316	273.044
316.5	274.352
317	276.155
317.5	278.261
318	280.271
318.5	281.811
319	282.556
319.5	282.335
320	281.381
320.5	279.953
321	278.449
321.5	277.24
322	276.554
322.5	276.453
323	276.753
323.5	277.305
324	277.943
324.5	278.551
325	279.118
325.5	279.727
326	280.485
326.5	281.443
327	282.47
327.5	283.266
328	283.508
328.5	282.845
329	281.442
329.5	279.606
330	277.948
330.5	277.018
331	277.148
331.5	278.196
332	279.404
332.5	280.182
333	279.949
333.5	278.855
334	277.224
334.5	275.598
335	274.426
335.5	273.865
336	273.873
336.5	274.098
337	274.426
337.5	274.902
338	275.584
338.5	276.484
339	277.483
339.5	278.325
340	278.831
340.5	278.93
341	278.958
341.5	279.203
342	279.879
342.5	280.802
343	281.642
343.5	281.924
344	281.492
344.5	280.471
345	279.24
345.5	278.352
346	278.021
346.5	278.236
347	278.632
347.5	278.921
348	278.969
348.5	278.975
349	279.288
349.5	280.395
350	282.488
350.5	285.419
351	288.898
351.5	292.518
352	296.064
352.5	299.514
353	303.042
353.5	306.845
354	311.064
354.5	315.513
355	319.678
355.5	322.664
356	323.704
356.5	322.478
357	318.761
357.5	313.252
358	307.093
358.5	301.507
359	297.535
359.5	295.434
360	295.067
360.5	295.344
361	295.323
361.5	294.475
362	292.921
362.5	291.315
363	290.468
363.5	291.009
364	292.877
364.5	295.72
365	298.735
365.5	301.26
366	302.997
366.5	303.966
367	304.404
367.5	304.344
368	303.657
368.5	302.244
369	299.994
369.5	297.09
370	294.125
370.5	291.707
371	290.265
371.5	289.638
372	289.492
372.5	289.282
373	288.625
373.5	287.394
374	285.738
374.5	284.059
375	282.709
375.5	281.959
376	281.773
376.5	282.13
377	282.973
377.5	284.052
378	285.12
378.5	285.806
379	285.931
379.5	285.486
380	284.796
380.5	284.537
381	285.199
381.5	287.071
382	289.55
382.5	291.887
383	292.947
383.5	292.296
384	289.877
384.5	286.049
385	282.044
385.5	278.832
386	277.377
386.5	277.519
387	278.992
387.5	281.364
388	283.823
388.5	285.842
389	286.851
389.5	286.847
390	285.968
390.5	284.547
391	283.27
391.5	282.586
392	282.917
392.5	284.127
393	285.991
393.5	288.211
394	290.36
394.5	292.131
395	293.121
395.5	293.169
396	292.194
396.5	290.316
397	288.199
397.5	286.53
398	286.135
398.5	287.195
399	289.385
399.5	291.959
400	293.843
400.5	294.376
401	293.236
401.5	291.192
402	289.33
402.5	288.628
403	289.36
403.5	291.171
404	293.407
404.5	295.208
405	296.082
405.5	295.755
406	294.496
406.5	292.744
407	290.9
407.5	289.287
408	288.04
408.5	287.275
409	286.988
409.5	287.09
410	287.528
410.5	288.193
411	288.992
411.5	289.871
412	290.726
412.5	291.366
413	291.482
413.5	290.798
414	289.339
414.5	287.306
415	285.285
415.5	283.906
416	283.72
416.5	284.88
417	286.905
417.5	289.167
418	290.853
418.5	291.648
419	291.51
419.5	290.687
420	289.582
420.5	288.407
421	287.275
421.5	286.227
422	285.364
422.5	284.918
423	285.051
423.5	285.907
424	287.334
424.5	288.883
425	290.175
425.5	290.904
426	291.147
426.5	291.09
427	291.019
427.5	291.122
428	291.423
428.5	291.818
429	292.161
429.5	292.394
430	292.489
430.5	292.395
431	291.922
431.5	290.673
432	288.571
432.5	285.692
433	282.502
433.5	279.857
434	278.495
434.5	279.217
435	281.58
435.5	284.88
436	288.106
436.5	290.518
437	291.855
437.5	292.089
438	291.813
438.5	291.405
439	291.176
439.5	291.213
440	291.526
440.5	292.18
441	293.131
441.5	294.296
442	295.493
442.5	296.508
443	297.262
443.5	297.851
444	298.576
444.5	299.663
445	301.211
445.5	302.891
446	304.307
446.5	305.071
447	305.375
447.5	305.8
448	307.151
448.5	309.718
449	313.267
449.5	317.139
450	320.429
450.5	322.656
451	323.729
451.5	324.364
452	325.371
452.5	327.557
453	331.121
453.5	335.75
454	341.191
454.5	347.219
455	353.884
455.5	361.568
456	370.5
456.5	380.681
457	392.151
457.5	404.687
458	418.166
458.5	432.98
459	449.831
459.5	469.423
460	492.877
460.5	520.649
461	552.263
461.5	587.195
462	623.77
462.5	659.9
463	693.172
463.5	721.124
464	742.351
464.5	754.629
465	756.517
465.5	748.484
466	730.605
466.5	704.317
467	672.635
467.5	637.731
468	602.145
468.5	567.789
469	535.94
469.5	507.424
470	482.137
470.5	460.432
471	442.608
471.5	428.129
472	416.668
472.5	407.406
473	399.197
473.5	391.514
474	384.224
474.5	377.481
475	371.605
475.5	366.794
476	362.669
476.5	358.802
477	354.715
477.5	350.298
478	345.778
478.5	341.705
479	338.377
479.5	335.858
480	333.955
480.5	332.176
481	330.205
481.5	327.851
482	325.256
482.5	322.631
483	320.273
483.5	318.311
484	316.77
484.5	315.579
485	314.47
485.5	313.279
486	311.957
486.5	310.683
487	309.705
487.5	309.37
488	309.584
488.5	310.072
489	310.209
489.5	309.468
490	307.617
490.5	304.75
491	301.776
491.5	299.58
492	299.039
492.5	299.866
493	301.416
493.5	302.613
494	302.603
494.5	301.107
495	298.295
495.5	295.218
496	292.778
496.5	291.828
497	292.246
497.5	293.481
498	294.678
498.5	295.089
499	294.626
499.5	293.645
500	292.895
500.5	292.854
501	293.672
501.5	294.779
502	295.454
502.5	294.939
503	293.195
503.5	290.756
504	288.568
504.5	287.584
505	288.183
505.5	290.286
506	292.903
506.5	295.14
507	296.321
507.5	296.423
508	295.878
508.5	295.182
509	294.721
509.5	294.487
510	294.177
510.5	293.385
511	291.98
511.5	290.123
512	288.432
512.5	287.591
513	288.172
513.5	290.18
514	293.051
514.5	296.077
515	298.41
515.5	299.572
516	299.264
516.5	297.629
517	295.215
517.5	292.526
518	290.152
518.5	288.474
519	287.78
519.5	288.131
520	289.169
520.5	290.474
521	291.524
521.5	291.991
522	291.722
522.5	290.846
523	289.8
523.5	288.984
524	288.748
524.5	289.062
525	289.731
525.5	290.331
526	290.463
526.5	289.858
527	288.429
527.5	286.561
528	284.655
528.5	283.162
529	282.26
529.5	281.978
530	282.212
530.5	282.668
531	283.203
531.5	283.779
532	284.426
532.5	285.164
533	285.894
533.5	286.401
534	286.465
534.5	285.9
535	284.98
535.5	284.084
536	283.715
536.5	283.98
537	284.746
537.5	285.589
538	286.011
538.5	285.777
539	284.875
539.5	283.836
540	283.119
540.5	283.201
541	283.967
541.5	285.128
542	286.22
542.5	286.895
543	287.099
543.5	286.964
544	286.766
544.5	286.618
545	286.486
545.5	286.259
546	285.909
546.5	285.587
547	285.588
547.5	286.154
548	287.438
548.5	289.087
549	290.616
549.5	291.39
550	291.19
550.5	290.172
551	288.816
551.5	287.766
552	287.328
552.5	287.56
553	288.095
553.5	288.592
554	288.862
554.5	289.018
555	289.303
555.5	289.94
556	290.867
556.5	291.811
557	292.406
557.5	292.508
558	292.305
558.5	292.22
559	292.676
559.5	293.657
560	294.726
560.5	295.111
561	294.273
561.5	291.928
562	288.571
562.5	285.121
563	282.54
563.5	281.449
564	281.737
564.5	283.031
565	284.613
565.5	285.944
566	286.817
566.5	287.374
567	287.909
567.5	288.607
568	289.444
568.5	290.262
569	290.931
569.5	291.426
570	291.829
570.5	292.173
571	292.365
571.5	292.233
572	291.566
572.5	290.292
573	288.686
573.5	287.125
574	286.088
574.5	285.748
575	286.099
575.5	286.896
576	287.757
576.5	288.488
577	289.082
577.5	289.685
578	290.393
578.5	291.187
579	291.908
579.5	292.389
580	292.509
580.5	292.373
581	292.111
581.5	291.841
582	291.577
582.5	291.238
583	290.723
583.5	290.113
584	289.612
584.5	289.597
585	290.197
585.5	291.353
586	292.71
586.5	293.766
587	294.223
587.5	293.897
588	293.107
588.5	292.103
589	291.083
589.5	290.098
590	289.124
590.5	288.209
591	287.523
591.5	287.285
592	287.754
592.5	288.733
593	289.945
593.5	291.038
594	291.899
594.5	292.681
595	293.722
595.5	295.072
596	296.432
596.5	297.078
597	296.545
597.5	294.822
598	292.425
598.5	290.478
599	289.791
599.5	290.876
600	293.02
600.5	295.225
601	296.342
601.5	295.97
602	294.41
602.5	292.388
603	290.838
603.5	290.202
604	290.532
604.5	291.236
605	291.702
605.5	291.467
606	290.561
606.5	289.333
607	288.295
607.5	287.924
608	288.384
608.5	289.651
609	291.285
609.5	292.809
610	293.844
610.5	294.333
611	294.493
611.5	294.547
612	294.584
612.5	294.439
613	293.774
613.5	292.428
614	290.675
614.5	289.101
615	288.433
615.5	288.832
616	290.027
616.5	291.18
617	291.527
617.5	290.6
618	288.563
618.5	286.112
619	283.93
619.5	282.607
620	282.292
620.5	283.101
621	285.021
621.5	287.776
622	291.092
622.5	294.394
623	297.063
623.5	298.62
624	298.973
624.5	298.724
625	298.512
625.5	298.888
626	299.714
626.5	300.437
627	300.247
627.5	298.863
628	296.361
628.5	293.26
629	290.317
629.5	288.007
630	286.62
630.5	285.968
631	285.918
631.5	286.349
632	287.013
632.5	287.706
633	288.109
633.5	288.048
634	287.49
634.5	286.611
635	285.828
635.5	285.438
636	285.629
636.5	286.147
637	286.706
637.5	287.012
638	287.095
638.5	287.163
639	287.634
639.5	288.71
640	290.399
640.5	292.455
641	294.286
641.5	295.425
642	295.429
642.5	294.65
643	293.615
643.5	293.132
644	293.575
644.5	294.806
645	296.073
645.5	296.33
646	294.939
646.5	291.654
647	287.574
647.5	283.877
648	281.894
648.5	281.857
649	283.405
649.5	285.865
650	288.436
650.5	290.839
651	293.019
651.5	294.944
652	296.353
652.5	296.623
653	295.485
653.5	293.109
654	290.09
654.5	287.51
655	286.104
655.5	286.286
656	287.483
656.5	288.829
657	289.447
657.5	288.997
658	287.766
658.5	286.394
659	285.655
659.5	285.892
660	287.078
660.5	288.544
661	289.519
661.5	289.301
662	287.792
662.5	285.566
663	283.444
663.5	282.266
664	282.306
664.5	283.462
665	285.067
665.5	286.424
666	287.1
666.5	287.132
667	286.939
667.5	286.952
668	287.419
668.5	288.199
669	288.949
669.5	289.214
670	288.791
670.5	287.639
671	286.039
671.5	284.479
672	283.439
672.5	283.304
673	284.005
673.5	285.289
674	286.597
674.5	287.39
675	287.34
675.5	286.462
676	285.257
676.5	284.214
677	283.758
677.5	283.89
678	284.465
678.5	285.2
679	285.802
679.5	286.08
680	285.89
680.5	285.329
681	284.582
681.5	284.067
682	284.173
682.5	285.129
683	286.834
683.5	288.571
684	289.64
684.5	289.387
685	288.16
685.5	286.622
686	285.797
686.5	286.088
687	287.296
687.5	288.586
688	289.034
688.5	288.299
689	286.638
689.5	285.129
690	284.515
690.5	285.236
691	286.513
691.5	287.461
692	287.025
692.5	285.194
693	282.35
693.5	279.252
694	276.729
694.5	275.208
695	274.997
695.5	275.725
696	277.073
696.5	278.737
697	280.409
697.5	281.974
698	283.409
698.5	284.766
699	286.011
699.5	286.901
700	287.158
700.5	286.576
701	285.051
701.5	283.081
702	281.271
702.5	280.328
703	280.423
703.5	281.273
704	282.277
704.5	282.729
705	282.316
705.5	281.022
706	279.364
706.5	277.846
707	276.874
707.5	276.508
708	276.615
708.5	277.09
709	277.795
709.5	278.647
710	279.554
710.5	280.341
711	280.853
711.5	280.961
712	280.736
712.5	280.364
713	280.023
713.5	279.806
714	279.665
714.5	279.508
715	279.291
715.5	279.083
716	279.007
716.5	279.102
717	279.216
717.5	279.047
718	278.307
718.5	277.031
719	275.507
719.5	274.305
720	273.824
720.5	274.2
721	275.084
721.5	275.861
722	276.074
722.5	275.653
723	275.055
723.5	274.854
724	275.535
724.5	276.998
725	278.896
725.5	280.637
726	281.802
726.5	282.168
727	281.663
727.5	280.462
728	278.605
728.5	276.199
729	273.654
729.5	271.498
730	270.477
730.5	270.853
731	272.685
731.5	275.65
732	278.89
732.5	281.739
733	283.534
733.5	284.196
734	283.741
734.5	282.282
735	280.298
735.5	278.096
736	275.985
736.5	274.137
737	272.63
737.5	271.59
738	271.061
738.5	271.235
739	272.48
739.5	274.631
740	277.385
740.5	280.027
741	281.77
741.5	282.123
742	280.759
742.5	278.43
743	275.791
743.5	273.543
744	271.919
744.5	270.85
745	270.175
745.5	269.686
746	269.396
746.5	269.439
747	269.76
747.5	270.191
748	270.442
748.5	270.377
749	270.102
749.5	269.971
750	270.339
750.5	271.313
751	272.747
751.5	274.14
752	275.114
752.5	275.462
753	275.473
753.5	275.54
754	276.032
754.5	276.895
755	277.776
755.5	278.122
756	277.635
756.5	276.422
757	274.905
757.5	273.775
758	273.463
758.5	274.146
759	275.368
759.5	276.486
760	276.823
760.5	276.109
761	274.545
761.5	272.549
762	270.749
762.5	269.555
763	269.228
763.5	269.683
764	270.651
764.5	271.89
765	273.074
765.5	273.909
766	274.047
766.5	273.279
767	271.738
767.5	269.767
768	268.081
768.5	267.3
769	267.855
769.5	269.548
770	271.582
770.5	273.071
771	273.323
771.5	272.445
772	270.939
772.5	269.701
773	269.321
773.5	269.98
774	271.326
774.5	272.732
775	273.796
775.5	274.399
776	274.745
776.5	274.958
777	274.96
777.5	274.544
778	273.501
778.5	271.872
779	270.149
779.5	268.877
780	268.544
780.5	268.995
781	269.822
781.5	270.355
782	270.19
782.5	269.276
783	267.937
783.5	266.768
784	266.167
784.5	266.35
785	267.005
785.5	267.795
786	268.34
786.5	268.52
787	268.383
787.5	268.104
788	267.897
788.5	267.842
789	267.936
789.5	268.089
790	268.302
790.5	268.729
791	269.531
791.5	270.819
792	272.589
792.5	274.407
793	275.818
793.5	276.161
794	275.368
794.5	273.58
795	271.225
795.5	269.114
796	267.836
796.5	267.979
797	269.259
797.5	271.164
798	272.834
798.5	273.534
799	273.018
799.5	271.502
800	270.008
800.5	269.401
801	270.365
801.5	272.406
802	274.614
802.5	275.826
803	275.629
803.5	274.392
804	273.051
804.5	272.613
805	273.392
805.5	275.152
806	277.026
806.5	278.468
807	279.407
807.5	280.354
808	281.745
808.5	283.622
809	285.337
809.5	286.129
810	285.342
810.5	283.257
811	280.694
811.5	278.574
812	277.376
812.5	276.845
813	276.294
813.5	274.945
814	272.548
814.5	269.26
815	265.789
815.5	262.82
816	260.867
816.5	259.98
817	259.798
817.5	259.925
818	259.932
818.5	259.628
819	259.036
819.5	258.424
820	258.111
820.5	258.365
821	259.228
821.5	260.435
822	261.658
822.5	262.545
823	262.961
823.5	262.871
824	262.356
824.5	261.559
825	260.52
825.5	259.304
826	258.067
826.5	257.042
827	256.542
827.5	256.678
828	257.456
828.5	258.668
829	259.917
829.5	260.916
830	261.508
830.5	261.842
831	262.129
831.5	262.574
832	263.135
832.5	263.55
833	263.316
833.5	262.209
834	260.224
834.5	257.753
835	255.556
835.5	254.216
836	254.153
836.5	254.981
837	256.277
837.5	257.592
838	258.728
838.5	259.71
839	260.534
839.5	261.044
840	260.918
840.5	259.747
841	257.865
841.5	255.827
842	254.538
842.5	254.299
843	254.875
843.5	255.421
844	255.069
844.5	253.558
845	251.306
845.5	249.504
846	248.993
846.5	250.295
847	252.548
847.5	254.782
848	255.917
848.5	255.781
849	254.72
849.5	253.401
850	252.497
850.5	252.233
851	252.564
851.5	253.07
852	253.444
852.5	253.44
853	253.055
853.5	252.348
854	251.341
854.5	250.111
855	248.726
855.5	247.344
856	246.286
856.5	245.921
857	246.755
857.5	248.773
858	251.55
858.5	254.293
859	256.061
859.5	256.391
860	255.207
860.5	253.328
861	251.675
861.5	251.016
862	251.439
862.5	252.509
863	253.638
863.5	254.272
864	254.177
864.5	253.212
865	251.497
865.5	249.327
866	247.116
866.5	245.468
867	244.775
867.5	245.21
868	246.333
868.5	247.442
869	248.032
869.5	248.154
870	248.392
870.5	249.39
871	251.277
871.5	253.345
872	254.489
872.5	253.762
873	251.371
873.5	248.181
874	245.707
874.5	244.928
875	246.166
875.5	248.822
876	251.712
876.5	253.971
877	255.093
877.5	255.262
878	254.724
878.5	253.828
879	252.956
879.5	252.425
880	252.553
880.5	253.296
881	254.402
881.5	255.263
882	255.352
882.5	254.421
883	252.685
883.5	250.908
884	249.692
884.5	249.358
885	249.435
885.5	249.299
886	248.303
886.5	246.591
887	244.728
887.5	243.71
888	243.96
888.5	245.332
889	246.938
889.5	247.578
890	246.555
890.5	243.681
891	240.176
891.5	237.176
892	235.947
892.5	236.423
893	238.132
893.5	240.239
894	241.913
894.5	242.879
895	243.124
895.5	243.053
896	242.892
896.5	242.806
897	242.911
897.5	243.339
898	244.275
898.5	245.534
899	246.734
899.5	247.144
900	246.393
900.5	244.544
901	242.177
901.5	240.383
902	239.888
902.5	241.037
903	242.962
903.5	244.585
904	244.669
904.5	242.957
905	239.934
905.5	236.661
906	234.44
906.5	233.979
907	235.611
907.5	238.509
908	241.673
908.5	244.093
909	245.281
909.5	245.33
910	244.563
910.5	243.604
911	242.854
911.5	242.513
912	242.511
912.5	242.683
913	242.882
913.5	242.955
914	242.772
914.5	242.121
915	240.855
915.5	238.971
916	236.527
916.5	233.829
917	231.256
917.5	229.221
918	228.05
918.5	227.834
919	228.664
919.5	230.333
920	232.386
920.5	234.308
921	235.54
921.5	235.865
922	235.287
922.5	234.259
923	233.404
923.5	233.196
924	233.733
924.5	234.57
925	235.088
925.5	234.675
926	233.303
926.5	231.3
927	229.466
927.5	228.491
928	228.773
928.5	230.219
929	232.118
929.5	233.807
930	234.684
930.5	234.704
931	234.011
931.5	232.933
932	231.826
932.5	230.871
933	230.219
933.5	229.954
934	230.231
934.5	231.172
935	232.476
935.5	233.648
936	233.861
936.5	232.765
937	230.412
937.5	227.532
938	225.383
938.5	224.892
939	226.642
939.5	229.651
940	232.825
940.5	234.818
941	235.325
941.5	234.661
942	233.664
942.5	233.188
943	233.437
943.5	234.058
944	234.258
944.5	233.553
945	231.702
945.5	229.328
946	227.013
946.5	225.446
947	224.794
947.5	225.048
948	226.143
948.5	227.624
949	229.105
949.5	230.073
950	230.308
950.5	229.852
951	229.049
951.5	228.525
952	228.663
952.5	229.58
953	230.742
953.5	231.578
954	231.55
954.5	230.758
955	229.587
955.5	228.524
956	227.809
956.5	227.331
957	226.798
957.5	226.008
958	225.042
958.5	224.184
959	223.659
959.5	223.409
960	223.113
960.5	222.405
961	221.224
961.5	219.835
962	218.78
962.5	218.39
963	218.72
963.5	219.309
964	219.682
964.5	219.571
965	219.121
965.5	218.618
966	218.172
966.5	217.569
967	216.484
967.5	214.745
968	212.797
968.5	211.484
969	211.786
969.5	214.034
970	217.518
970.5	221.049
971	223.221
971.5	223.51
972	222.044
972.5	219.862
973	218.097
973.5	217.385
974	217.594
974.5	217.956
975	217.741
975.5	216.596
976	214.934
976.5	213.49
977	213.136
977.5	214.118
978	216.292
978.5	218.9
979	221.023
979.5	222
980	221.521
980.5	220.028
981	218.02
981.5	216.149
982	214.87
982.5	214.449
983	215.01
983.5	216.257
984	217.888
984.5	219.409
985	220.382
985.5	220.546
986	219.895
986.5	218.942
987	218.136
987.5	217.807
988	217.74
988.5	217.521
989	216.642
989.5	215.187
990	213.578
990.5	212.574
991	212.454
991.5	213.01
992	213.455
992.5	213.092
993	211.801
993.5	210.118
994	209.06
994.5	209.219
995	210.758
995.5	212.7
996	214.238
996.5	214.744
997	214.64
997.5	214.574
998	215.268
998.5	216.605
999	217.99
999.5	218.38
1000	217.364
1000.5	215.123
1001	212.384
1001.5	210.202
1002	209.125
1002.5	209.343
1003	210.181
1003.5	211.01
1004	211.301
1004.5	211.081
1005	210.671
1005.5	210.535
1006	210.935
1006.5	211.83
1007	212.952
1007.5	213.877
1008	214.391
1008.5	214.497
1009	214.526
1009.5	214.742
1010	215.163
1010.5	215.412
1011	215.066
1011.5	213.852
1012	212.202
1012.5	210.858
1013	210.581
1013.5	211.328
1014	212.295
1014.5	212.265
1015	210.544
1015.5	207.57
1016	204.654
1016.5	203.335
1017	204.051
1017.5	206.294
1018	208.454
1018.5	209.257
1019	208.173
1019.5	205.972
1020	203.939
1020.5	203.11
1021	203.743
1021.5	205.285
1022	207.143
1022.5	208.841
1023	210.266
1023.5	211.379
1024	212.051
1024.5	212.126
1025	211.446
1025.5	210.146
1026	208.665
1026.5	207.395
1027	206.575
1027.5	206.132
1028	206.015
1028.5	206.252
1029	206.861
1029.5	207.813
1030	208.806
1030.5	209.399
1031	209.249
1031.5	208.319
1032	207.103
1032.5	206.128
1033	205.858
1033.5	206.231
1034	207.005
1034.5	207.801
1035	208.359
1035.5	208.583
1036	208.454
1036.5	208.085
1037	207.576
1037.5	207.145
1038	207.024
1038.5	207.362
1039	208.132
1039.5	208.943
1040	209.412
1040.5	209.165
1041	208.35
1041.5	207.234
1042	206.189
1042.5	205.38
1043	204.738
1043.5	204.048
1044	203.203
1044.5	202.305
1045	201.691
1045.5	201.556
1046	201.876
1046.5	202.333
1047	202.445
1047.5	202.035
1048	201.292
1048.5	200.828
1049	201.07
1049.5	202.133
1050	203.28
1050.5	203.713
1051	202.649
1051.5	200.524
1052	198.262
1052.5	197.231
1053	197.908
1053.5	199.881
1054	201.963
1054.5	202.892
1055	202.315
1055.5	200.749
1056	199.617
1056.5	199.841
1057	201.641
1057.5	203.986
1058	205.85
1058.5	206.481
1059	206.119
1059.5	205.369
1060	204.746
1060.5	204.311
1061	203.769
1061.5	202.785
1062	201.468
1062.5	200.276
1063	199.847
1063.5	200.423
1064	201.748
1064.5	203.304
1065	204.459
1065.5	204.956
1066	204.853
1066.5	204.58
1067	204.553
1067.5	205.068
1068	206.057
1068.5	207.155
1069	207.87
1069.5	207.847
1070	207.187
1070.5	206.321
1071	205.943
1071.5	206.41
1072	207.657
1072.5	208.987
1073	209.635
1073.5	209.111
1074	207.595
1074.5	205.839
1075	204.442
1075.5	203.646
1076	203.231
1076.5	203.01
1077	203.051
1077.5	203.652
1078	205.172
1078.5	207.613
1079	210.399
1079.5	212.896
1080	214.593
1080.5	215.547
1081	215.942
1081.5	215.918
1082	215.461
1082.5	214.402
1083	212.832
1083.5	211.274
1084	210.247
1084.5	209.983
1085	209.94
1085.5	209.364
1086	207.564
1086.5	204.879
1087	202.115
1087.5	200.444
1088	200.165
1088.5	200.887
1089	201.478
1089.5	200.927
1090	198.915
1090.5	195.921
1091	193.3
1091.5	192.02
1092	192.812
1092.5	194.998
1093	197.736
1093.5	199.814
1094	200.581
1094.5	199.964
1095	198.419
1095.5	197.008
1096	196.304
1096.5	196.411
1097	196.515
1097.5	195.898
1098	194.1
1098.5	191.943
1099	190.468
1099.5	190.759
1100	192.401
1100.5	194.388
1101	195.164
1101.5	194.122
1102	191.595
1102.5	188.749
1103	187.007
1103.5	187.018
1104	188.851
1104.5	191.37
1105	193.569
1105.5	194.486
1106	193.985
1106.5	192.416
1107	190.325
1107.5	188.487
1108	187.401
1108.5	187.435
1109	188.333
1109.5	189.644
1110	190.819
1110.5	191.422
1111	191.302
1111.5	190.413
1112	189.047
1112.5	187.556
1113	186.355
1113.5	185.751
1114	185.743
1114.5	186.132
1115	186.492
1115.5	186.57
1116	186.394
1116.5	186.334
1117	186.714
1117.5	187.654
1118	188.823
1118.5	189.78
1119	190.213
1119.5	190.196
1120	190.016
1120.5	189.867
1121	189.721
1121.5	189.479
1122	189.2
1122.5	189.187
1123	189.68
1123.5	190.653
1124	191.582
1124.5	191.851
1125	191.067
1125.5	189.466
1126	187.772
1126.5	186.589
1127	186.093
1127.5	185.868
1128	185.456
1128.5	184.708
1129	183.946
1129.5	183.614
1130	183.991
1130.5	184.846
1131	185.805
1131.5	186.45
1132	186.649
1132.5	186.413
1133	185.842
1133.5	185.114
1134	184.377
1134.5	183.892
1135	183.813
1135.5	184.184
1136	184.822
1136.5	185.351
1137	185.515
1137.5	185.244
1138	184.822
1138.5	184.535
1139	184.622
1139.5	184.995
1140	185.469
1140.5	185.772
1141	185.764
1141.5	185.431
1142	184.871
1142.5	184.317
1143	183.941
1143.5	183.869
1144	183.945
1144.5	183.927
1145	183.453
1145.5	182.49
1146	181.193
1146.5	179.96
1147	179.149
1147.5	178.888
1148	179.101
1148.5	179.451
1149	179.798
1149.5	180.136
1150	180.518
1150.5	180.906
1151	181.076
1151.5	180.825
1152	180.064
1152.5	178.841
1153	177.511
1153.5	176.357
1154	175.681
1154.5	175.534
1155	175.953
1155.5	177.09
1156	178.839
1156.5	180.995
1157	183.138
1157.5	184.717
1158	185.376
1158.5	184.904
1159	183.776
1159.5	182.591
1160	181.973
1160.5	182.045
1161	182.389
1161.5	182.277
1162	181.186
1162.5	179.174
1163	176.858
1163.5	175.312
1164	175.25
1164.5	177.004
1165	179.806
1165.5	182.583
1166	184.303
1166.5	184.615
1167	183.958
1167.5	182.929
1168	182.051
1168.5	181.382
1169	180.64
1169.5	179.471
1170	177.821
1170.5	175.957
1171	174.5
1171.5	173.979
1172	174.801
1172.5	176.774
1173	179.107
1173.5	180.887
1174	181.354
1174.5	180.492
1175	178.735
1175.5	177.096
1176	176.422
1176.5	177.146
1177	178.938
1177.5	180.893
1178	182.196
1178.5	182.374
1179	181.776
1179.5	180.885
1180	180.179
1180.5	179.774
1181	179.543
1181.5	179.248
1182	178.763
1182.5	178.061
1183	177.125
1183.5	175.921
1184	174.353
1184.5	172.458
1185	170.618
1185.5	169.318
1186	169.072
1186.5	169.79
1187	171.158
1187.5	172.597
1188	173.663
1188.5	174.27
1189	174.601
1189.5	174.921
1190	175.199
1190.5	175.105
1191	174.474
1191.5	173.418
1192	172.455
1192.5	172.099
1193	172.474
1193.5	173.162
1194	173.346
1194.5	172.557
1195	170.874
1195.5	169.393
1196	169.112
1196.5	170.802
1197	173.644
1197.5	176.589
1198	178.155
1198.5	177.904
1199	176.042
1199.5	173.404
1200	171.34
1200.5	170.681
1201	172.047
1201.5	174.602
1202	177.29
1202.5	178.755
1203	178.452
1203.5	176.528
1204	173.767
1204.5	171.517
1205	170.562
1205.5	171.232
1206	172.667
1206.5	173.955
1207	174.292
1207.5	173.766
1208	172.831
1208.5	172.084
1209	171.88
1209.5	172.229
1210	172.961
1210.5	173.701
1211	174.153
1211.5	174.013
1212	173.239
1212.5	172.016
1213	170.674
1213.5	169.619
1214	169.069
1214.5	169.124
1215	169.598
1215.5	170.277
1216	171.012
1216.5	171.68
1217	172.192
1217.5	172.443
1218	172.472
1218.5	172.426
1219	172.465
1219.5	172.591
1220	172.573
1220.5	172.013
1221	170.725
1221.5	168.987
1222	167.417
1222.5	166.76
1223	167.184
1223.5	168.411
1224	169.747
1224.5	170.684
1225	171.098
1225.5	171.253
1226	171.427
1226.5	171.563
1227	171.248
1227.5	170.137
1228	168.227
1228.5	166.242
1229	165.136
1229.5	165.723
1230	168.151
1230.5	171.478
1231	174.494
1231.5	175.859
1232	175.264
1232.5	173.019
1233	170.336
1233.5	168.52
1234	168.228
1234.5	169.363
1235	170.949
1235.5	172.146
1236	172.374
1236.5	171.859
1237	171.028
1237.5	170.338
1238	169.857
1238.5	169.343
1239	168.449
1239.5	167.127
1240	165.509
1240.5	163.882
1241	162.513
1241.5	161.578
1242	161.295
1242.5	161.656
1243	162.64
1243.5	164.017
1244	165.299
1244.5	166.147
1245	166.4
1245.5	166.454
1246	166.73
1246.5	167.58
1247	168.691
1247.5	169.498
1248	169.226
1248.5	168.042
1249	166.457
1249.5	165.353
1250	165.135
1250.5	165.651
1251	166.274
1251.5	166.371
1252	165.854
1252.5	165.202
1253	165.133
1253.5	165.874
1254	167.165
1254.5	168.229
1255	168.563
1255.5	167.942
1256	166.846
1256.5	165.717
1257	164.84
1257.5	164.127
1258	163.416
1258.5	162.748
1259	162.412
1259.5	162.721
1260	163.947
1260.5	165.784
1261	167.713
1261.5	168.99
1262	169.057
1262.5	167.781
1263	165.24
1263.5	162.162
1264	159.39
1264.5	157.946
1265	158.321
1265.5	160.333
1266	163.313
1266.5	165.861
1267	166.881
1267.5	165.766
1268	163.155
1268.5	160.295
1269	158.609
1269.5	158.927
1270	160.984
1270.5	163.864
1271	166.012
1271.5	166.434
1272	164.922
1272.5	162.401
1273	160.136
1273.5	159.155
1274	159.729
1274.5	161.27
1275	163.03
1275.5	164.295
1276	164.891
1276.5	164.946
1277	164.694
1277.5	164.265
1278	163.666
1278.5	163.01
1279	162.574
1279.5	162.713
1280	163.605
1280.5	164.892
1281	165.943
1281.5	166.071
1282	165.172
1282.5	163.512
1283	161.829
1283.5	160.828
1284	160.902
1284.5	161.969
1285	163.335
1285.5	164.336
1286	164.439
1286.5	163.703
1287	162.376
1287.5	160.932
1288	159.797
1288.5	159.159
1289	158.974
1289.5	158.899
1290	158.676
1290.5	158.177
1291	157.563
1291.5	157.084
1292	157.073
1292.5	157.579
1293	158.487
1293.5	159.384
1294	159.738
1294.5	159.22
1295	157.731
1295.5	155.929
1296	154.528
1296.5	154.413
1297	155.516
1297.5	157.335
1298	158.715
1298.5	158.885
1299	157.774
1299.5	155.929
1300	154.422
1300.5	153.791
1301	154.126
1301.5	154.693
1302	154.945
1302.5	154.656
1303	154.268
1303.5	154.151
1304	154.44
1304.5	154.743
1305	154.643
1305.5	153.84
1306	152.688
1306.5	151.742
1307	151.64
1307.5	152.419
1308	153.82
1308.5	155.401
1309	156.677
1309.5	157.405
1310	157.42
1310.5	156.865
1311	155.899
1311.5	154.613
1312	153.11
1312.5	151.468
1313	149.838
1313.5	148.494
1314	147.714
1314.5	147.826
1315	148.768
1315.5	150.15
1316	151.514
1316.5	152.424
1317	152.717
1317.5	152.401
1318	151.852
1318.5	151.535
1319	152.013
1319.5	153.399
1320	155.331
1320.5	157.072
1321	157.709
1321.5	156.821
1322	154.392
1322.5	151.258
1323	148.461
1323.5	146.745
1324	146.166
1324.5	146.294
1325	146.793
1325.5	147.464
1326	148.281
1326.5	149.216
1327	150.03
1327.5	150.449
1328	150.372
1328.5	150.097
1329	150.145
1329.5	150.966
1330	152.577
1330.5	154.362
1331	155.375
1331.5	154.713
1332	152.497
1332.5	149.367
1333	146.698
1333.5	145.616
1334	146.652
1334.5	149.287
1335	151.95
1335.5	153.353
1336	153.003
1336.5	151.779
1337	150.704
1337.5	150.577
1338	151.093
1338.5	151.459
1339	150.706
1339.5	148.981
1340	147.041
1340.5	146.039
1341	146.44
1341.5	148.147
1342	150.51
1342.5	152.597
1343	153.861
1343.5	154.158
1344	153.964
1344.5	153.656
1345	153.516
1345.5	153.467
1346	153.24
1346.5	152.46
1347	151.252
1347.5	150.066
1348	149.604
1348.5	149.972
1349	150.845
1349.5	151.418
1350	151.14
1350.5	149.999
1351	148.511
1351.5	147.281
1352	146.336
1352.5	145.306
1353	143.974
1353.5	142.653
1354	142.32
1354.5	143.502
1355	145.837
1355.5	148.024
1356	148.762
1356.5	147.689
1357	145.388
1357.5	143.476
1358	143.026
1358.5	144.501
1359	146.778
1359.5	148.891
1360	150.094
1360.5	150.407
1361	150.108
1361.5	149.43
1362	148.598
1362.5	147.764
1363	147.15
1363.5	146.916
1364	147.067
1364.5	147.489
1365	147.939
1365.5	148.295
1366	148.552
1366.5	148.774
1367	148.942
1367.5	148.965
1368	148.811
1368.5	148.55
1369	148.269
1369.5	147.944
1370	147.417
1370.5	146.548
1371	145.557
1371.5	144.975
1372	145.532
1372.5	147.496
1373	150.372
1373.5	153.13
1374	154.706
1374.5	154.876
1375	153.972
1375.5	152.917
1376	152.4
1376.5	152.635
1377	153.303
1377.5	154.007
1378	154.765
1378.5	155.879
1379	157.498
1379.5	159.432
1380	161.026
1380.5	161.684
1381	161.229
1381.5	160.09
1382	158.948
1382.5	158.214
1383	157.962
1383.5	157.977
1384	158.2
1384.5	158.743
1385	159.584
1385.5	160.404
1386	160.443
1386.5	159.172
1387	156.43
1387.5	152.814
1388	149.57
1388.5	147.553
1389	147.109
1389.5	147.636
1390	148.624
1390.5	149.724
1391	150.86
1391.5	151.982
1392	152.678
1392.5	152.455
1393	150.962
1393.5	148.331
1394	145.645
1394.5	143.989
1395	144.356
1395.5	146.051
1396	148.098
1396.5	149.103
1397	148.514
1397.5	146.421
1398	143.478
1398.5	140.799
1399	138.914
1399.5	138.129
1400	138.137
1400.5	138.808
1401	140.147
1401.5	141.844
1402	143.478
1402.5	144.304
1403	144.096
1403.5	143.075
1404	142.057
1404.5	141.97
1405	143.164
1405.5	145.136
1406	146.581
1406.5	146.751
1407	145.482
1407.5	143.803
1408	142.575
1408.5	142.215
1409	141.994
1409.5	141.154
1410	139.369
1410.5	137.383
1411	136.115
1411.5	136.35
1412	137.658
1412.5	139.083
1413	139.693
1413.5	139.341
1414	138.369
1414.5	137.197
1415	136.113
1415.5	135.195
1416	134.637
1416.5	134.733
1417	135.672
1417.5	137.446
1418	139.488
1418.5	141.195
1419	142.103
1419.5	142.327
1420	142.145
1420.5	141.698
1421	141.025
1421.5	140.134
1422	139.065
1422.5	137.945
1423	136.818
1423.5	135.658
1424	134.547
1424.5	133.756
1425	133.736
1425.5	134.685
1426	136.143
1426.5	137.409
1427	137.879
1427.5	137.576
1428	136.889
1428.5	136.419
1429	136.42
1429.5	136.81
1430	137.401
1430.5	138.112
1431	138.944
1431.5	139.731
1432	140.116
1432.5	139.801
1433	138.899
1433.5	137.901
1434	137.146
1434.5	136.548
1435	135.637
1435.5	134.109
1436	132.456
1436.5	131.651
1437	132.476
1437.5	134.922
1438	137.741
1438.5	139.584
1439	139.563
1439.5	138.28
1440	136.498
1440.5	134.944
1441	133.78
1441.5	132.907
1442	132.373
1442.5	132.373
1443	133.131
1443.5	134.574
1444	136.057
1444.5	136.967
1445	136.722
1445.5	135.593
1446	133.935
1446.5	132.143
1447	130.55
1447.5	129.336
1448	128.695
1448.5	128.522
1449	128.674
1449.5	129.075
1450	129.712
1450.5	130.715
1451	132.223
1451.5	133.881
1452	135.17
1452.5	135.409
1453	134.658
1453.5	133.252
1454	131.803
1454.5	130.839
1455	130.477
1455.5	130.665
1456	131.159
1456.5	131.843
1457	132.588
1457.5	133.187
1458	133.494
1458.5	133.512
1459	133.481
1459.5	133.557
1460	133.683
1460.5	133.555
1461	132.951
1461.5	131.946
1462	131.001
1462.5	130.454
1463	130.41
1463.5	130.519
1464	130.451
1464.5	130.117
1465	129.73
1465.5	129.397
1466	128.94
1466.5	128.035
1467	126.595
1467.5	125.048
1468	124.144
1468.5	124.262
1469	125.324
1469.5	126.497
1470	126.934
1470.5	126.179
1471	124.664
1471.5	123.123
1472	122.312
1472.5	122.649
1473	124.134
1473.5	126.56
1474	129.292
1474.5	131.685
1475	133.112
1475.5	133.361
1476	132.815
1476.5	132.179
1477	132.16
1477.5	132.846
1478	133.874
1478.5	134.514
1479	134.286
1479.5	133.1
1480	131.407
1480.5	129.694
1481	128.185
1481.5	126.861
1482	125.625
1482.5	124.578
1483	124.034
1483.5	124.187
1484	125.086
1484.5	126.397
1485	127.524
1485.5	127.96
1486	127.517
1486.5	126.51
1487	125.313
1487.5	124.382
1488	123.978
1488.5	124.215
1489	125.022
1489.5	126.135
1490	127.332
1490.5	128.327
1491	128.906
1491.5	128.902
1492	128.233
1492.5	127.105
1493	125.755
1493.5	124.608
1494	124.069
1494.5	124.358
1495	125.423
1495.5	126.743
1496	127.873
1496.5	128.4
1497	128.403
1497.5	128.157
1498	128.03
1498.5	128.184
1499	128.591
1499.5	129.071
1500	129.347
1500.5	129.216
1501	128.483
1501.5	127.352
1502	126.134
1502.5	125.453
1503	125.701
1503.5	126.843
1504	128.428
1504.5	129.629
1505	129.919
1505.5	128.937
1506	127.184
1506.5	125.217
1507	123.527
1507.5	122.336
1508	121.726
1508.5	121.822
1509	122.418
1509.5	123.23
1510	123.903
1510.5	124.211
1511	124.165
1511.5	123.936
1512	123.746
1512.5	123.576
1513	123.242
1513.5	122.674
1514	122.03
1514.5	121.752
1515	122.039
1515.5	122.714
1516	123.264
1516.5	123.167
1517	122.306
1517.5	121.041
1518	120.112
1518.5	119.904
1519	120.446
1519.5	121.209
1520	121.655
1520.5	121.582
1521	121.372
1521.5	121.549
1522	122.576
1522.5	124.368
1523	126.372
1523.5	127.847
1524	128.31
1524.5	127.769
1525	126.43
1525.5	124.833
1526	123.132
1526.5	122.138
1527	121.711
1527.5	121.456
1528	121.076
1528.5	120.595
1529	120.357
1529.5	120.709
1530	121.65
1530.5	122.764
1531	123.556
1531.5	123.648
1532	123.028
1532.5	121.918
1533	120.655
1533.5	119.553
1534	118.813
1534.5	118.507
1535	118.749
1535.5	119.158
1536	119.496
1536.5	119.803
1537	120.242
1537.5	120.93
1538	121.515
1538.5	121.516
1539	120.661
1539.5	119.37
1540	118.452
1540.5	118.963
1541	120.833
1541.5	123.306
1542	125.052
1542.5	125.213
1543	123.464
1543.5	121.112
1544	119.413
1544.5	119.198
1545	120.197
1545.5	121.565
1546	122.011
1546.5	121.197
1547	119.41
1547.5	117.639
1548	116.582
1548.5	116.536
1549	116.838
1549.5	116.941
1550	116.713
1550.5	116.526
1551	117.018
1551.5	118.244
1552	119.564
1552.5	119.986
1553	119.174
1553.5	117.409
1554	116.01
1554.5	115.98
1555	117.607
1555.5	120.04
1556	122.203
1556.5	123.008
1557	122.572
1557.5	121.537
1558	120.607
1558.5	120.077
1559	119.894
1559.5	119.746
1560	119.483
1560.5	119.122
1561	118.739
1561.5	118.332
1562	117.805
1562.5	117.15
1563	116.507
1563.5	116.152
1564	116.261
1564.5	116.94
1565	118.024
1565.5	119.196
1566	120.202
1566.5	120.962
1567	121.53
1567.5	122.053
1568	122.626
1568.5	123.181
1569	123.54
1569.5	123.613
1570	123.419
1570.5	123.21
1571	123.148
1571.5	123.13
1572	122.785
1572.5	121.754
1573	119.888
1573.5	117.75
1574	116.196
1574.5	115.945
1575	117.089
1575.5	119.395
1576	121.928
1576.5	123.889
1577	124.671
1577.5	124.353
1578	123.107
1578.5	121.385
1579	119.71
1579.5	118.481
1580	117.824
1580.5	117.685
1581	118.015
1581.5	118.681
1582	119.67
1582.5	120.924
1583	122.275
1583.5	123.529
1584	124.496
1584.5	125.128
1585	125.467
1585.5	125.62
1586	125.617
1586.5	125.461
1587	125.244
1587.5	125.076
1588	124.964
1588.5	124.715
1589	124.057
1589.5	122.93
1590	121.63
1590.5	120.88
1591	121.044
1591.5	121.986
1592	123.077
1592.5	123.641
1593	123.37
1593.5	122.691
1594	122.219
1594.5	122.207
1595	122.322
1595.5	122.097
1596	121.143
1596.5	119.905
1597	118.956
1597.5	118.701
1598	118.958
1598.5	119.352
1599	119.528
1599.5	119.631
1600	120.07
1600.5	121.012
1601	122.272
1601.5	123.323
1602	123.718
1602.5	123.461
1603	122.982
1603.5	122.683
1604	122.748
1604.5	122.99
1605	123.134
1605.5	123.072
1606	123.03
1606.5	123.224
1607	123.697
1607.5	124.112
1608	123.905
1608.5	122.816
1609	121.174
1609.5	119.668
1610	119.056
1610.5	119.622
1611	121.063
1611.5	122.257
1612	122.474
1612.5	121.498
1613	119.918
1613.5	118.578
1614	118.264
1614.5	118.929
1615	120.227
1615.5	121.575
1616	122.684
1616.5	123.445
1617	123.938
1617.5	124.175
1618	124.189
1618.5	124.142
1619	124.334
1619.5	124.997
1620	126.014
1620.5	126.693
1621	126.372
1621.5	124.726
1622	122.115
1622.5	119.603
1623	118.457
1623.5	119.097
1624	120.967
1624.5	123.104
1625	124.47
1625.5	124.638
1626	123.687
1626.5	122.46
1627	121.475
1627.5	121.013
1628	121.016
1628.5	121.397
1629	121.974
1629.5	122.545
1630	122.782
1630.5	122.461
1631	121.502
1631.5	120.152
1632	119.017
1632.5	118.718
1633	119.464
1633.5	121.002
1634	122.935
1634.5	124.729
1635	126.07
1635.5	126.729
1636	126.843
1636.5	126.529
1637	126.055
1637.5	125.709
1638	125.686
1638.5	125.818
1639	125.703
1639.5	124.91
1640	123.557
1640.5	122.082
1641	121.276
1641.5	121.53
1642	122.591
1642.5	123.571
1643	123.779
1643.5	122.848
1644	121.257
1644.5	119.74
1645	119.065
1645.5	119.182
1646	119.811
1646.5	120.496
1647	120.986
1647.5	121.264
1648	121.554
1648.5	122.029
1649	122.786
1649.5	123.731
1650	124.711
1650.5	125.455
1651	125.731
1651.5	125.433
1652	124.719
1652.5	123.905
1653	123.314
1653.5	123.088
1654	123.139
1654.5	123.229
1655	123.212
1655.5	123.122
1656	123.079
1656.5	123.116
1657	123.134
1657.5	122.971
1658	122.695
1658.5	122.6
1659	122.96
1659.5	123.772
1660	124.634
1660.5	124.891
1661	124.174
1661.5	122.888
1662	121.862
1662.5	121.898
1663	123.057
1663.5	124.662
1664	125.35
1664.5	124.49
1665	122.284
1665.5	119.75
1666	118.02
1666.5	117.769
1667	118.749
1667.5	120.017
1668	120.691
1668.5	120.587
1669	120.005
1669.5	119.503
1670	119.467
1670.5	119.981
1671	120.762
1671.5	121.505
1672	122.007
1672.5	122.2
1673	122.111
1673.5	121.782
1674	121.374
1674.5	121.015
1675	120.79
1675.5	120.668
1676	120.601
1676.5	120.577
1677	120.651
1677.5	120.878
1678	121.094
1678.5	121.036
1679	120.365
1679.5	119.169
1680	117.764
1680.5	116.819
1681	116.678
1681.5	117.343
1682	118.371
1682.5	119.316
1683	119.814
1683.5	119.797
1684	119.283
1684.5	118.363
1685	117.31
1685.5	116.47
1686	116.273
1686.5	116.814
1687	117.903
1687.5	118.832
1688	119.152
1688.5	118.783
1689	118.27
1689.5	118.092
1690	118.506
1690.5	119.203
1691	119.704
1691.5	119.754
1692	119.523
1692.5	119.351
1693	119.544
1693.5	120.223
1694	121.486
1694.5	123.231
1695	125.286
1695.5	127.168
1696	128.304
1696.5	128.076
1697	126.421
1697.5	123.797
1698	121.012
1698.5	118.762
1699	117.267
1699.5	116.476
1700	116.063
1700.5	115.787
1701	115.37
1701.5	114.613
1702	113.468
1702.5	112.275
1703	111.512
1703.5	111.797
1704	113.084
1704.5	114.993
1705	116.604
1705.5	117.333
1706	116.951
1706.5	115.794
1707	114.354
1707.5	113.166
1708	112.667
1708.5	113.174
1709	114.719
1709.5	116.721
1710	118.442
1710.5	119.041
1711	118.343
1711.5	116.632
1712	114.965
1712.5	114.069
1713	114.291
1713.5	115.18
1714	116.338
1714.5	117.436
1715	118.395
1715.5	119.171
1716	119.652
1716.5	119.752
1717	119.424
1717.5	118.819
1718	118.011
1718.5	116.908
1719	115.415
1719.5	113.621
1720	112.082
1720.5	111.323
1721	111.651
1721.5	112.596
1722	113.402
1722.5	113.269
1723	112.347
1723.5	111.379
1724	111.306
1724.5	112.303
1725	114.06
1725.5	115.752
1726	116.835
1726.5	117.123
1727	117.08
1727.5	117.053
1728	117.15
1728.5	117.191
1729	116.957
1729.5	116.293
1730	115.264
1730.5	113.986
1731	112.713
1731.5	111.676
1732	111.197
1732.5	111.364
1733	112.086
1733.5	112.975
1734	113.477
1734.5	113.267
1735	112.535
1735.5	111.824
1736	111.751
1736.5	112.52
1737	113.846
1737.5	115.025
1738	115.401
1738.5	114.861
1739	113.838
1739.5	112.974
1740	112.693
1740.5	112.957
1741	113.42
1741.5	113.743
1742	113.914
1742.5	114.091
1743	114.289
1743.5	114.215
1744	113.48
1744.5	111.994
1745	110.324
1745.5	109.541
1746	110.373
1746.5	112.546
1747	115.052
1747.5	116.573
1748	116.452
1748.5	114.924
1749	113.229
1749.5	112.621
1750	113.503
1750.5	115.239
1751	116.797
1751.5	117.261
1752	116.39
1752.5	114.47
1753	112.468
1753.5	111.241
1754	111.291
1754.5	112.401
1755	114.141
1755.5	115.745
1756	116.675
1756.5	116.494
1757	115.399
1757.5	113.738
1758	112.079
1758.5	110.826
1759	110.23
1759.5	110.296
1760	110.763
1760.5	111.253
1761	111.304
1761.5	110.68
1762	109.49
1762.5	108.294
1763	107.596
1763.5	107.706
1764	108.326
1764.5	108.904
1765	108.842
1765.5	108.123
1766	107.329
1766.5	107.23
1767	108.153
1767.5	109.874
1768	111.525
1768.5	112.337
1769	111.955
1769.5	110.824
1770	109.705
1770.5	109.225
1771	109.512
1771.5	110.437
1772	111.51
1772.5	112.365
1773	112.648
1773.5	112.258
1774	111.265
1774.5	110.1
1775	109.268
1775.5	109.294
1776	110.163
1776.5	111.484
1777	112.474
1777.5	112.53
1778	111.499
1778.5	109.943
1779	108.611
1779.5	108.111
1780	108.522
1780.5	109.495
1781	110.491
1781.5	111.047
1782	111.001
1782.5	110.503
1783	109.871
1783.5	109.332
1784	109.021
1784.5	108.949
1785	109.138
1785.5	109.593
1786	110.367
1786.5	111.524
1787	112.89
1787.5	114.217
1788	115.122
1788.5	115.427
1789	115.12
1789.5	114.576
1790	114.185
1790.5	114.186
1791	114.226
1791.5	113.83
1792	112.595
1792.5	110.808
1793	109.049
1793.5	108.039
1794	107.919
1794.5	108.389
1795	108.728
1795.5	108.677
1796	108.475
1796.5	108.627
1797	109.366
1797.5	110.463
1798	111.382
1798.5	111.718
1799	111.523
1799.5	111.172
1800	110.944
1800.5	110.787
1801	110.536
1801.5	110.123
1802	109.744
1802.5	109.637
1803	109.859
1803.5	110.139
1804	110.093
1804.5	109.591
1805	108.783
1805.5	107.941
1806	107.28
1806.5	106.862
1807	106.674
1807.5	106.658
1808	106.796
1808.5	107.023
1809	107.282
1809.5	107.605
1810	108.1
1810.5	108.824
1811	109.646
1811.5	110.196
1812	110.136
1812.5	109.449
1813	108.73
1813.5	108.723
1814	109.728
1814.5	111.312
1815	112.441
1815.5	112.14
1816	110.034
1816.5	106.539
1817	102.996
1817.5	100.712
1818	100.355
1818.5	101.558
1819	103.616
1819.5	105.5
1820	106.703
1820.5	107.107
1821	107.245
1821.5	107.59
1822	108.437
1822.5	109.514
1823	110.402
1823.5	110.758
1824	110.6
1824.5	110.124
1825	109.606
1825.5	109.059
1826	108.209
1826.5	106.839
1827	105.026
1827.5	103.424
1828	102.728
1828.5	103.51
1829	105.457
1829.5	107.757
1830	109.218
1830.5	109.218
1831	107.741
1831.5	105.566
1832	103.807
1832.5	103.146
1833	103.537
1833.5	104.384
1834	104.983
1834.5	104.996
1835	104.611
1835.5	104.461
1836	105.039
1836.5	106.367
1837	107.656
1837.5	108.088
1838	107.165
1838.5	105.433
1839	103.923
1839.5	103.866
1840	105.363
1840.5	107.733
1841	109.459
1841.5	109.513
1842	107.809
1842.5	105.428
1843	103.605
1843.5	103.304
1844	104.385
1844.5	106.151
1845	107.589
1845.5	108.098
1846	107.581
1846.5	106.556
1847	105.746
1847.5	105.63
1848	106.159
1848.5	106.891
1849	107.217
1849.5	106.87
1850	106.021
1850.5	105.28
1851	105.212
1851.5	106.055
1852	107.377
1852.5	108.565
1853	109.088
1853.5	108.833
1854	107.956
1854.5	106.689
1855	105.406
1855.5	104.434
1856	104.211
1856.5	104.887
1857	106.275
1857.5	107.554
1858	107.926
1858.5	106.746
1859	104.479
1859.5	102.037
1860	100.704
1860.5	100.937
1861	102.56
1861.5	104.545
1862	105.867
1862.5	105.991
1863	105.268
1863.5	104.351
1864	103.962
1864.5	104.334
1865	105.335
1865.5	106.448
1866	107.091
1866.5	106.835
1867	105.699
1867.5	104.218
1868	103.117
1868.5	102.877
1869	103.515
1869.5	104.703
1870	105.875
1870.5	106.745
1871	107.3
1871.5	107.695
1872	107.928
1872.5	107.808
1873	107.237
1873.5	106.372
1874	105.704
1874.5	105.552
1875	105.884
1875.5	106.189
1876	106.008
1876.5	105.323
1877	104.673
1877.5	104.813
1878	105.98
1878.5	107.67
1879	108.855
1879.5	108.913
1880	107.797
1880.5	106.152
1881	104.841
1881.5	104.469
1882	105.039
1882.5	106.091
1883	107.008
1883.5	107.312
1884	106.863
1884.5	105.844
1885	104.716
1885.5	103.861
1886	103.546
1886.5	103.712
1887	104.178
1887.5	104.596
1888	104.735
1888.5	104.404
1889	103.692
1889.5	102.742
1890	101.847
1890.5	101.272
1891	101.243
1891.5	101.81
1892	102.823
1892.5	104.078
1893	105.279
1893.5	106.243
1894	106.827
1894.5	107.098
1895	107.149
1895.5	107.137
1896	107.142
1896.5	107.106
1897	106.882
1897.5	106.405
1898	105.759
1898.5	105.243
1899	105.086
1899.5	105.34
1900	105.712
1900.5	105.891
1901	105.741
1901.5	105.442
1902	105.24
1902.5	105.121
1903	104.842
1903.5	104.117
1904	103.156
1904.5	102.459
1905	102.68
1905.5	103.851
1906	105.573
1906.5	107.007
1907	107.715
1907.5	107.686
1908	107.511
1908.5	107.518
1909	107.649
1909.5	107.553
1910	106.972
1910.5	105.949
1911	104.756
1911.5	103.619
1912	102.647
1912.5	101.897
1913	101.61
1913.5	101.962
1914	103.006
1914.5	104.337
1915	105.341
1915.5	105.547
1916	104.954
1916.5	103.934
1917	102.905
1917.5	102.116
1918	101.579
1918.5	101.259
1919	101.136
1919.5	101.293
1920	101.817
1920.5	102.682
1921	103.828
1921.5	105.034
1922	106.009
1922.5	106.28
1923	105.694
1923.5	104.379
1924	102.927
1924.5	102.029
1925	102.096
1925.5	102.896
1926	103.801
1926.5	104.213
1927	104.08
1927.5	103.803
1928	103.972
1928.5	104.758
1929	105.998
1929.5	107.125
1930	107.578
1930.5	106.87
1931	105.044
1931.5	102.596
1932	100.363
1932.5	99.1033
1933	99.0954
1933.5	100.075
1934	101.231
1934.5	102.019
1935	102.352
1935.5	102.504
1936	102.709
1936.5	102.958
1937	103.12
1937.5	103.152
1938	103.278
1938.5	103.744
1939	104.578
1939.5	105.392
1940	105.641
1940.5	104.992
1941	103.652
1941.5	102.218
1942	101.341
1942.5	101.245
1943	101.704
1943.5	102.076
1944	101.906
1944.5	101.204
1945	100.493
1945.5	100.379
1946	100.947
1946.5	101.689
1947	101.738
1947.5	100.879
1948	99.6083
1948.5	99.1123
1949	99.8843
1949.5	101.624
1950	103.152
1950.5	103.685
1951	103.08
1951.5	102.178
1952	101.637
1952.5	101.646
1953	101.707
1953.5	101.44
1954	100.914
1954.5	100.554
1955	100.621
1955.5	100.791
1956	100.588
1956.5	99.8744
1957	99.2896
1957.5	99.4986
1958	100.791
1958.5	102.495
1959	103.78
1959.5	104.123
1960	103.81
1960.5	103.434
1961	103.424
1961.5	103.666
1962	103.716
1962.5	103.375
1963	102.828
1963.5	102.543
1964	102.659
1964.5	102.928
1965	102.853
1965.5	102.236
1966	101.201
1966.5	100.238
1967	99.6676
1967.5	99.5809
1968	99.6982
1968.5	99.7692
1969	99.6647
1969.5	99.4578
1970	99.2575
1970.5	99.0968
1971	98.9224
1971.5	98.6988
1972	98.5565
1972.5	98.7101
1973	99.3471
1973.5	100.326
1974	101.338
1974.5	101.963
1975	102.031
1975.5	101.53
1976	100.757
1976.5	99.9495
1977	99.3326
1977.5	99.035
1978	99.1884
1978.5	99.8201
1979	100.704
1979.5	101.476
1980	101.789
1980.5	101.651
1981	101.393
1981.5	101.439
1982	101.919
1982.5	102.603
1983	103.077
1983.5	103.064
1984	102.585
1984.5	101.886
1985	101.211
1985.5	100.73
1986	100.495
1986.5	100.526
1987	100.706
1987.5	100.924
1988	101.102
1988.5	101.306
1989	101.692
1989.5	102.269
1990	102.784
1990.5	102.752
1991	101.968
1991.5	100.549
1992	98.9596
1992.5	97.6663
1993	96.8663
1993.5	96.4492
1994	96.2225
1994.5	96.1722
1995	96.4354
1995.5	97.1472
1996	98.4082
1996.5	99.9918
1997	101.647
1997.5	103.018
1998	103.903
1998.5	104.217
1999	104.201
1999.5	104.147
2000	104.164
2000.5	103.966
2001	103.125
2001.5	101.293
2002	98.9353
2002.5	96.8514
2003	96.0239
2003.5	96.6471
2004	98.4089
2004.5	100.305
2005	101.651
2005.5	102.116
2006	102.089
2006.5	101.907
2007	101.691
2007.5	101.268
2008	100.441
2008.5	99.3758
2009	98.5564
2009.5	98.552
2010	99.3861
2010.5	100.681
2011	101.791
2011.5	102.328
2012	102.242
2012.5	101.773
2013	101.174
2013.5	100.534
2014	99.8844
2014.5	99.3111
2015	99.0281
2015.5	99.1658
2016	99.7574
2016.5	100.708
2017	101.747
2017.5	102.551
2018	102.702
2018.5	102.043
2019	100.702
2019.5	99.4909
2020	99.1441
2020.5	100.114
2021	101.692
2021.5	102.997
2022	103.276
2022.5	102.712
2023	101.836
2023.5	101.16
2024	100.655
2024.5	100.03
2025	99.2507
2025.5	98.6424
2026	98.6939
2026.5	99.2986
2027	99.9603
2027.5	99.9904
2028	99.2892
2028.5	98.2248
2029	97.4955
2029.5	97.4066
2030	97.8989
2030.5	98.4418
2031	98.6385
2031.5	98.2841
2032	97.5906
2032.5	96.9354
2033	96.8419
2033.5	97.5461
2034	98.9938
2034.5	100.463
2035	101.214
2035.5	100.575
2036	98.9035
2036.5	96.9415
2037	95.8095
2037.5	95.9773
2038	97.3377
2038.5	98.8625
2039	99.6308
2039.5	99.0189
2040	97.6224
2040.5	96.3341
2041	96.1444
2041.5	97.0851
2042	98.6593
2042.5	99.9371
2043	100.462
2043.5	100.22
2044	99.7738
2044.5	99.549
2045	99.7674
2045.5	100.213
2046	100.587
2046.5	100.558
2047	100.109
2047.5	99.4754
2048	99.1739
2048.5	99.5098
2049	100.497
2049.5	101.565
2050	102.214
2050.5	102.176
2051	101.757
2051.5	101.286
2052	100.91
2052.5	100.503
2053	99.9296
2053.5	99.2898
2054	98.7588
2054.5	98.3973
2055	98.0154
2055.5	97.5253
2056	97.1984
2056.5	97.4612
2057	98.56
2057.5	100.032
2058	101.128
2058.5	101.206
2059	100.523
2059.5	99.6268
2060	99.0461
2060.5	98.7857
2061	98.6666
2061.5	98.6126
2062	98.7844
2062.5	99.3829
2063	100.248
2063.5	101.01
2064	101.257
2064.5	101.013
2065	100.449
2065.5	99.723
2066	98.8373
2066.5	97.7572
2067	96.7111
2067.5	96.0676
2068	96.1285
2068.5	96.5295
2069	96.6197
2069.5	95.7079
2070	94.1047
2070.5	92.6757
2071	92.6105
2071.5	94.0978
2072	96.5601
2072.5	98.629
2073	99.5441
2073.5	99.2356
2074	98.6591
2074.5	98.4747
2075	98.759
2075.5	98.8773
2076	98.2733
2076.5	96.999
2077	95.6913
2077.5	95.076
2078	95.3097
2078.5	96.0384
2079	96.6988
2079.5	97.0427
2080	97.2091
2080.5	97.5361
2081	98.0745
2081.5	98.5358
2082	98.4571
2082.5	97.7306
2083	96.6199
2083.5	95.7513
2084	95.4805
2084.5	95.8292
2085	96.4084
2085.5	96.9968
2086	97.6267
2086.5	98.413
2087	99.2604
2087.5	99.7103
2088	99.3863
2088.5	98.1458
2089	96.6214
2089.5	95.4592
2090	95.1908
2090.5	95.6936
2091	96.6533
2091.5	97.5662
2092	98.0926
2092.5	97.9373
2093	97.1714
2093.5	96.1011
2094	95.3527
2094.5	95.377
2095	96.2694
2095.5	97.5767
2096	98.7098
2096.5	99.3326
2097	99.5852
2097.5	99.7175
2098	99.7758
2098.5	99.5695
2099	98.9345
2099.5	97.9849
2100	97.1971
2100.5	97.0855
2101	97.8982
2101.5	99.34
2102	100.769
2102.5	101.345
2103	100.628
2103.5	98.5686
2104	96.087
2104.5	94.0661
2105	93.1792
2105.5	93.2368
2106	93.8503
2106.5	94.7622
2107	96.2596
2107.5	99.049
2108	103.05
2108.5	107.462
2109	110.627
2109.5	111.549
2110	110.018
2110.5	107.112
2111	104.162
2111.5	101.955
2112	100.292
2112.5	98.6526
2113	96.7505
2113.5	95.0101
2114	94.0376
2114.5	94.1777
2115	94.9146
2115.5	95.5212
2116	95.491
2116.5	95.025
2117	94.6901
2117.5	94.8579
2118	95.3896
2118.5	95.8024
2119	95.8412
2119.5	95.6386
2120	95.6128
2120.5	95.9377
2121	96.4924
2121.5	96.9416
2122	97.1501
2122.5	97.1666
2123	97.1483
2123.5	97.1262
2124	97.103
2124.5	97.2119
2125	97.7294
2125.5	98.8128
2126	100.203
2126.5	101.302
2127	101.538
2127.5	100.802
2128	99.419
2128.5	98.113
2129	97.334
2129.5	97.1331
2130	97.0912
2130.5	96.6955
2131	95.6442
2131.5	94.0905
2132	92.547
2132.5	91.6343
2133	91.6378
2133.5	92.4047
2134	93.2974
2134.5	93.8458
2135	94.0067
2135.5	94.1664
2136	94.7506
2136.5	95.7142
2137	96.6152
2137.5	96.7495
2138	95.9605
2138.5	94.4838
2139	93.0445
2139.5	92.3013
2140	92.6816
2140.5	94.0023
2141	95.674
2141.5	96.9105
2142	97.2402
2142.5	96.7242
2143	95.9577
2143.5	95.6484
2144	96.0474
2144.5	96.6993
2145	96.9145
2145.5	96.2591
2146	95.1241
2146.5	94.199
2147	94.1888
2147.5	95.006
2148	96.2763
2148.5	97.4282
2149	98.119
2149.5	98.1481
2150	97.5339
2150.5	96.5021
2151	95.4028
2151.5	94.5953
2152	94.1318
2152.5	93.7764
2153	93.2868
2153.5	92.7774
2154	92.7545
2154.5	93.4855
2155	94.8111
2155.5	95.9551
2156	96.3699
2156.5	95.9089
2157	95.1844
2157.5	94.691
2158	94.6661
2158.5	94.9261
2159	95.3188
2159.5	95.7547
2160	96.1228
2160.5	96.1354
2161	95.577
2161.5	94.5582
2162	93.5889
2162.5	93.1798
2163	93.4407
2163.5	93.9649
2164	94.2733
2164.5	94.2293
2165	94.1669
2165.5	94.3983
2166	94.976
2166.5	95.5304
2167	95.7548
2167.5	95.5147
2168	94.9826
2168.5	94.2585
2169	93.3967
2169.5	92.5338
2170	92.0487
2170.5	92.3779
2171	93.5939
2171.5	95.2695
2172	96.4342
2172.5	96.3902
2173	94.9896
2173.5	92.9809
2174	91.197
2174.5	90.281
2175	90.2918
2175.5	91.1378
2176	92.437
2176.5	93.8655
2177	94.9405
2177.5	95.3443
2178	95.0318
2178.5	94.5095
2179	94.4085
2179.5	95.0526
2180	95.9498
2180.5	96.3634
2181	95.6489
2181.5	94.1856
2182	92.6475
2182.5	91.7611
2183	91.5719
2183.5	91.845
2184	92.2553
2184.5	92.7141
2185	93.2096
2185.5	93.5678
2186	93.5592
2186.5	93.0816
2187	92.5458
2187.5	92.4429
2188	93.0239
2188.5	93.8658
2189	94.2644
2189.5	93.767
2190	92.6511
2190.5	91.7426
2191	91.7937
2191.5	92.9122
2192	94.47
2192.5	95.5229
2193	95.5273
2193.5	94.7223
2194	93.858
2194.5	93.6244
2195	94.0771
2195.5	94.8186
2196	95.3472
2196.5	95.6163
2197	95.9155
2197.5	96.5931
2198	97.4904
2198.5	98.0378
2199	97.5675
2199.5	95.9945
2200	93.7165
2200.5	91.6979
2201	90.6036
2201.5	90.8059
2202	91.8545
2202.5	93.2221
2203	94.2685
2203.5	94.7135
2204	94.5193
2204.5	94.058
2205	93.688
2205.5	93.6274
2206	93.6695
2206.5	93.5214
2207	93.0645
2207.5	92.6867
2208	93.0049
2208.5	94.3473
2209	96.272
2209.5	97.785
2210	97.9745
2210.5	96.6667
2211	94.3417
2211.5	92.0265
2212	90.3432
2212.5	89.5022
2213	89.2927
2213.5	89.5933
2214	90.2609
2214.5	91.1443
2215	92.0149
2215.5	92.6871
2216	93.1561
2216.5	93.5604
2217	93.9826
2217.5	94.3171
2218	94.3489
2218.5	94.05
2219	93.5778
2219.5	93.2121
2220	93.0186
2220.5	92.833
2221	92.4679
2221.5	91.9707
2222	91.699
2222.5	91.9316
2223	92.703
2223.5	93.5843
2224	94.137
2224.5	94.0624
2225	93.5485
2225.5	92.8529
2226	92.2196
2226.5	91.7804
2227	91.712
2227.5	92.2679
2228	93.4726
2228.5	95.0655
2229	96.2842
2229.5	96.5207
2230	95.3885
2230.5	93.5481
2231	91.7624
2231.5	90.8149
2232	90.7837
2232.5	91.4515
2233	92.3515
2233.5	93.2294
2234	94.0075
2234.5	94.6639
2235	95.0862
2235.5	95.039
2236	94.5136
2236.5	93.6445
2237	92.7963
2237.5	92.2548
2238	92.1608
2238.5	92.3766
2239	92.6942
2239.5	92.8701
2240	92.7031
2240.5	92.0437
2241	90.922
2241.5	89.8064
2242	89.3814
2242.5	90.193
2243	91.9942
2243.5	93.9349
2244	94.8848
2244.5	94.4255
2245	92.8658
2245.5	91.3462
2246	90.6869
2246.5	91.2282
2247	92.5653
2247.5	94.19
2248	95.4932
2248.5	96.111
2249	95.7514
2249.5	94.7217
2250	93.5079
2250.5	92.7651
2251	92.6899
2251.5	93.1106
2252	93.5463
2252.5	93.6961
2253	93.4513
2253.5	92.934
2254	92.282
2254.5	91.6983
2255	91.4005
2255.5	91.5001
2256	91.816
2256.5	91.9309
2257	91.5133
2257.5	90.6772
2258	89.8337
2258.5	89.3674
2259	89.2042
2259.5	89.0757
2260	88.8194
2260.5	88.6792
2261	89.0361
2261.5	90.0573
2262	91.4383
2262.5	92.7612
2263	93.7469
2263.5	94.3855
2264	94.6244
2264.5	94.3696
2265	93.4813
2265.5	92.1232
2266	90.8568
2266.5	90.1867
2267	90.1324
2267.5	90.1993
2268	89.8048
2268.5	88.9294
2269	88.0432
2269.5	87.8618
2270	88.463
2270.5	89.4987
2271	90.3273
2271.5	90.6971
2272	90.701
2272.5	90.6503
2273	90.6519
2273.5	90.6511
2274	90.6462
2274.5	90.7948
2275	91.328
2275.5	92.1651
2276	93.0187
2276.5	93.4781
2277	93.406
2277.5	92.8216
2278	91.9868
2278.5	91.0883
2279	90.3052
2279.5	89.7681
2280	89.5901
2280.5	89.8163
2281	90.3293
2281.5	90.9891
2282	91.5719
2282.5	91.8981
2283	91.7958
2283.5	91.3704
2284	90.8684
2284.5	90.6954
2285	91.0408
2285.5	91.8937
2286	92.9404
2286.5	93.8109
2287	94.1875
2287.5	94.0528
2288	93.6503
2288.5	93.4715
2289	93.8505
2289.5	94.6856
2290	95.2606
2290.5	94.8677
2291	93.2208
2291.5	91.039
2292	89.3399
2292.5	88.9493
2293	89.5827
2293.5	90.5475
2294	91.1192
2294.5	91.2316
2295	91.1579
2295.5	91.2401
2296	91.4828
2296.5	91.6493
2297	91.424
2297.5	90.6922
2298	89.5375
2298.5	88.4712
2299	88.0389
2299.5	88.6483
2300	89.9007
2300.5	91.1079
2301	91.5876
2301.5	91.4053
2302	91.1334
2302.5	91.4064
2303	92.2469
2303.5	93.1384
2304	93.5307
2304.5	93.2936
2305	92.7073
2305.5	92.0729
2306	91.4362
2306.5	90.7574
2307	90.1809
2307.5	90.1141
2308	90.7172
2308.5	91.7874
2309	92.7298
2309.5	93.1448
2310	93.0146
2310.5	92.7063
2311	92.5246
2311.5	92.5672
2312	92.7351
2312.5	92.9559
2313	93.1282
2313.5	92.9721
2314	92.0495
2314.5	90.0148
2315	87.3471
2315.5	85.0658
2316	84.4037
2316.5	85.6193
2317	88.1545
2317.5	90.4686
2318	91.6186
2318.5	91.5037
2319	91.0966
2319.5	91.1927
2320	92.0148
2320.5	92.9913
2321	93.3022
2321.5	92.4943
2322	90.799
2322.5	88.9867
2323	88.0263
2323.5	88.4206
2324	89.9522
2324.5	91.5449
2325	92.1597
2325.5	91.4448
2326	90.0918
2326.5	89.2353
2327	89.4258
2327.5	90.2708
2328	90.7577
2328.5	90.3345
2329	89.1998
2329.5	88.2546
2330	88.1066
2330.5	88.7842
2331	89.5309
2331.5	89.6712
2332	88.8193
2332.5	87.4683
2333	86.2707
2333.5	85.8934
2334	86.2838
2334.5	87.0207
2335	87.4939
2335.5	87.6747
2336	88.0942
2336.5	89.339
2337	91.3059
2337.5	93.0378
2338	93.4996
2338.5	92.393
2339	90.5292
2339.5	89.0904
2340	88.6607
2340.5	88.7861
2341	88.8069
2341.5	88.5349
2342	88.514
2342.5	89.1686
2343	90.2701
2343.5	91.0204
2344	90.9141
2344.5	90.1861
2345	89.5192
2345.5	89.3896
2346	89.6191
2346.5	89.8041
2347	89.7114
2347.5	89.6099
2348	89.7968
2348.5	90.2589
2349	90.5443
2349.5	90.1992
2350	89.2957
2350.5	88.4014
2351	88.1126
2351.5	88.3604
2352	88.6408
2352.5	88.3789
2353	87.7718
2353.5	87.4641
2354	88.0783
2354.5	89.2965
2355	90.2021
2355.5	89.9405
2356	88.601
2356.5	86.9576
2357	85.9022
2357.5	85.6019
2358	85.7281
2358.5	85.928
2359	86.1858
2359.5	86.5849
2360	87.0355
2360.5	87.3471
2361	87.529
2361.5	87.7959
2362	88.3917
2362.5	89.192
2363	89.9589
2363.5	90.5129
2364	90.8669
2364.5	90.8919
2365	90.232
2365.5	88.7145
2366	86.6131
2366.5	84.9479
2367	84.5211
2367.5	85.5805
2368	87.1967
2368.5	88.3917
2369	88.5852
2369.5	88.1486
2370	87.854
2370.5	88.3325
2371	89.4448
2371.5	90.404
2372	90.4277
2372.5	89.3187
2373	87.7274
2373.5	86.6244
2374	86.5252
2374.5	86.9835
2375	87.2614
2375.5	87.0324
2376	86.9197
2376.5	87.6069
2377	89.2251
2377.5	90.739
2378	91.174
2378.5	90.2509
2379	88.662
2379.5	87.176
2380	86.224
2380.5	85.8104
2381	85.9814
2381.5	86.6438
2382	87.5834
2382.5	88.2277
2383	88.2191
2383.5	87.683
2384	87.3237
2384.5	87.4721
2385	87.8757
2385.5	87.9121
2386	87.5019
2386.5	87.3369
2387	88.1391
2387.5	89.9228
2388	91.6406
2388.5	92.274
2389	91.5255
2389.5	90.368
2390	89.6942
2390.5	89.6249
2391	89.317
2391.5	88.2323
2392	86.686
2392.5	85.6935
2393	85.8974
2393.5	86.8627
2394	87.5924
2394.5	87.4247
2395	86.8334
2395.5	86.6434
2396	87.3724
2396.5	88.4412
2397	89.1611
2397.5	89.1051
2398	88.5433
2398.5	87.8632
2399	87.4113
2399.5	87.3547
2400	87.9438
2400.5	89.1498
2401	90.6244
2401.5	91.4577
2402	91.0362
2402.5	89.2699
2403	86.9903
2403.5	85.262
2404	84.8906
2404.5	85.7057
2405	87.0066
2405.5	87.9411
2406	88.2437
2406.5	88.1637
2407	88.191
2407.5	88.3169
2408	88.0578
2408.5	87.0077
2409	85.5456
2409.5	84.6674
2410	85.0016
2410.5	86.1675
2411	86.9177
2411.5	86.5161
2412	85.2499
2412.5	84.3049
2413	84.1772
2413.5	84.5098
2414	84.6309
2414.5	84.6535
2415	85.3852
2415.5	87.027
2416	88.8375
2416.5	89.3888
2417	88.4592
2417.5	86.9663
2418	86.5304
2418.5	87.3747
2419	88.5301
2419.5	88.631
2420	87.4471
2420.5	85.8006
2421	84.8553
2421.5	85.0135
2422	85.8561
2422.5	86.6798
2423	87.1088
2423.5	87.2051
2424	87.1647
2424.5	87.1637
2425	87.3538
2425.5	87.8199
2426	88.4984
2426.5	89.1041
2427	89.374
2427.5	89.2426
2428	88.8831
2428.5	88.4429
2429	87.9945
2429.5	87.6349
2430	87.7176
2430.5	88.4637
2431	89.7536
2431.5	90.7963
2432	90.7846
2432.5	89.3572
2433	87.2513
2433.5	85.5575
2434	85.0795
2434.5	85.4998
2435	86.1852
2435.5	86.5604
2436	86.6566
2436.5	86.7877
2437	87.2905
2437.5	88.1322
2438	89.0278
2438.5	89.5131
2439	89.3877
2439.5	88.7065
2440	87.9887
2440.5	87.6417
2441	87.8021
2441.5	88.1119
2442	88.176
2442.5	87.8299
2443	87.2356
2443.5	86.576
2444	85.9336
2444.5	85.3807
2445	85.1977
2445.5	85.5588
2446	86.39
2446.5	87.1992
2447	87.6046
2447.5	87.6312
2448	87.7686
2448.5	88.2085
2449	88.5661
2449.5	88.2283
2450	87.0583
2450.5	85.6797
2451	85.0541
2451.5	85.7882
2452	87.6358
2452.5	89.7103
2453	91.0152
2453.5	91.1166
2454	90.176
2454.5	88.6868
2455	87.337
2455.5	86.4384
2456	85.9604
2456.5	85.6356
2457	85.3447
2457.5	85.1712
2458	85.2068
2458.5	85.4573
2459	85.8095
2459.5	86.2297
2460	86.7036
2460.5	87.0871
2461	87.1548
2461.5	86.8667
2462	86.6165
2462.5	86.952
2463	87.8704
2463.5	88.7831
2464	88.7625
2464.5	87.67
2465	85.9583
2465.5	84.5231
2466	83.8183
2466.5	83.8801
2467	84.3691
2467.5	85.0311
2468	85.6662
2468.5	86.0561
2469	86.1469
2469.5	86.2173
2470	86.6991
2470.5	87.6837
2471	88.52
2471.5	88.4747
2472	87.3097
2472.5	85.8245
2473	84.8797
2473.5	84.969
2474	85.5968
2474.5	86.2742
2475	86.8233
2475.5	87.4364
2476	88.1727
2476.5	88.8534
2477	89.4871
2477.5	90.5126
2478	92.3712
2478.5	94.876
2479	96.9653
2479.5	97.4961
2480	96.0857
2480.5	93.4448
2481	90.727
2481.5	88.7298
2482	87.7412
2482.5	87.6923
2483	88.4974
2483.5	89.5569
2484	90.1071
2484.5	89.3686
2485	87.6474
2485.5	85.8142
2486	85.0722
2486.5	85.709
2487	87.3238
2487.5	88.8568
2488	89.6981
2488.5	89.6357
2489	88.9519
2489.5	87.7117
2490	86.0367
2490.5	84.4071
2491	83.5434
2491.5	83.934
2492	85.241
2492.5	86.5411
2493	87.0874
2493.5	86.9924
2494	86.9931
2494.5	87.5412
2495	88.3534
2495.5	88.5242
2496	87.6817
2496.5	86.2422
2497	85.3294
2497.5	85.4197
2498	86.2893
2498.5	86.9957
2499	86.9944
2499.5	86.3149
2500	85.5967
2500.5	85.4382
2501	86.0326
2501.5	87.1101
2502	88.2278
2502.5	88.9122
2503	88.9702
2503.5	88.4288
2504	87.7056
2504.5	87.1524
2505	86.9791
2505.5	87.0895
2506	87.2759
2506.5	87.2571
2507	86.9314
2507.5	86.4222
2508	86.155
2508.5	86.4214
2509	87.0751
2509.5	87.5198
2510	87.3222
2510.5	86.7143
2511	86.4165
2511.5	87.0112
2512	88.0508
2512.5	88.6178
2513	88.0126
2513.5	86.8599
2514	86.0229
2514.5	86.0148
2515	86.3011
2515.5	86.1335
2516	85.3738
2516.5	84.6792
2517	84.7066
2517.5	85.2175
2518	85.6064
2518.5	85.4453
2519	85.1596
2519.5	85.3776
2520	86.2931
2520.5	87.3553
2521	87.9894
2521.5	88.1311
2522	88.0891
2522.5	88.1239
2523	88.1377
2523.5	87.9091
2524	87.3327
2524.5	86.4979
2525	85.4147
2525.5	84.1957
2526	83.2292
2526.5	83.2524
2527	84.5097
2527.5	86.4042
2528	87.5361
2528.5	87.1994
2529	85.6322
2529.5	84.0469
2530	83.3149
2530.5	83.5811
2531	84.2272
2531.5	84.8866
2532	85.5896
2532.5	86.2972
2533	86.6466
2533.5	86.1395
2534	85.043
2534.5	84.1233
2535	84.1105
2535.5	84.726
2536	85.1363
2536.5	84.7317
2537	83.7471
2537.5	83.0433
2538	83.2235
2538.5	84.2258
2539	85.4562
2539.5	86.4648
2540	87.1149
2540.5	87.5115
2541	87.7364
2541.5	87.7546
2542	87.5328
2542.5	87.0122
2543	86.0684
2543.5	84.7793
2544	83.4223
2544.5	82.6151
2545	82.7445
2545.5	83.7547
2546	84.7579
2546.5	85.0926
2547	84.6167
2547.5	84.2078
2548	84.673
2548.5	86.2169
2549	87.8923
2549.5	88.6539
2550	88.181
2550.5	87.0267
2551	85.9023
2551.5	85.1313
2552	84.6421
2552.5	84.5003
2553	84.9697
2553.5	86.1986
2554	87.6001
2554.5	88.2217
2555	87.3811
2555.5	85.6814
2556	84.3179
2556.5	84.2243
2557	84.8437
2557.5	85.165
2558	84.2746
2558.5	82.5365
2559	80.9083
2559.5	80.3731
2560	80.9571
2560.5	82.2757
2561	83.663
2561.5	84.8032
2562	85.5202
2562.5	85.8308
2563	85.7596
2563.5	85.4641
2564	85.204
2564.5	85.1852
2565	85.3954
2565.5	85.6514
2566	85.7394
2566.5	85.6673
2567	85.5663
2567.5	85.5968
2568	85.7288
2568.5	85.78
2569	85.4773
2569.5	84.8287
2570	84.1274
2570.5	83.9153
2571	84.4936
2571.5	85.7833
2572	86.9009
2572.5	86.9196
2573	85.4705
2573.5	83.4144
2574	82.0585
2574.5	82.3923
2575	84.0165
2575.5	85.4614
2576	85.3514
2576.5	83.817
2577	82.3471
2577.5	82.3536
2578	84.0276
2578.5	85.9222
2579	86.5467
2579.5	85.5798
2580	84.2994
2580.5	83.8586
2581	84.7606
2581.5	86.1152
2582	87.0167
2582.5	86.9639
2583	86.3046
2583.5	85.4726
2584	84.8764
2584.5	84.6538
2585	84.884
2585.5	85.4765
2586	86.3241
2586.5	87.2428
2587	87.9169
2587.5	88.0135
2588	87.3452
2588.5	86.2125
2589	85.1119
2589.5	84.4286
2590	84.1628
2590.5	84.1539
2591	84.1625
2591.5	83.9947
2592	83.3244
2592.5	82.0773
2593	80.5581
2593.5	79.6915
2594	80.1219
2594.5	81.9686
2595	84.1419
2595.5	85.7895
2596	86.4476
2596.5	86.3941
2597	85.7675
2597.5	84.6445
2598	83.3954
2598.5	82.6172
2599	82.6999
2599.5	83.3745
2600	84.0268
2600.5	84.3094
2601	84.4847
2601.5	85.0058
2602	85.74
2602.5	86.1578
2603	85.7103
2603.5	84.4888
2604	82.9748
2604.5	81.8059
2605	81.2565
2605.5	81.4728
2606	82.1858
2606.5	83.1299
2607	83.9461
2607.5	84.4656
2608	84.6277
2608.5	84.4845
2609	84.15
2609.5	83.8684
2610	84.0546
2610.5	84.9436
2611	86.4252
2611.5	87.7917
2612	88.3643
2612.5	87.8342
2613	86.7035
2613.5	85.5571
2614	84.626
2614.5	83.7489
2615	82.8815
2615.5	82.5733
2616	83.503
2616.5	85.7279
2617	88.016
2617.5	88.8825
2618	87.5845
2618.5	84.9891
2619	82.7361
2619.5	81.9125
2620	82.4367
2620.5	83.5828
2621	84.4511
2621.5	84.613
2622	84.1164
2622.5	83.3764
2623	82.8195
2623.5	82.6591
2624	82.7056
2624.5	82.6528
2625	82.7317
2625.5	83.6731
2626	86.4335
2626.5	90.7231
2627	95.4945
2627.5	98.8959
2628	100.053
2628.5	98.6906
2629	95.8502
2629.5	92.6225
2630	89.9773
2630.5	87.9503
2631	86.2197
2631.5	84.6017
2632	83.4253
2632.5	83.2541
2633	83.9817
2633.5	84.7354
2634	84.7056
2634.5	84.1497
2635	83.8545
2635.5	84.4831
2636	85.4174
2636.5	85.7416
2637	85.0322
2637.5	83.823
2638	82.8172
2638.5	82.323
2639	82.1177
2639.5	82.0385
2640	82.1696
2640.5	82.6657
2641	83.4596
2641.5	84.1295
2642	84.2535
2642.5	83.7007
2643	82.7505
2643.5	81.872
2644	81.5122
2644.5	81.7472
2645	82.5201
2645.5	83.6144
2646	84.8776
2646.5	85.9289
2647	86.3489
2647.5	85.9564
2648	85.2194
2648.5	84.7084
2649	84.6694
2649.5	84.5761
2650	83.9929
2650.5	83.1192
2651	82.7037
2651.5	83.2389
2652	84.3497
2652.5	85.1376
2653	84.9507
2653.5	84.0333
2654	83.0082
2654.5	82.6664
2655	83.2116
2655.5	84.321
2656	85.1649
2656.5	85.1146
2657	83.9916
2657.5	82.5038
2658	81.4822
2658.5	81.4526
2659	82.1818
2659.5	83.338
2660	84.5862
2660.5	85.6186
2661	86.1408
2661.5	85.9488
2662	85.1543
2662.5	83.9106
2663	82.4728
2663.5	81.097
2664	80.2977
2664.5	80.452
2665	81.6275
2665.5	83.2729
2666	84.5801
2666.5	85.1497
2667	85.0778
2667.5	84.6377
2668	84.0575
2668.5	83.7063
2669	83.9048
2669.5	84.7565
2670	85.6668
2670.5	85.9172
2671	85.1925
2671.5	84.011
2672	82.9579
2672.5	82.3446
2673	82.1496
2673.5	82.4111
2674	83.0395
2674.5	83.7975
2675	84.1342
2675.5	83.7986
2676	83.0139
2676.5	82.5238
2677	82.6741
2677.5	83.3982
2678	84.1761
2678.5	84.6644
2679	84.7627
2679.5	84.6533
2680	84.4551
2680.5	84.2141
2681	83.8747
2681.5	83.3868
2682	82.9236
2682.5	82.825
2683	83.5307
2683.5	84.8951
2684	86.3422
2684.5	87.1237
2685	87.1193
2685.5	86.6204
2686	86.2102
2686.5	86.0269
2687	85.7905
2687.5	85.1556
2688	84.1745
2688.5	83.3869
2689	83.2793
2689.5	83.8574
2690	84.5176
2690.5	84.5845
2691	83.7853
2691.5	82.786
2692	82.342
2692.5	82.8952
2693	83.8596
2693.5	84.3139
2694	83.4209
2694.5	81.5398
2695	79.5192
2695.5	78.6491
2696	79.4932
2696.5	81.7548
2697	84.0301
2697.5	85.0806
2698	83.9475
2698.5	81.5085
2699	79.2142
2699.5	78.5727
2700	79.6257
2700.5	81.5694
2701	82.8752
2701.5	82.9667
2702	82.0519
2702.5	81.0843
2703	80.62
2703.5	80.628
2704	80.491
2704.5	79.8462
2705	78.8629
2705.5	78.2041
2706	78.4718
2706.5	79.4688
2707	80.5063
2707.5	80.8349
2708	80.5387
2708.5	80.2812
2709	80.7762
2709.5	81.9658
2710	83.4935
2710.5	84.8941
2711	85.9288
2711.5	86.1913
2712	85.3326
2712.5	83.4495
2713	81.4768
2713.5	80.5911
2714	81.1383
2714.5	82.4208
2715	83.3908
2715.5	83.6144
2716	83.4845
2716.5	83.2732
2717	82.9776
2717.5	82.5311
2718	82.073
2718.5	81.8926
2719	82.112
2719.5	82.7062
2720	83.4089
2720.5	83.9103
2721	83.8342
2721.5	82.9538
2722	81.6693
2722.5	80.6144
2723	80.6031
2723.5	82.0059
2724	84.4754
2724.5	87.1285
2725	88.512
2725.5	88.2369
2726	86.5239
2726.5	84.4391
2727	82.9815
2727.5	82.6046
2728	83.0298
2728.5	83.4932
2729	83.557
2729.5	83.2899
2730	83.1199
2730.5	83.4315
2731	84.1319
2731.5	84.8206
2732	85.1055
2732.5	84.9278
2733	84.6743
2733.5	84.6928
2734	84.9665
2734.5	85.0585
2735	84.4574
2735.5	83.1763
2736	81.718
2736.5	80.7622
2737	80.7493
2737.5	81.4965
2738	82.5954
2738.5	83.7312
2739	84.7398
2739.5	85.4439
2740	85.5902
2740.5	85.042
2741	84.0224
2741.5	83.1046
2742	82.6834
2742.5	82.5941
2743	82.4323
2743.5	82.0942
2744	82.0997
2744.5	82.9223
2745	84.2727
2745.5	85.1367
2746	84.4861
2746.5	82.575
2747	80.6836
2747.5	79.9766
2748	80.6673
2748.5	81.8595
2749	82.533
2749.5	82.5007
2750	82.1977
2750.5	82.1294
2751	82.3637
2751.5	82.7063
2752	83.101
2752.5	83.6133
2753	84.12
2753.5	84.1782
2754	83.4885
2754.5	82.2571
2755	81.1617
2755.5	80.852
2756	81.2745
2756.5	81.9832
2757	82.5928
2757.5	83.0469
2758	83.485
2758.5	83.888
2759	84.1019
2759.5	84.0483
2760	83.8235
2760.5	83.5492
2761	83.1821
2761.5	82.6385
2762	81.9574
2762.5	81.2997
2763	80.7389
2763.5	80.287
2764	80.1397
2764.5	80.7963
2765	82.5719
2765.5	84.8733
2766	86.4411
2766.5	86.1531
2767	83.9707
2767.5	81.4281
2768	80.1354
2768.5	80.6228
2769	82.1122
2769.5	83.1541
2770	83.037
2770.5	82.1936
2771	81.5064
2771.5	81.5024
2772	81.918
2772.5	82.1372
2773	82.0404
2773.5	82.0875
2774	82.8542
2774.5	84.2772
2775	85.4842
2775.5	85.6427
2776	84.5887
2776.5	82.9941
2777	81.8858
2777.5	81.6999
2778	82.1667
2778.5	82.6638
2779	82.6637
2779.5	82.1348
2780	81.4676
2780.5	81.1313
2781	81.4025
2781.5	82.1661
2782	82.9042
2782.5	83.1981
2783	83.0552
2783.5	82.8839
2784	83.1143
2784.5	83.5882
2785	83.6773
2785.5	82.8962
2786	81.3975
2786.5	80.0339
2787	79.6625
2787.5	80.4441
2788	81.9671
2788.5	83.6327
2789	84.9333
2789.5	85.5518
2790	85.287
2790.5	84.2333
2791	82.9685
2791.5	82.4106
2792	82.8685
2792.5	83.7321
2793	84.0627
2793.5	83.4901
2794	82.7207
2794.5	82.8319
2795	83.9844
2795.5	85.3509
2796	85.8911
2796.5	85.2745
2797	84.2585
2797.5	83.6107
2798	83.506
2798.5	83.6014
2799	83.5099
2799.5	83.2263
2800	82.9788
2800.5	82.9724
2801	83.311
2801.5	83.9791
2802	84.7041
2802.5	85.0305
2803	84.6219
2803.5	83.5716
2804	82.4134
2804.5	81.6458
2805	81.2546
2805.5	81.005
2806	80.904
2806.5	81.3073
2807	82.3764
2807.5	83.5786
2808	84.2203
2808.5	84.1719
2809	84.0808
2809.5	84.6709
2810	85.6759
2810.5	86.2294
2811	85.8573
2811.5	85.0248
2812	84.6468
2812.5	84.8668
2813	85.0819
2813.5	84.9416
2814	84.939
2814.5	85.8877
2815	87.4237
2815.5	87.9943
2816	86.3595
2816.5	82.9268
2817	79.8229
2817.5	79.2262
2818	81.3137
2818.5	84.6801
2819	87.5704
2819.5	88.9712
2820	88.8882
2820.5	87.9704
2821	86.7756
2821.5	85.7335
2822	85.0916
2822.5	84.8257
2823	84.6439
2823.5	84.3769
2824	84.1454
2824.5	84.2179
2825	84.7064
2825.5	85.3749
2826	85.9012
2826.5	86.1035
2827	85.8886
2827.5	85.1544
2828	83.8831
2828.5	82.4663
2829	81.5521
2829.5	81.6748
2830	82.8638
2830.5	84.5552
2831	85.897
2831.5	86.3834
2832	86.047
2832.5	85.4026
2833	85.1192
2833.5	85.416
2834	85.6471
2834.5	84.9585
2835	83.2349
2835.5	81.5591
2836	81.6134
2836.5	83.7547
2837	86.5146
2837.5	87.9648
2838	87.3254
2838.5	85.525
2839	84.2151
2839.5	83.9974
2840	84.3451
2840.5	84.5904
2841	84.5992
2841.5	84.6042
2842	84.5736
2842.5	84.1579
2843	83.1855
2843.5	81.9139
2844	80.844
2844.5	80.3975
2845	80.7156
2845.5	81.7832
2846	83.3856
2846.5	85.0316
2847	86.0558
2847.5	86.0128
2848	85.0676
2848.5	83.7989
2849	82.9193
2849.5	82.9196
2850	83.7674
2850.5	84.7534
2851	85.0802
2851.5	84.4681
2852	83.3367
2852.5	82.4158
2853	82.1363
2853.5	82.3767
2854	82.9936
2854.5	83.9935
2855	85.2004
2855.5	85.9403
2856	85.4234
2856.5	83.8796
2857	82.4597
2857.5	82.2615
2858	83.3241
2858.5	84.6005
2859	85.0462
2859.5	84.7155
2860	84.2657
2860.5	84.1105
2861	84.1143
2861.5	84.0617
2862	84.3019
2862.5	85.4566
2863	87.5888
2863.5	89.791
2864	90.5791
2864.5	88.8146
2865	85.0087
2865.5	80.9451
2866	78.5061
2866.5	78.568
2867	80.5653
2867.5	82.9997
2868	84.6027
2868.5	85.0642
2869	84.6284
2869.5	83.6075
2870	82.2362
2870.5	80.8719
2871	80.0228
2871.5	79.9657
2872	80.5279
2872.5	81.2511
2873	81.7736
2873.5	82.0258
2874	82.1148
2874.5	82.1123
2875	82.1281
2875.5	82.3706
2876	82.9708
2876.5	83.7061
2877	84.0846
2877.5	83.8977
2878	83.4003
2878.5	82.9545
2879	82.5657
2879.5	81.9195
2880	81.0717
2880.5	80.6956
2881	81.3711
2881.5	82.8374
2882	84.1239
2882.5	84.579
2883	84.7803
2883.5	85.735
2884	87.444
2884.5	88.6866
2885	88.1773
2885.5	85.9471
2886	83.5381
2886.5	82.3791
2887	82.5585
2887.5	83.2216
2888	83.5843
2888.5	83.5058
2889	83.2448
2889.5	83.0067
2890	82.95
2890.5	83.3265
2891	84.2195
2891.5	85.1907
2892	85.427
2892.5	84.663
2893	83.5868
2893.5	83.1232
2894	83.5615
2894.5	84.355
2895	84.704
2895.5	84.2363
2896	83.0803
2896.5	81.4765
2897	79.8388
2897.5	78.8535
2898	79.128
2898.5	80.5154
2899	81.911
2899.5	82.53
2900	82.5929
2900.5	82.8798
2901	83.6707
2901.5	84.3298
2902	84.1513
2902.5	83.3615
2903	82.6039
2903.5	82.0484
2904	81.3011
2904.5	80.2073
2905	79.4677
2905.5	79.8655
2906	81.2276
2906.5	82.6368
2907	83.4024
2907.5	83.5955
2908	83.6075
2908.5	83.4606
2909	82.9728
2909.5	82.3576
2910	82.1637
2910.5	82.6558
2911	83.481
2911.5	84.0475
2912	84.146
2912.5	83.8671
2913	83.157
2913.5	81.8694
2914	80.1892
2914.5	78.7961
2915	78.4662
2915.5	79.3507
2916	81.053
2916.5	83.0216
2917	84.7731
2917.5	85.9296
2918	86.275
2918.5	85.8775
2919	85.0706
2919.5	84.1333
2920	83.2638
2920.5	82.7048
2921	82.7
2921.5	83.182
2922	83.605
2922.5	83.5184
2923	83.1654
2923.5	83.2097
2924	83.8875
2924.5	84.5835
2925	84.4436
2925.5	83.486
2926	82.7083
2926.5	82.8463
2927	83.625
2927.5	84.1024
2928	83.6533
2928.5	82.5274
2929	81.521
2929.5	81.1435
2930	81.3801
2930.5	81.9455
2931	82.5451
2931.5	82.9879
2932	83.201
2932.5	83.1983
2933	82.9995
2933.5	82.5725
2934	81.9561
2934.5	81.3725
2935	81.1166
2935.5	81.2706
2936	81.5839
2936.5	81.8091
2937	82.0363
2937.5	82.4644
2938	82.9686
2938.5	83.0489
2939	82.3285
2939.5	81.0667
2940	80.0144
2940.5	79.6034
2941	79.7375
2941.5	80.1761
2942	80.911
2942.5	82.0256
2943	83.2643
2943.5	84.0124
2944	83.9495
2944.5	83.3687
2945	82.8747
2945.5	82.8839
2946	83.4492
2946.5	84.3927
2947	85.3343
2947.5	85.6586
2948	84.8778
2948.5	83.2185
2949	81.7324
2949.5	81.5327
2950	82.7888
2950.5	84.5161
2951	85.484
2951.5	85.298
2952	84.2785
2952.5	82.8771
2953	81.4354
2953.5	80.354
2954	80.108
2954.5	80.8227
2955	81.8949
2955.5	82.5785
2956	82.6795
2956.5	82.6296
2957	82.8998
2957.5	83.4536
2958	83.8368
2958.5	83.7485
2959	83.4013
2959.5	83.1585
2960	83.1096
2960.5	82.9695
2961	82.3625
2961.5	81.2263
2962	80.0193
2962.5	79.5066
2963	80.1168
2963.5	81.6174
2964	83.2972
2964.5	84.5042
2965	85.0412
2965.5	85.0883
2966	84.8313
2966.5	84.2966
2967	83.5658
2967.5	82.9449
2968	82.805
2968.5	83.2789
2969	84.1747
2969.5	85.1718
2970	86.0265
2970.5	86.5735
2971	86.661
2971.5	86.2505
2972	85.5974
2972.5	85.1646
2973	85.2199
2973.5	85.5298
2974	85.546
2974.5	85.04
2975	84.4761
2975.5	84.5165
2976	85.3262
2976.5	86.3136
2977	86.5338
2977.5	85.3611
2978	82.8916
2978.5	79.9268
2979	77.5682
2979.5	76.6106
2980	77.1537
2980.5	78.5669
2981	79.9971
2981.5	81.0502
2982	81.9499
2982.5	82.9435
2983	83.646
2983.5	83.4165
2984	82.2756
2984.5	81.1449
2985	81.0262
2985.5	82.0013
2986	83.1788
2986.5	83.6183
2987	83.1853
2987.5	82.4055
2988	81.6512
2988.5	80.9543
2989	80.3396
2989.5	80.0456
2990	80.2993
2990.5	80.9965
2991	81.7586
2991.5	82.3046
2992	82.6205
2992.5	82.737
2993	82.6114
2993.5	82.3013
2994	82.1298
2994.5	82.4748
2995	83.3114
2995.5	84.0713
2996	84.2185
2996.5	83.9259
2997	83.875
2997.5	84.4485
2998	85.254
2998.5	85.5975
2999	85.3561
2999.5	85.1218
3000	85.3467
3000.5	85.5795
3001	85.1484
3001.5	84.2455
3002	83.8241
3002.5	84.3761
3003	85.2082
3003.5	85.3014
3004	84.7261
3004.5	84.6826
3005	85.7787
3005.5	86.955
3006	86.7665
3006.5	85.1066
3007	83.32
3007.5	82.6877
3008	83.1923
3008.5	83.8846
3009	84.11
3009.5	84.0414
3010	84.0917
3010.5	84.3376
3011	84.5716
3011.5	84.5125
3012	83.9601
3012.5	83.0153
3013	82.2358
3013.5	82.3027
3014	83.302
3014.5	84.4533
3015	85.036
3015.5	85.0984
3016	85.0973
3016.5	85.0742
3017	84.6134
3017.5	83.6532
3018	82.891
3018.5	83.0318
3019	83.8397
3019.5	84.4902
3020	84.8011
3020.5	85.3048
3021	86.195
3021.5	86.719
3022	85.9951
3022.5	84.2399
3023	82.7437
3023.5	82.5379
3024	83.3597
3024.5	84.2051
3025	84.6386
3025.5	84.9897
3026	85.6244
3026.5	86.3473
3027	86.5832
3027.5	85.9984
3028	84.889
3028.5	84.0556
3029	84.2883
3029.5	85.6139
3030	87.1165
3030.5	87.5693
3031	86.5656
3031.5	85.0678
3032	84.5754
3032.5	85.5645
3033	86.8789
3033.5	86.9288
3034	85.5025
3034.5	84.1199
3035	84.0999
3035.5	85.0294
3036	85.3743
3036.5	84.3497
3037	82.799
3037.5	82.1166
3038	82.633
3038.5	83.4284
3039	83.6488
3039.5	83.5454
3040	83.8891
3040.5	84.6908
3041	85.1729
3041.5	84.7773
3042	83.8646
3042.5	83.3403
3043	83.7937
3043.5	85.1034
3044	86.698
3044.5	87.9859
3045	88.5922
3045.5	88.5445
3046	88.1765
3046.5	87.8528
3047	87.6592
3047.5	87.396
3048	86.8701
3048.5	86.1237
3049	85.3904
3049.5	84.9618
3050	85.1408
3050.5	86.1296
3051	87.6408
3051.5	88.8656
3052	89.0862
3052.5	88.446
3053	87.9061
3053.5	88.216
3054	88.9899
3054.5	89.0425
3055	87.738
3055.5	85.8381
3056	84.8217
3056.5	85.3704
3057	86.7356
3057.5	87.8504
3058	88.4249
3058.5	88.8808
3059	89.4464
3059.5	89.7162
3060	89.2272
3060.5	88.2083
3061	87.4403
3061.5	87.3798
3062	87.688
3062.5	87.7668
3063	87.5882
3063.5	87.6302
3064	88.1887
3064.5	89.0092
3065	89.5598
3065.5	89.4742
3066	88.724
3066.5	87.6112
3067	86.7516
3067.5	86.8439
3068	88.074
3068.5	89.646
3069	90.2542
3069.5	89.324
3070	87.525
3070.5	86.0634
3071	85.5619
3071.5	85.7317
3072	85.9969
3072.5	86.1532
3073	86.3502
3073.5	86.6939
3074	87.1355
3074.5	87.6802
3075	88.3988
3075.5	89.099
3076	89.2903
3076.5	88.6755
3077	87.5852
3077.5	86.7317
3078	86.4997
3078.5	86.5925
3079	86.4344
3079.5	85.8581
3080	85.346
3080.5	85.6236
3081	87.0119
3081.5	89.0671
3082	90.7702
3082.5	91.3317
3083	90.8321
3083.5	90.173
3084	90.3002
3084.5	91.402
3085	92.8542
3085.5	93.8652
3086	94.0628
3086.5	93.535
3087	92.6057
3087.5	91.7636
3088	91.6058
3088.5	92.4578
3089	93.8744
3089.5	94.8757
3090	94.7696
3090.5	93.6508
3091	92.1286
3091.5	90.7584
3092	89.8505
3092.5	89.6118
3093	90.1334
3093.5	91.1723
3094	92.1851
3094.5	92.7693
3095	92.9986
3095.5	93.1768
3096	93.2904
3096.5	92.9232
3097	91.8276
3097.5	90.4357
3098	89.692
3098.5	90.2871
3099	91.9583
3099.5	93.5005
3100	93.5796
3100.5	91.7875
3101	89.1107
3101.5	87.3448
3102	87.8029
3102.5	90.3227
3103	93.4442
3103.5	95.6471
3104	96.5754
3104.5	96.9554
3105	97.3924
3105.5	97.6625
3106	97.2793
3106.5	96.476
3107	96.1019
3107.5	96.4079
3108	96.4087
3108.5	94.9612
3109	92.3671
3109.5	90.3688
3110	90.3633
3110.5	91.9946
3111	93.7792
3111.5	94.768
3112	95.1193
3112.5	95.2469
3113	95.1039
3113.5	94.538
3114	93.6974
3114.5	92.7856
3115	91.7906
3115.5	90.8374
3116	90.5537
3116.5	91.5483
3117	93.4757
3117.5	95.0649
3118	95.3331
3118.5	94.5477
3119	93.7691
3119.5	93.6335
3120	93.9351
3120.5	94.2386
3121	94.4631
3121.5	94.7254
3122	94.9913
3122.5	95.1381
3123	95.1549
3123.5	95.0763
3124	94.8613
3124.5	94.575
3125	94.5882
3125.5	95.2583
3126	96.347
3126.5	97.0835
3127	97.0294
3127.5	96.641
3128	96.6511
3128.5	97.0662
3129	97.2678
3129.5	97.1348
3130	97.4588
3130.5	98.7626
3131	100.192
3131.5	100.316
3132	98.8068
3132.5	96.7602
3133	95.3401
3133.5	94.7298
3134	94.6755
3134.5	95.4211
3135	97.3622
3135.5	99.9143
3136	101.507
3136.5	101.094
3137	99.342
3137.5	97.9211
3138	97.7242
3138.5	98.1081
3139	97.9268
3139.5	97.0625
3140	96.7212
3140.5	98.1643
3141	101.089
3141.5	103.601
3142	103.919
3142.5	102.14
3143	100.161
3143.5	99.7909
3144	101.076
3144.5	102.586
3145	103.067
3145.5	102.509
3146	101.728
3146.5	101.385
3147	101.548
3147.5	101.903
3148	102.098
3148.5	102.038
3149	102.043
3149.5	102.586
3150	103.676
3150.5	104.646
3151	104.802
3151.5	104.191
3152	103.417
3152.5	102.832
3153	102.335
3153.5	102.033
3154	102.445
3154.5	103.732
3155	105.125
3155.5	105.618
3156	105.119
3156.5	104.473
3157	104.377
3157.5	104.711
3158	105.006
3158.5	105.125
3159	105.174
3159.5	105.058
3160	104.609
3160.5	104.107
3161	104.215
3161.5	105.188
3162	106.431
3162.5	107.071
3163	106.838
3163.5	106.154
3164	105.526
3164.5	105.145
3165	105.024
3165.5	105.097
3166	105.029
3166.5	104.319
3167	102.961
3167.5	101.801
3168	101.834
3168.5	103.126
3169	104.75
3169.5	105.853
3170	106.494
3170.5	107.248
3171	108.302
3171.5	109.282
3172	109.859
3172.5	110.08
3173	110.027
3173.5	109.545
3174	108.567
3174.5	107.526
3175	107.058
3175.5	107.303
3176	107.779
3176.5	108.039
3177	108.194
3177.5	108.626
3178	109.346
3178.5	109.938
3179	110.099
3179.5	110.032
3180	110.231
3180.5	111.03
3181	112.42
3181.5	114.042
3182	115.177
3182.5	115.015
3183	113.366
3183.5	111.226
3184	110.146
3184.5	110.764
3185	112.124
3185.5	112.715
3186	112.11
3186.5	111.25
3187	111.121
3187.5	111.551
3188	111.614
3188.5	111.018
3189	110.637
3189.5	111.538
3190	113.728
3190.5	116.087
3191	117.462
3191.5	117.572
3192	116.834
3192.5	115.616
3193	114.045
3193.5	112.484
3194	111.675
3194.5	112.014
3195	112.874
3195.5	113.189
3196	112.787
3196.5	112.662
3197	113.575
3197.5	114.816
3198	114.96
3198.5	113.702
3199	112.159
3199.5	111.112
3200	109.725
3200.5	106.806
3201	103.103
3201.5	101.404
3202	103.839
3202.5	109.466
3203	114.977
3203.5	117.748
3204	117.929
3204.5	117.589
3205	118.257
3205.5	119.592
3206	120.288
3206.5	119.794
3207	118.746
3207.5	117.888
3208	117.184
3208.5	116.392
3209	116.054
3209.5	117.091
3210	119.243
3210.5	120.731
3211	120.138
3211.5	118.208
3212	116.978
3212.5	117.273
3213	117.877
3213.5	117.411
3214	116.206
3214.5	115.67
3215	116.293
3215.5	117.162
3216	117.474
3216.5	117.699
3217	118.802
3217.5	120.748
3218	122.337
3218.5	122.533
3219	121.576
3219.5	120.634
3220	120.543
3220.5	121.116
3221	121.695
3221.5	122.12
3222	122.847
3222.5	124.067
3223	125.108
3223.5	125.106
3224	124.134
3224.5	123.181
3225	122.943
3225.5	123.094
3226	122.993
3226.5	122.65
3227	122.517
3227.5	122.602
3228	122.405
3228.5	121.723
3229	120.978
3229.5	120.635
3230	120.788
3230.5	121.461
3231	122.756
3231.5	124.337
3232	125.234
3232.5	124.797
3233	123.659
3233.5	123.128
3234	123.523
3234.5	123.681
3235	122.429
3235.5	120.165
3236	118.559
3236.5	118.829
3237	120.648
3237.5	122.66
3238	123.673
3238.5	123.347
3239	122.201
3239.5	121.266
3240	121.427
3240.5	122.665
3241	124.006
3241.5	124.568
3242	124.63
3242.5	125.254
3243	126.796
3243.5	128.281
3244	128.602
3244.5	127.904
3245	127.244
3245.5	127.107
3246	126.969
3246.5	126.376
3247	125.77
3247.5	125.891
3248	126.839
3248.5	128.142
3249	129.341
3249.5	130.034
3250	129.711
3250.5	128.279
3251	126.646
3251.5	126.039
3252	126.566
3252.5	127.094
3253	126.797
3253.5	126.216
3254	126.298
3254.5	126.918
3255	127.093
3255.5	126.453
3256	125.702
3256.5	125.532
3257	125.832
3257.5	126.326
3258	127.352
3258.5	129.245
3259	131.201
3259.5	131.576
3260	129.644
3260.5	126.646
3261	124.736
3261.5	125.018
3262	126.834
3262.5	128.652
3263	129.256
3263.5	128.298
3264	126.436
3264.5	125.167
3265	125.828
3265.5	128.139
3266	130.125
3266.5	130.099
3267	128.575
3267.5	127.603
3268	128.228
3268.5	129.359
3269	129.373
3269.5	128.156
3270	127.045
3270.5	127.23
3271	128.774
3271.5	130.878
3272	132.43
3272.5	132.455
3273	130.824
3273.5	128.724
3274	127.836
3274.5	128.638
3275	129.843
3275.5	129.873
3276	128.676
3276.5	127.72
3277	128.273
3277.5	130.006
3278	131.397
3278.5	131.351
3279	130.298
3279.5	129.641
3280	130.184
3280.5	131.311
3281	131.884
3281.5	131.706
3282	131.589
3282.5	131.976
3283	132.177
3283.5	131.427
3284	130.243
3284.5	129.991
3285	131.159
3285.5	132.77
3286	133.571
3286.5	133.265
3287	132.436
3287.5	131.733
3288	131.466
3288.5	131.569
3289	131.555
3289.5	130.807
3290	129.446
3290.5	128.694
3291	129.677
3291.5	131.744
3292	132.647
3292.5	130.95
3293	127.97
3293.5	126.728
3294	128.815
3294.5	132.655
3295	135.121
3295.5	134.694
3296	132.75
3296.5	131.687
3297	132.149
3297.5	132.571
3298	131.487
3298.5	129.692
3299	129.44
3299.5	131.592
3300	134.327
3300.5	135.1
3301	133.39
3301.5	131.071
3302	130.182
3302.5	131.221
3303	133.312
3303.5	135.182
3304	135.831
3304.5	134.934
3305	133.097
3305.5	131.529
3306	131.11
3306.5	131.761
3307	132.685
3307.5	133.078
3308	132.689
3308.5	132.036
3309	132.002
3309.5	132.864
3310	133.824
3310.5	134.087
3311	134.274
3311.5	135.712
3312	138.068
3312.5	138.949
3313	136.897
3313.5	133.757
3314	132.57
3314.5	133.597
3315	134.379
3315.5	133.762
3316	133.464
3316.5	134.975
3317	136.807
3317.5	136.442
3318	134.001
3318.5	132.204
3319	132.951
3319.5	135.45
3320	137.793
3320.5	138.977
3321	138.94
3321.5	137.857
3322	136.259
3322.5	135.164
3323	135.289
3323.5	136.408
3324	137.975
3324.5	139.931
3325	142.309
3325.5	144.358
3326	144.82
3326.5	143.098
3327	139.67
3327.5	135.704
3328	132.662
3328.5	131.795
3329	133.19
3329.5	135.349
3330	136.503
3330.5	136.469
3331	136.585
3331.5	137.765
3332	139.444
3332.5	140.712
3333	141.568
3333.5	142.33
3334	142.586
3334.5	141.797
3335	140.612
3335.5	140.365
3336	141.152
3336.5	141.502
3337	140.455
3337.5	138.847
3338	138.13
3338.5	138.667
3339	139.834
3339.5	141.131
3340	142.318
3340.5	142.881
3341	142.327
3341.5	141.006
3342	139.869
3342.5	139.326
3343	138.995
3343.5	138.665
3344	138.723
3344.5	139.292
3345	139.687
3345.5	139.399
3346	138.989
3346.5	139.257
3347	139.966
3347.5	140.215
3348	139.885
3348.5	139.89
3349	140.832
3349.5	142.171
3350	143.068
3350.5	143.497
3351	143.966
3351.5	144.498
3352	144.532
3352.5	143.828
3353	142.938
3353.5	142.615
3354	142.98
3354.5	143.534
3355	143.764
3355.5	143.637
3356	143.601
3356.5	144.11
3357	145.025
3357.5	145.536
3358	144.937
3358.5	143.554
3359	142.675
3359.5	143.34
3360	145.305
3360.5	147.367
3361	148.634
3361.5	149.188
3362	149.496
3362.5	149.566
3363	149.135
3363.5	148.403
3364	148.035
3364.5	148.213
3365	148.115
3365.5	146.915
3366	145.212
3366.5	144.761
3367	146.406
3367.5	148.786
3368	149.773
3368.5	148.991
3369	148.147
3369.5	148.559
3370	149.451
3370.5	149.271
3371	147.984
3371.5	147.167
3372	147.852
3372.5	149.098
3373	149.194
3373.5	147.868
3374	146.685
3374.5	147.171
3375	149.046
3375.5	150.684
3376	151.099
3376.5	150.812
3377	150.606
3377.5	150.452
3378	150.044
3378.5	149.783
3379	150.324
3379.5	151.296
3380	151.464
3380.5	150.438
3381	149.429
3381.5	149.764
3382	151.263
3382.5	152.666
3383	153.209
3383.5	152.95
3384	152.09
3384.5	151
3385	150.578
3385.5	151.52
3386	153.184
3386.5	154.061
3387	153.604
3387.5	152.772
3388	152.517
3388.5	152.604
3389	152.427
3389.5	152.147
3390	152.129
3390.5	152.097
3391	151.757
3391.5	151.688
3392	152.541
3392.5	153.582
3393	153.221
3393.5	151.274
3394	149.727
3394.5	150.663
3395	153.946
3395.5	157.409
3396	159.12
3396.5	158.595
3397	156.549
3397.5	154.174
3398	152.544
3398.5	152.127
3399	152.693
3399.5	153.781
3400	155.106
3400.5	156.369
3401	157.047
3401.5	156.887
3402	156.267
3402.5	155.697
3403	155.192
3403.5	154.503
3404	153.685
3404.5	152.921
3405	152.123
3405.5	151.412
3406	151.718
3406.5	153.892
3407	156.947
3407.5	158.591
3408	157.683
3408.5	155.431
3409	153.911
3409.5	154.137
3410	155.946
3410.5	158.806
3411	161.89
3411.5	163.887
3412	163.744
3412.5	161.736
3413	158.941
3413.5	156.347
3414	154.816
3414.5	155.223
3415	157.578
3415.5	160.21
3416	160.913
3416.5	159.334
3417	157.541
3417.5	157.629
3418	159.052
3418.5	159.466
3419	157.733
3419.5	155.492
3420	155.359
3420.5	157.822
3421	160.498
3421.5	160.747
3422	158.606
3422.5	156.635
3423	156.789
3423.5	158.495
3424	160.088
3424.5	161.116
3425	162.446
3425.5	164.291
3426	165.171
3426.5	163.511
3427	159.929
3427.5	157.06
3428	156.585
3428.5	157.525
3429	158.067
3429.5	158.068
3430	158.727
3430.5	160.197
3431	161.049
3431.5	160.452
3432	159.509
3432.5	159.58
3433	160.327
3433.5	160.859
3434	161.445
3434.5	162.756
3435	164.079
3435.5	163.818
3436	161.644
3436.5	158.938
3437	157.055
3437.5	156.221
3438	156.311
3438.5	157.369
3439	158.949
3439.5	160.011
3440	159.931
3440.5	159.112
3441	158.363
3441.5	158.124
3442	158.347
3442.5	158.629
3443	158.493
3443.5	157.967
3444	157.787
3444.5	158.508
3445	159.649
3445.5	160.302
3446	160.261
3446.5	159.832
3447	159.002
3447.5	157.886
3448	157.508
3448.5	158.689
3449	160.387
3449.5	160.631
3450	159.222
3450.5	158.125
3451	158.662
3451.5	159.764
3452	160.074
3452.5	159.916
3453	160.273
3453.5	160.796
3454	160.181
3454.5	158.266
3455	156.608
3455.5	156.606
3456	157.822
3456.5	158.619
3457	157.779
3457.5	155.42
3458	152.685
3458.5	150.848
3459	150.627
3459.5	151.971
3460	154.131
3460.5	156.064
3461	156.898
3461.5	156.47
3462	155.393
3462.5	154.499
3463	154.291
3463.5	154.937
3464	156.26
3464.5	157.508
3465	157.575
3465.5	156.163
3466	154.521
3466.5	154.303
3467	155.643
3467.5	157.009
3468	157.164
3468.5	156.435
3469	155.67
3469.5	155.183
3470	155.192
3470.5	156.3
3471	158.411
3471.5	159.595
3472	157.653
3472.5	153.119
3473	149.101
3473.5	148.075
3474	149.483
3474.5	150.895
3475	150.787
3475.5	149.554
3476	148.484
3476.5	148.497
3477	149.746
3477.5	151.417
3478	152.176
3478.5	151.606
3479	151.002
3479.5	151.787
3480	153.091
3480.5	152.713
3481	150.299
3481.5	148.227
3482	148.78
3482.5	151.45
3483	153.945
3483.5	155.091
3484	155.515
3484.5	155.689
3485	155.28
3485.5	154.23
3486	153.202
3486.5	152.689
3487	152.623
3487.5	153.103
3488	154.283
3488.5	155.168
3489	153.955
3489.5	150.482
3490	147.269
3490.5	146.844
3491	148.45
3491.5	149.261
3492	148.408
3492.5	147.64
3493	148.413
3493.5	149.877
3494	150.202
3494.5	148.713
3495	146.147
3495.5	143.534
3496	141.868
3496.5	141.798
3497	143.012
3497.5	144.541
3498	146.056
3498.5	148.003
3499	149.983
3499.5	150.414
3500	148.563
3500.5	146.015
3501	145.072
3501.5	146.053
3502	146.991
3502.5	146.261
3503	144.075
3503.5	141.807
3504	140.595
3504.5	140.631
3505	141.28
3505.5	141.67
3506	141.39
3506.5	140.59
3507	139.63
3507.5	138.829
3508	138.515
3508.5	138.929
3509	139.813
3509.5	140.527
3510	140.708
3510.5	140.626
3511	140.757
3511.5	141.169
3512	141.521
3512.5	141.604
3513	141.576
3513.5	141.697
3514	141.982
3514.5	142.143
3515	141.842
3515.5	141.093
3516	140.285
3516.5	139.614
3517	138.717
3517.5	137.197
3518	135.607
3518.5	135.377
3519	136.929
3519.5	138.713
3520	138.911
3520.5	137.725
3521	136.99
3521.5	137.417
3522	137.417
3522.5	135.821
3523	133.975
3523.5	133.931
3524	135.529
3524.5	136.579
3525	135.719
3525.5	134.027
3526	132.967
3526.5	132.512
3527	131.647
3527.5	129.952
3528	128.192
3528.5	127.561
3529	128.477
3529.5	130.211
3530	131.435
3530.5	131.418
3531	130.706
3531.5	130.376
3532	130.612
3532.5	130.774
3533	130.56
3533.5	130.285
3534	129.974
3534.5	129.012
3535	127.391
3535.5	126.257
3536	126.553
3536.5	127.747
3537	128.583
3537.5	128.639
3538	128.392
3538.5	128.123
3539	128.038
3539.5	128.865
3540	130.956
3540.5	132.873
3541	132.479
3541.5	129.904
3542	127.603
3542.5	127.441
3543	128.702
3543.5	129.489
3544	129.214
3544.5	128.625
3545	128.111
3545.5	127.291
3546	125.944
3546.5	124.627
3547	124.139
3547.5	124.609
3548	125.363
3548.5	125.432
3549	124.335
3549.5	122.614
3550	121.578
3550.5	121.96
3551	122.909
3551.5	122.561
3552	120.151
3552.5	117.419
3553	116.908
3553.5	118.787
3554	120.929
3554.5	121.731
3555	121.65
3555.5	121.594
3556	121.292
3556.5	120.577
3557	120.54
3557.5	121.97
3558	123.614
3558.5	123.49
3559	121.808
3559.5	120.382
3560	120.208
3560.5	120.585
3561	120.409
3561.5	119.521
3562	118.578
3562.5	118.149
3563	118.103
3563.5	117.671
3564	116.38
3564.5	115.122
3565	115.315
3565.5	117.116
3566	118.862
3566.5	118.727
3567	116.964
3567.5	115.767
3568	116.567
3568.5	118.404
3569	119.127
3569.5	117.951
3570	116.155
3570.5	114.731
3571	113.385
3571.5	112.037
3572	111.799
3572.5	113.173
3573	114.499
3573.5	114.124
3574	112.618
3574.5	111.693
3575	111.76
3575.5	112.108
3576	112.926
3576.5	114.872
3577	117.211
3577.5	117.946
3578	116.066
3578.5	112.566
3579	109.218
3579.5	107.554
3580	108.165
3580.5	110.012
3581	111.005
3581.5	110.217
3582	108.553
3582.5	107.243
3583	106.496
3583.5	106.112
3584	106.293
3584.5	106.894
3585	107.052
3585.5	106.38
3586	105.777
3586.5	106.035
3587	106.737
3587.5	107.103
3588	107.1
3588.5	107.129
3589	107.175
3589.5	107.026
3590	106.744
3590.5	106.478
3591	106.203
3591.5	105.986
3592	106.076
3592.5	106.442
3593	106.608
3593.5	106.312
3594	106.159
3594.5	106.85
3595	107.947
3595.5	107.892
3596	105.787
3596.5	103.207
3597	102.362
3597.5	103.411
3598	104.311
3598.5	103.554
3599	102.179
3599.5	101.636
3600	101.883
3600.5	102.254
3601	103.01
3601.5	104.529
3602	105.882
3602.5	105.69
3603	103.876
3603.5	101.679
3604	100.084
3604.5	99.2382
3605	99.2741
3605.5	100.627
3606	103.333
3606.5	106.177
3607	107.383
3607.5	106.164
3608	103.824
3608.5	102.707
3609	103.232
3609.5	103.429
3610	101.668
3610.5	98.9872
3611	97.8537
3611.5	98.7504
3612	99.9058
3612.5	99.7077
3613	98.4099
3613.5	97.4658
3614	97.6345
3614.5	98.4631
3615	99.1796
3615.5	99.532
3616	99.5289
3616.5	98.7947
3617	97.1802
3617.5	95.7937
3618	96.1795
3618.5	97.8378
3619	98.6802
3619.5	98.0857
3620	97.7833
3620.5	98.9768
3621	100.119
3621.5	99.6407
3622	98.4156
3622.5	98.2298
3623	98.9439
3623.5	99.0532
3624	98.161
3624.5	96.9656
3625	96.0358
3625.5	95.8944
3626	97.3586
3626.5	100.228
3627	102.361
3627.5	101.452
3628	98.1517
3628.5	94.9706
3629	93.5632
3629.5	93.6365
3630	94.0304
3630.5	94.0675
3631	93.7619
3631.5	93.6264
3632	94.2216
3632.5	95.216
3633	95.6234
3633.5	95.142
3634	94.6269
3634.5	94.6747
3635	94.4622
3635.5	93.1983
3636	91.6316
3636.5	91.2932
3637	92.3112
3637.5	93.413
3638	93.56
3638.5	92.6915
3639	91.4159
3639.5	90.6376
3640	91.1033
3640.5	92.6724
3641	94.1738
3641.5	94.6672
3642	94.3058
3642.5	93.5091
3643	92.28
3643.5	90.8605
3644	90.1876
3644.5	90.7788
3645	91.8303
3645.5	91.9877
3646	91.0971
3646.5	90.2504
3647	90.4363
3647.5	91.431
3648	92.018
3648.5	91.5482
3649	90.6205
3649.5	90.0105
3650	89.3301
3650.5	87.8022
3651	86.0666
3651.5	85.7517
3652	87.2476
3652.5	88.8426
3653	89.0298
3653.5	88.0012
3654	87.004
3654.5	87.0564
3655	88.2506
3655.5	89.7127
3656	90.0817
3656.5	88.9255
3657	87.5529
3657.5	87.1425
3658	87.3137
3658.5	86.9429
3659	86.048
3659.5	85.5492
3660	85.8525
3660.5	86.5316
3661	87.0383
3661.5	87.1952
3662	87.1133
3662.5	87.0608
3663	87.1121
3663.5	86.9323
3664	86.2859
3664.5	85.428
3665	84.6336
3665.5	83.7815
3666	83.0351
3666.5	83.1294
3667	84.2665
3667.5	85.1866
3668	84.7975
3668.5	83.571
3669	82.7549
3669.5	82.4254
3670	81.7642
3670.5	80.773
3671	80.6846
3671.5	82.1264
3672	83.9656
3672.5	84.5328
3673	83.454
3673.5	82.0046
3674	81.2543
3674.5	81.1164
3675	81.0841
3675.5	81.1378
3676	81.416
3676.5	81.6149
3677	81.3576
3677.5	80.9438
3678	81.0004
3678.5	81.5017
3679	81.6087
3679.5	80.7269
3680	79.5527
3680.5	79.4048
3681	80.6429
3681.5	81.8886
3682	81.7217
3682.5	80.4545
3683	79.5571
3683.5	79.6036
3684	79.7739
3684.5	79.5641
3685	79.6229
3685.5	80.7138
3686	82.4457
3686.5	83.6422
3687	83.3021
3687.5	81.5406
3688	79.6411
3688.5	78.8736
3689	79.2616
3689.5	79.6409
3690	79.4826
3690.5	79.4803
3691	80.1218
3691.5	80.556
3692	79.8798
3692.5	78.4781
3693	77.4287
3693.5	77.0782
3694	77.0721
3694.5	77.2161
3695	77.5235
3695.5	77.8586
3696	78.1042
3696.5	78.2448
3697	77.9747
3697.5	76.9401
3698	75.6517
3698.5	75.3461
3699	76.4202
3699.5	77.4895
3700	77.3903
