#Imported=	16.12.2021 13:58:47
50	11.9437
50.5	13.2519
51	13.7483
51.5	13.55
52	13.348
52.5	13.7715
53	14.7842
53.5	15.947
54	16.6208
54.5	16.5438
55	16.0308
55.5	16.0459
56	17.1218
56.5	19.3995
57	22.3292
57.5	25.1088
58	27.018
58.5	28.1234
59	29.0507
59.5	30.3886
60	32.5067
60.5	35.2988
61	38.5123
61.5	41.8434
62	45.299
62.5	49.1346
63	53.6222
63.5	58.7466
64	64.36
64.5	70.0637
65	75.524
65.5	80.637
66	85.4297
66.5	90.0396
67	94.5441
67.5	99.0264
68	103.63
68.5	108.552
69	114.015
69.5	119.964
70	126.2
70.5	132.18
71	137.302
71.5	141.296
72	144.143
72.5	146.399
73	148.534
73.5	151.049
74	154.069
74.5	157.399
75	160.682
75.5	163.637
76	166.114
76.5	168.02
77	169.543
77.5	170.857
78	172.143
78.5	173.486
79	174.852
79.5	176.026
80	176.713
80.5	176.553
81	175.285
81.5	173.33
82	171.132
82.5	169.391
83	168.564
83.5	168.876
84	170.112
84.5	171.479
85	172.459
85.5	172.552
86	171.792
86.5	170.345
87	168.456
87.5	166.531
88	164.771
88.5	163.429
89	162.655
89.5	162.584
90	163.453
90.5	165.019
91	166.906
91.5	168.716
92	170.12
92.5	170.999
93	171.355
93.5	171.521
94	171.85
94.5	172.645
95	173.996
95.5	175.861
96	178.172
96.5	180.706
97	183.25
97.5	185.689
98	188.069
98.5	190.545
99	193.376
99.5	196.767
100	200.77
100.5	205.249
101	209.899
101.5	214.535
102	219.16
102.5	224.001
103	229.388
103.5	235.759
104	243.081
104.5	251.015
105	259.227
105.5	267.366
106	275.314
106.5	283.187
107	291.317
107.5	299.841
108	308.703
108.5	317.556
109	325.944
109.5	333.36
110	339.352
110.5	344.155
111	348.071
111.5	351.564
112	355.139
112.5	359.145
113	363.789
113.5	368.879
114	374.035
114.5	378.766
115	382.772
115.5	385.832
116	387.845
116.5	389.078
117	389.72
117.5	389.956
118	389.958
118.5	389.824
119	389.74
119.5	389.955
120	390.798
120.5	392.571
121	394.993
121.5	397.721
122	400.168
122.5	401.853
123	402.47
123.5	401.794
124	400.464
124.5	398.973
125	397.826
125.5	397.229
126	397.209
126.5	397.689
127	398.331
127.5	398.943
128	399.461
128.5	399.978
129	400.617
129.5	401.525
130	402.657
130.5	403.832
131	404.65
131.5	404.865
132	404.375
132.5	403.203
133	401.812
133.5	400.677
134	400.488
134.5	401.263
135	402.808
135.5	404.773
136	406.619
136.5	408.007
137	408.678
137.5	408.779
138	408.59
138.5	408.266
139	407.881
139.5	407.409
140	406.784
140.5	406.05
141	405.381
141.5	405.076
142	405.31
142.5	406.095
143	407.363
143.5	408.812
144	410.137
144.5	411.041
145	411.503
145.5	411.641
146	411.588
146.5	411.522
147	411.555
147.5	411.771
148	412.207
148.5	412.83
149	413.64
149.5	414.584
150	415.586
150.5	416.568
151	417.469
151.5	418.282
152	419.012
152.5	419.612
153	419.954
153.5	419.777
154	418.805
154.5	417.005
155	414.511
155.5	411.999
156	410.146
156.5	409.523
157	410.345
157.5	412.132
158	414.235
158.5	415.704
159	416.181
159.5	415.8
160	415.135
160.5	414.863
161	415.405
161.5	416.771
162	418.294
162.5	419.232
163	419.108
163.5	418.265
164	417.352
164.5	417.436
165	419.149
165.5	422.823
166	427.92
166.5	432.995
167	436.946
167.5	438.664
168	438.273
168.5	436.149
169	433.128
169.5	430.473
170	428.81
170.5	428.446
171	428.869
171.5	429.605
172	430.069
172.5	429.951
173	429.177
173.5	427.907
174	426.511
174.5	425.211
175	424.272
175.5	423.784
176	423.813
176.5	424.441
177	425.324
177.5	426.115
178	426.354
178.5	425.906
179	424.872
179.5	423.676
180	423.066
180.5	423.59
181	425.409
181.5	427.796
182	429.933
182.5	430.807
183	430.114
183.5	428.119
184	425.728
184.5	424.296
185	424.525
185.5	426.849
186	430.609
186.5	434.926
187	438.799
187.5	441.458
188	442.766
188.5	442.954
189	442.632
189.5	442.309
190	442.371
190.5	442.901
191	443.712
191.5	444.342
192	444.286
192.5	443.315
193	441.356
193.5	438.859
194	436.509
194.5	435.152
195	435.451
195.5	437.309
196	440.166
196.5	443.043
197	445.118
197.5	445.798
198	445.118
198.5	443.726
199	442.499
199.5	442.198
200	442.905
200.5	444.405
201	446.101
201.5	447.419
202	447.996
202.5	447.857
203	447.517
203.5	447.521
204	448.249
204.5	449.649
205	451.502
205.5	453.372
206	454.866
206.5	455.715
207	455.967
207.5	455.915
208	455.736
208.5	455.531
209	455.296
209.5	454.987
210	454.646
210.5	454.515
211	454.942
211.5	456.309
212	458.517
212.5	461.31
213	464.085
213.5	466.158
214	466.965
214.5	466.171
215	464.494
215.5	462.536
216	461.048
216.5	460.394
217	460.656
217.5	461.685
218	462.89
218.5	463.857
219	464.272
219.5	464.212
220	463.791
220.5	463.184
221	462.643
221.5	462.354
222	462.65
222.5	463.568
223	465.102
223.5	467.199
224	469.513
224.5	471.771
225	473.691
225.5	475.25
226	476.568
226.5	477.883
227	479.321
227.5	480.813
228	482.086
228.5	482.853
229	482.946
229.5	482.309
230	481.396
230.5	480.755
231	480.951
231.5	482.115
232	484.09
232.5	486.524
233	488.784
233.5	490.379
234	490.847
234.5	490.486
235	489.795
235.5	489.447
236	490.05
236.5	491.876
237	495.059
237.5	499.123
238	503.393
238.5	507.257
239	510.5
239.5	513.299
240	516.01
240.5	519.04
241	522.503
241.5	526.17
242	529.279
242.5	531.146
243	531.15
243.5	529.262
244	526.034
244.5	522.074
245	518.188
245.5	514.905
246	512.536
246.5	510.876
247	509.574
247.5	508.437
248	507.391
248.5	506.486
249	505.85
249.5	505.559
250	505.501
250.5	505.471
251	505.258
251.5	504.819
252	504.232
252.5	503.708
253	503.442
253.5	503.55
254	503.999
254.5	504.531
255	504.926
255.5	505.036
256	504.909
256.5	504.645
257	504.415
257.5	504.357
258	504.578
258.5	505.176
259	506.069
259.5	507.184
260	508.341
260.5	509.283
261	509.786
261.5	509.659
262	509.141
262.5	508.652
263	508.888
263.5	510.104
264	512.292
264.5	515.119
265	517.828
265.5	519.881
266	520.822
266.5	521.01
267	520.976
267.5	521.338
268	522.235
268.5	523.512
269	524.732
269.5	525.451
270	525.442
270.5	524.595
271	523.291
271.5	521.846
272	520.482
272.5	519.304
273	518.38
273.5	517.869
274	517.824
274.5	518.269
275	519.181
275.5	520.252
276	521.305
276.5	522.39
277	523.818
277.5	525.972
278	529.313
278.5	533.639
279	538.33
279.5	542.11
280	544.007
280.5	543.763
281	541.566
281.5	538.684
282	536.381
282.5	535.849
283	537.297
283.5	540.105
284	543.1
284.5	545.168
285	546.003
285.5	545.809
286	545.446
286.5	545.686
287	547.033
287.5	549.252
288	551.557
288.5	553.038
289	553.275
289.5	552.55
290	551.479
290.5	550.971
291	551.598
291.5	553.628
292	556.608
292.5	559.52
293	561.253
293.5	561.022
294	558.868
294.5	555.078
295	550.534
295.5	546.289
296	543.202
296.5	541.809
297	541.828
297.5	542.767
298	544.09
298.5	545.426
299	546.661
299.5	547.745
300	548.571
300.5	548.804
301	547.861
301.5	545.581
302	542.232
302.5	538.601
303	535.721
303.5	534.405
304	535.16
304.5	537.362
305	540.294
305.5	543
306	544.932
306.5	546.087
307	546.65
307.5	546.923
308	546.917
308.5	546.426
309	545.388
309.5	543.857
310	542.18
310.5	540.941
311	540.527
311.5	541.339
312	543.237
312.5	546.225
313	550.512
313.5	555.809
314	561.838
314.5	567.826
315	572.523
315.5	574.989
316	574.187
316.5	570.926
317	566.187
317.5	561.483
318	558.238
318.5	557.185
319	558.805
319.5	562.113
320	566.071
320.5	569.774
321	572.704
321.5	574.727
322	575.831
322.5	576.431
323	576.886
323.5	577.599
324	578.866
324.5	580.801
325	583.521
325.5	586.923
326	590.94
326.5	595.608
327	600.787
327.5	606.285
328	611.794
328.5	616.858
329	621.125
329.5	624.334
330	626.628
330.5	628.307
331	629.662
331.5	631.029
332	632.605
332.5	634.521
333	636.733
333.5	639.012
334	640.862
334.5	641.648
335	640.944
335.5	638.392
336	634.395
336.5	629.919
337	626.109
337.5	623.925
338	623.423
338.5	623.829
339	623.694
339.5	622.098
340	618.755
340.5	614.475
341	610.664
341.5	608.642
342	609.042
342.5	611.086
343	613.385
343.5	614.206
344	612.967
344.5	609.768
345	605.588
345.5	601.756
346	599.248
346.5	598.598
347	599.367
347.5	601.06
348	603.029
348.5	604.832
349	606.328
349.5	607.44
350	608.187
350.5	608.503
351	608.307
351.5	607.727
352	606.933
352.5	606.259
353	606.023
353.5	606.414
354	607.532
354.5	609.091
355	610.79
355.5	612.172
356	612.934
356.5	612.928
357	612.22
357.5	611.463
358	611.376
358.5	612.862
359	615.906
359.5	620.214
360	624.997
360.5	629.087
361	631.703
361.5	632.176
362	631.249
362.5	629.801
363	629.037
363.5	629.381
364	630.668
364.5	632.275
365	633.388
365.5	633.629
366	632.995
366.5	632.187
367	631.833
367.5	632.485
368	633.823
368.5	635.296
369	636.343
369.5	636.848
370	637.053
370.5	637.426
371	638.286
371.5	639.588
372	640.948
372.5	641.817
373	642.002
373.5	641.769
374	641.774
374.5	642.486
375	644.086
375.5	646.033
376	647.547
376.5	647.714
377	646.245
377.5	643.511
378	640.298
378.5	637.616
379	635.882
379.5	635.109
380	634.737
380.5	634.176
381	633.071
381.5	631.618
382	630.453
382.5	630.53
383	632.649
383.5	636.678
384	642.017
384.5	647.377
385	651.532
385.5	653.465
386	652.975
386.5	650.917
387	648.409
387.5	646.839
388	646.924
388.5	648.693
389	651.107
389.5	652.917
390	653.192
390.5	651.641
391	649.025
391.5	646.323
392	644.691
392.5	644.562
393	645.882
393.5	647.913
394	649.565
394.5	650.184
395	649.57
395.5	648.3
396	647.039
396.5	646.588
397	647.244
397.5	649.027
398	651.569
398.5	654.099
399	655.932
399.5	656.542
400	656.18
400.5	655.27
401	654.587
401.5	654.805
402	656.323
402.5	659.283
403	662.927
403.5	666.499
404	668.958
404.5	669.904
405	669.413
405.5	667.865
406	666.137
406.5	664.75
407	664.137
407.5	664.162
408	664.67
408.5	665.588
409	666.901
409.5	668.811
410	671.778
410.5	675.586
411	679.845
411.5	683.762
412	686.569
412.5	687.791
413	687.078
413.5	685.13
414	682.683
414.5	680.574
415	679.275
415.5	678.809
416	678.863
416.5	678.969
417	678.991
417.5	679.121
418	679.711
418.5	680.977
419	682.908
419.5	684.946
420	686.456
420.5	686.787
421	685.998
421.5	684.747
422	684.053
422.5	684.688
423	686.816
423.5	690.263
424	694.216
424.5	697.942
425	700.867
425.5	702.813
426	703.853
426.5	703.893
427	702.888
427.5	701.031
428	698.693
428.5	696.745
429	696.054
429.5	697.455
430	700.971
430.5	705.754
431	710.705
431.5	714.623
432	717.07
432.5	718.133
433	718.678
433.5	719.534
434	721.075
434.5	723.199
435	725.528
435.5	727.849
436	730.198
436.5	732.774
437	735.722
437.5	738.875
438	741.756
438.5	743.795
439	744.735
439.5	745.019
440	745.183
440.5	745.766
441	746.805
441.5	747.965
442	748.604
442.5	748.377
443	747.283
443.5	745.801
444	744.679
444.5	744.426
445	745.025
445.5	745.747
446	745.9
446.5	744.874
447	742.931
447.5	740.647
448	739.034
448.5	738.725
449	739.901
449.5	742.188
450	744.388
450.5	745.46
451	744.519
451.5	742.169
452	739.199
452.5	736.757
453	735.449
453.5	735.3
454	735.878
454.5	736.329
455	736.287
455.5	735.856
456	735.731
456.5	736.488
457	738.399
457.5	740.619
458	742.346
458.5	742.872
459	742.596
459.5	742.34
460	743.285
460.5	745.728
461	749.174
461.5	752.334
462	753.922
462.5	753.529
463	751.685
463.5	750.285
464	750.608
464.5	753.283
465	757.152
465.5	760.671
466	762.172
466.5	761.296
467	758.726
467.5	755.685
468	753.474
468.5	752.511
469	752.538
469.5	752.579
470	751.995
470.5	750.651
471	749.005
471.5	747.526
472	746.458
472.5	745.645
473	744.801
473.5	743.771
474	742.736
474.5	742.063
475	742.172
475.5	743.146
476	744.675
476.5	746.376
477	747.97
477.5	749.444
478	750.894
478.5	752.374
479	753.77
479.5	754.852
480	755.466
480.5	755.779
481	756.169
481.5	757.142
482	758.856
482.5	761.087
483	763.02
483.5	763.889
484	763.099
484.5	760.542
485	756.896
485.5	752.861
486	749.276
486.5	746.639
487	745.266
487.5	745.319
488	746.538
488.5	748.835
489	752.074
489.5	755.816
490	759.702
490.5	763.322
491	766.422
491.5	768.814
492	770.292
492.5	770.92
493	770.631
493.5	769.358
494	767.491
494.5	765.507
495	764.282
495.5	764.452
496	766.429
496.5	770.02
497	773.941
497.5	777.072
498	778.195
498.5	777.528
499	775.771
499.5	774.312
500	774.323
500.5	776.24
501	779.888
501.5	783.828
502	786.987
502.5	788.424
503	788.578
503.5	788.218
504	788.167
504.5	788.641
505	789.365
505.5	789.751
506	789.486
506.5	788.657
507	787.689
507.5	787.1
508	787.066
508.5	787.469
509	787.861
509.5	787.995
510	787.922
510.5	788.075
511	788.802
511.5	790.343
512	792.487
512.5	794.995
513	797.788
513.5	800.903
514	804.411
514.5	808.252
515	811.97
515.5	815.004
516	816.722
516.5	817.146
517	816.811
517.5	816.552
518	817.076
518.5	818.458
519	820.355
519.5	822.067
520	823.143
520.5	823.47
521	823.49
521.5	823.794
522	824.895
522.5	826.855
523	829.253
523.5	831.481
524	832.916
524.5	833.375
525	832.987
525.5	832.383
526	832.179
526.5	832.799
527	834.249
527.5	836.101
528	837.913
528.5	839.383
529	840.652
529.5	842.162
530	844.483
530.5	847.724
531	851.599
531.5	855.231
532	857.715
532.5	858.329
533	857.075
533.5	854.887
534	852.705
534.5	851.606
535	852.079
535.5	854.402
536	858.559
536.5	863.782
537	869.296
537.5	873.894
538	876.649
538.5	876.853
539	874.198
539.5	869.885
540	865.142
540.5	861.581
541	859.829
541.5	859.951
542	861.663
542.5	864.128
543	867.026
543.5	870.328
544	873.974
544.5	877.81
545	881.293
545.5	883.83
546	884.971
546.5	884.343
547	882.631
547.5	880.431
548	878.431
548.5	876.984
549	876.09
549.5	875.683
550	875.592
550.5	875.872
551	876.856
551.5	878.712
552	881.547
552.5	885.367
553	889.571
553.5	893.534
554	896.45
554.5	898.117
555	898.789
555.5	899.205
556	900.379
556.5	902.856
557	906.489
557.5	910.038
558	912.321
558.5	912.285
559	910.35
559.5	907.607
560	905.456
560.5	904.727
561	905.25
561.5	906.17
562	906.324
562.5	905.238
563	903.116
563.5	901.004
564	899.784
564.5	899.936
565	900.999
565.5	902.193
566	903.038
566.5	903.695
567	904.725
567.5	906.78
568	910.016
568.5	914.028
569	918.283
569.5	922.298
570	926.012
570.5	929.618
571	933.315
571.5	936.953
572	939.902
572.5	941.261
573	940.591
573.5	937.736
574	933.526
574.5	929.521
575	927.215
575.5	927.727
576	930.849
576.5	935.947
577	941.596
577.5	946.368
578	949.325
578.5	950.217
579	949.834
579.5	948.944
580	948.275
580.5	948.029
581	948.056
581.5	948.07
582	948.017
582.5	948.147
583	948.942
583.5	950.484
584	952.584
584.5	954.79
585	956.744
585.5	958.461
586	960.304
586.5	962.582
587	965.221
587.5	967.518
588	968.595
588.5	967.852
589	965.265
589.5	962.308
590	960.546
590.5	961.902
591	966.286
591.5	972.872
592	979.773
592.5	984.907
593	987.362
593.5	987.027
594	985.761
594.5	985.054
595	986.472
595.5	989.984
596	995.08
596.5	1000.92
597	1006.58
597.5	1011.75
598	1016.45
598.5	1020.98
599	1025.43
599.5	1029.62
600	1033.34
600.5	1036.51
601	1039.26
601.5	1042.01
602	1044.95
602.5	1047.92
603	1050.42
603.5	1052.12
604	1053.01
604.5	1053.9
605	1055.6
605.5	1058.78
606	1062.89
606.5	1066.72
607	1068.55
607.5	1067.57
608	1064.17
608.5	1059.63
609	1056.02
609.5	1054.66
610	1056.2
610.5	1059.64
611	1063.58
611.5	1066.72
612	1068.44
612.5	1068.83
613	1068.04
613.5	1066.3
614	1063.79
614.5	1060.66
615	1057.53
615.5	1055.16
616	1054.36
616.5	1055.31
617	1057.48
617.5	1060.09
618	1062.28
618.5	1063.72
619	1064.47
619.5	1064.94
620	1065.44
620.5	1065.99
621	1066.4
621.5	1066.56
622	1066.58
622.5	1066.82
623	1067.57
623.5	1068.9
624	1070.6
624.5	1072.34
625	1074.02
625.5	1075.79
626	1077.9
626.5	1080.42
627	1083.11
627.5	1085.48
628	1087.11
628.5	1087.82
629	1087.98
629.5	1088.01
630	1088.34
630.5	1089.1
631	1090.32
631.5	1092.2
632	1094.91
632.5	1098.82
633	1104.09
633.5	1109.94
634	1115.21
634.5	1118.07
635	1117.9
635.5	1114.79
636	1109.72
636.5	1104.77
637	1101.34
637.5	1100.51
638	1101.58
638.5	1103.68
639	1105.71
639.5	1107.02
640	1107.56
640.5	1107.61
641	1107.74
641.5	1108.25
642	1109.36
642.5	1110.94
643	1112.93
643.5	1115.26
644	1117.62
644.5	1119.59
645	1120.47
645.5	1120.07
646	1118.52
646.5	1116.48
647	1115.07
647.5	1114.96
648	1116.43
648.5	1118.51
649	1120.2
649.5	1120.51
650	1119.63
650.5	1118.38
651	1118.06
651.5	1119.44
652	1122.44
652.5	1126.35
653	1129.94
653.5	1132.55
654	1134.03
654.5	1135.15
655	1136.67
655.5	1139.24
656	1142.85
656.5	1147.17
657	1151.91
657.5	1156.79
658	1161.54
658.5	1165.63
659	1168.24
659.5	1168.73
660	1166.56
660.5	1162.39
661	1157.58
661.5	1153.66
662	1151.75
662.5	1151.93
663	1153.85
663.5	1156.52
664	1159.11
664.5	1161.13
665	1162.43
665.5	1163.09
666	1163.05
666.5	1162.36
667	1161.21
667.5	1159.95
668	1159.11
668.5	1159.03
669	1159.88
669.5	1161.51
670	1163.42
670.5	1165.19
671	1166.41
671.5	1166.95
672	1166.63
672.5	1165.38
673	1163.38
673.5	1160.87
674	1158.38
674.5	1156.53
675	1155.91
675.5	1157
676	1159.52
676.5	1163.06
677	1166.81
677.5	1169.89
678	1171.68
678.5	1171.83
679	1170.97
679.5	1169.8
680	1169.14
680.5	1169.21
681	1169.72
681.5	1169.88
682	1169.09
682.5	1167.28
683	1165.09
683.5	1163.7
684	1163.98
684.5	1166.53
685	1170.41
685.5	1174.67
686	1178.25
686.5	1180.85
687	1182.63
687.5	1183.92
688	1185.12
688.5	1186.21
689	1187.08
689.5	1187.85
690	1188.84
690.5	1190.58
691	1193.05
691.5	1195.85
692	1198.03
692.5	1198.87
693	1198.15
693.5	1196.19
694	1194.28
694.5	1193.5
695	1194.91
695.5	1198.26
696	1202.79
696.5	1207.24
697	1210.32
697.5	1211.37
698	1210.11
698.5	1207.52
699	1204.73
699.5	1202.95
700	1202.63
700.5	1203.45
701	1204.67
701.5	1205.35
702	1205.14
702.5	1204.19
703	1203.23
703.5	1202.85
704	1203.28
704.5	1204.19
705	1205.15
705.5	1206
706	1207.03
706.5	1208.7
707	1211.36
707.5	1214.84
708	1218.67
708.5	1222.6
709	1226.75
709.5	1231.52
710	1237.26
710.5	1243.47
711	1248.87
711.5	1251.67
712	1250.64
712.5	1246.28
713	1239.97
713.5	1234.19
714	1230.77
714.5	1230.54
715	1232.73
715.5	1235.47
716	1237.31
716.5	1237.71
717	1237.55
717.5	1238.12
718	1240.52
718.5	1244.47
719	1248.89
719.5	1251.96
720	1252.69
720.5	1250.96
721	1247.86
721.5	1245.28
722	1244.61
722.5	1246.55
723	1250.12
723.5	1254.18
724	1257.48
724.5	1259.69
725	1261.13
725.5	1262.66
726	1264.93
726.5	1267.99
727	1271.26
727.5	1273.87
728	1275.31
728.5	1275.46
729	1275.13
729.5	1275.03
730	1275.81
730.5	1277.3
731	1279.13
731.5	1280.77
732	1282.02
732.5	1283
733	1283.97
733.5	1284.99
734	1285.78
734.5	1285.67
735	1284.5
735.5	1282.48
736	1280.34
736.5	1278.94
737	1278.68
737.5	1279.52
738	1280.71
738.5	1281.83
739	1283.08
739.5	1285.2
740	1288.91
740.5	1294.64
741	1301.32
741.5	1307.61
742	1311.93
742.5	1314.01
743	1314.42
743.5	1314.16
744	1314.17
744.5	1314.55
745	1314.75
745.5	1314.2
746	1312.88
746.5	1311.41
747	1310.8
747.5	1311.62
748	1313.96
748.5	1316.98
749	1319.89
749.5	1322.26
750	1324.37
750.5	1326.81
751	1330.2
751.5	1334.47
752	1338.95
752.5	1342.6
753	1344.54
753.5	1344.59
754	1342.98
754.5	1340.72
755	1338.85
755.5	1338.08
756	1338.34
756.5	1338.87
757	1338.73
757.5	1337.29
758	1334.84
758.5	1332.22
759	1330.72
759.5	1331.07
760	1333.58
760.5	1337.75
761	1342.58
761.5	1347.29
762	1351.21
762.5	1354.05
763	1355.51
763.5	1355.54
764	1354.61
764.5	1353.33
765	1352.56
765.5	1352.67
766	1353.55
766.5	1354.48
767	1354.7
767.5	1353.94
768	1352.63
768.5	1351.71
769	1351.9
769.5	1353.56
770	1356.14
770.5	1359.21
771	1362.52
771.5	1366.05
772	1369.81
772.5	1373.41
773	1376.2
773.5	1377.62
774	1377.57
774.5	1377.11
775	1377.31
775.5	1379.14
776	1382.07
776.5	1385.02
777	1386.29
777.5	1385.28
778	1382.1
778.5	1377.57
779	1373.27
779.5	1370.26
780	1369.76
780.5	1371.67
781	1375.78
781.5	1381.59
782	1387.52
782.5	1392.3
783	1394.55
783.5	1394.63
784	1393.39
784.5	1392.25
785	1392.28
785.5	1393.63
786	1395.93
786.5	1398.34
787	1400.54
787.5	1402.57
788	1404.61
788.5	1406.46
789	1407.37
789.5	1406.87
790	1405.07
790.5	1402.76
791	1401.3
791.5	1401.47
792	1403.46
792.5	1406.22
793	1408.79
793.5	1410.55
794	1411.74
794.5	1412.87
795	1414.25
795.5	1415.61
796	1416.42
796.5	1416.2
797	1415.2
797.5	1414.15
798	1414.07
798.5	1415.61
799	1418.83
799.5	1423.58
800	1429.17
800.5	1434.87
801	1439.86
801.5	1443.42
802	1445.24
802.5	1445.11
803	1443.57
803.5	1441.51
804	1439.73
804.5	1438.74
805	1438.5
805.5	1438.75
806	1439.12
806.5	1439.42
807	1439.7
807.5	1440.11
808	1440.77
808.5	1441.72
809	1442.88
809.5	1444.11
810	1445.35
810.5	1446.61
811	1448.01
811.5	1449.71
812	1451.81
812.5	1454.16
813	1456.51
813.5	1458.4
814	1459.66
814.5	1460.24
815	1460.38
815.5	1460.46
816	1460.72
816.5	1461.35
817	1462.47
817.5	1464.37
818	1467.52
818.5	1471.69
819	1476.22
819.5	1479.51
820	1480.27
820.5	1477.87
821	1472.8
821.5	1467.53
822	1464.13
822.5	1464.48
823	1467.67
823.5	1472.28
824	1476.38
824.5	1479.11
825	1480.75
825.5	1482.35
826	1484.73
826.5	1487.92
827	1491.25
827.5	1493.96
828	1495.87
828.5	1497.26
829	1498.76
829.5	1500.47
830	1502.01
830.5	1502.83
831	1502.71
831.5	1501.74
832	1500.55
832.5	1499.45
833	1498.38
833.5	1497.14
834	1495.8
834.5	1495.05
835	1495.74
835.5	1498.29
836	1502.54
836.5	1507.01
837	1510.36
837.5	1511.57
838	1511.32
838.5	1510.89
839	1511.82
839.5	1514.41
840	1517.83
840.5	1520.33
841	1520.54
841.5	1518.34
842	1514.73
842.5	1511.9
843	1511.42
843.5	1514.08
844	1518.64
844.5	1523.08
845	1525.45
845.5	1525.17
846	1523.34
846.5	1521.92
847	1522.85
847.5	1526.53
848	1532.07
848.5	1537.09
849	1539.68
849.5	1538.9
850	1536.01
850.5	1533.41
851	1533.45
851.5	1537.09
852	1543.06
852.5	1549.21
853	1553.02
853.5	1553.55
854	1551.02
854.5	1547.19
855	1544.13
855.5	1543.29
856	1545.16
856.5	1548.9
857	1553.62
857.5	1558.18
858	1561.86
858.5	1564.3
859	1565.6
859.5	1566.5
860	1567.81
860.5	1570.25
861	1573.59
861.5	1576.95
862	1578.72
862.5	1578.05
863	1574.99
863.5	1571.01
864	1568.43
864.5	1568.92
865	1573
865.5	1578.58
866	1583.43
866.5	1585.28
867	1584.37
867.5	1581.97
868	1580.37
868.5	1580.96
869	1583.85
869.5	1588.01
870	1591.73
870.5	1594.19
871	1595.26
871.5	1595.93
872	1596.8
872.5	1598.07
873	1599.25
873.5	1599.93
874	1600.03
874.5	1600.2
875	1601.1
875.5	1603.31
876	1606.35
876.5	1609.49
877	1611.91
877.5	1613.51
878	1614.71
878.5	1616.15
879	1618.01
879.5	1619.72
880	1619.9
880.5	1617.76
881	1613.49
881.5	1608.65
882	1606.01
882.5	1607.64
883	1615.2
883.5	1626.75
884	1639.45
884.5	1649.66
885	1655.23
885.5	1655.93
886	1652.45
886.5	1647.3
887	1642.35
887.5	1638.98
888	1637.54
888.5	1637.79
889	1639.38
889.5	1641.43
890	1643.04
890.5	1643.37
891	1642.37
891.5	1640.84
892	1640.21
892.5	1641.7
893	1645.4
893.5	1650.44
894	1654.96
894.5	1657.71
895	1658.44
895.5	1658.46
896	1659.4
896.5	1662.31
897	1666.7
897.5	1670.98
898	1673.49
898.5	1673.47
899	1671.68
899.5	1669.25
900	1667.26
900.5	1665.77
901	1664.2
901.5	1661.92
902	1659.12
902.5	1656.81
903	1656.61
903.5	1659.29
904	1665.09
904.5	1673.11
905	1681.57
905.5	1688.91
906	1693.73
906.5	1695.73
907	1694.68
907.5	1690.85
908	1685.52
908.5	1679.92
909	1675.72
909.5	1673.91
910	1674.92
910.5	1678.42
911	1682.79
911.5	1686.77
912	1689.24
912.5	1690.3
913	1690.47
913.5	1690.6
914	1691.34
914.5	1692.86
915	1694.94
915.5	1697.02
916	1698.69
916.5	1699.62
917	1699.96
917.5	1700
918	1700.39
918.5	1701.7
919	1704.3
919.5	1708.32
920	1712.79
920.5	1716.64
921	1718.43
921.5	1717.98
922	1715.7
922.5	1712.69
923	1710.49
923.5	1709.94
924	1711.48
924.5	1714.21
925	1717.29
925.5	1719.98
926	1722.08
926.5	1723.75
927	1725.25
927.5	1726.73
928	1728.11
928.5	1728.96
929	1728.94
929.5	1727.89
930	1725.89
930.5	1723.78
931	1722.54
931.5	1723.41
932	1726.61
932.5	1731.59
933	1737.15
933.5	1741.79
934	1744.81
934.5	1746.21
935	1747.16
935.5	1748.73
936	1751.47
936.5	1754.86
937	1758.01
937.5	1760.22
938	1761.71
938.5	1763.25
939	1765.61
939.5	1768.67
940	1771.39
940.5	1772.28
941	1770.55
941.5	1766.87
942	1762.74
942.5	1760.13
943	1759.91
943.5	1762.03
944	1765.15
944.5	1767.82
945	1769.22
945.5	1769.41
946	1769.06
946.5	1768.65
947	1768.47
947.5	1768.54
948	1769.08
948.5	1770.54
949	1773.26
949.5	1777.47
950	1782.81
950.5	1788.46
951	1793.73
951.5	1798.27
952	1802.27
952.5	1805.93
953	1809.16
953.5	1811.56
954	1812.41
954.5	1811.1
955	1808.02
955.5	1803.82
956	1799.56
956.5	1796.26
957	1794.69
957.5	1795.55
958	1798.62
958.5	1803.7
959	1810.01
959.5	1816.05
960	1820.44
960.5	1821.76
961	1820.41
961.5	1817.27
962	1813.93
962.5	1811.84
963	1811.71
963.5	1813.95
964	1817.74
964.5	1822.44
965	1827.17
965.5	1830.82
966	1832.43
966.5	1830.76
967	1826.64
967.5	1821.27
968	1816.92
968.5	1815.26
969	1816.78
969.5	1821.04
970	1825.92
970.5	1830.17
971	1833.35
971.5	1836.41
972	1840.28
972.5	1845.49
973	1851.18
973.5	1856.28
974	1859.91
974.5	1862.63
975	1865.5
975.5	1869.68
976	1874.97
976.5	1880.2
977	1883.67
977.5	1884.85
978	1884.45
978.5	1884
979	1884.96
979.5	1887.57
980	1891.11
980.5	1894.16
981	1896.06
981.5	1897.01
982	1898.22
982.5	1900.68
983	1904.97
983.5	1910.61
984	1916.87
984.5	1923.39
985	1930.12
985.5	1937.02
986	1943.59
986.5	1948.84
987	1952.1
987.5	1953.27
988	1953.77
988.5	1955.48
989	1959.96
989.5	1967.03
990	1974.79
990.5	1981.05
991	1984.59
991.5	1986.26
992	1987.91
992.5	1991.64
993	1997.87
993.5	2005.81
994	2013.44
994.5	2019.21
995	2022.35
995.5	2023.04
996	2022.02
996.5	2019.18
997	2013.96
997.5	2006.29
998	1996.43
998.5	1985.76
999	1976.14
999.5	1969.01
1000	1965.14
1000.5	1963.73
1001	1964.05
1001.5	1965.38
1002	1967.04
1002.5	1968.63
1003	1969.51
1003.5	1969.22
1004	1967.47
1004.5	1964.54
1005	1961.62
1005.5	1959.87
1006	1960.34
1006.5	1962.57
1007	1965.57
1007.5	1967.72
1008	1968.03
1008.5	1966.33
1009	1963.4
1009.5	1960.89
1010	1959.9
1010.5	1961
1011	1963.13
1011.5	1965.13
1012	1965.89
1012.5	1965.65
1013	1965.24
1013.5	1965.97
1014	1968.02
1014.5	1970.69
1015	1972.55
1015.5	1972.93
1016	1972.2
1016.5	1971.99
1017	1973.79
1017.5	1977.96
1018	1983.6
1018.5	1988.48
1019	1991.3
1019.5	1991.76
1020	1991.64
1020.5	1992.51
1021	1995.28
1021.5	1998.93
1022	2002.09
1022.5	2003.81
1023	2004.99
1023.5	2007.2
1024	2012
1024.5	2018.64
1025	2025.07
1025.5	2028.7
1026	2029.02
1026.5	2027.49
1027	2026.59
1027.5	2028.1
1028	2031.67
1028.5	2035.45
1029	2037.24
1029.5	2036.57
1030	2034.49
1030.5	2033.31
1031	2034.28
1031.5	2037.25
1032	2040.19
1032.5	2041.23
1033	2039.22
1033.5	2034.99
1034	2030.28
1034.5	2026.75
1035	2025.33
1035.5	2025.76
1036	2027.47
1036.5	2029.35
1037	2030.28
1037.5	2029.09
1038	2025.24
1038.5	2019.35
1039	2012.59
1039.5	2006.62
1040	2002.42
1040.5	2000.34
1041	2000.08
1041.5	2001.3
1042	2004.59
1042.5	2010.81
1043	2019.55
1043.5	2029.22
1044	2036.42
1044.5	2038.43
1045	2033.78
1045.5	2024.02
1046	2013.2
1046.5	2004.64
1047	2000.46
1047.5	1999.79
1048	2001.34
1048.5	2003.94
1049	2007.3
1049.5	2012.08
1050	2018.86
1050.5	2026.73
1051	2034.18
1051.5	2039.12
1052	2040.95
1052.5	2039.92
1053	2037.09
1053.5	2034.07
1054	2031.61
1054.5	2030.01
1055	2029.07
1055.5	2028.83
1056	2029.7
1056.5	2031.63
1057	2034.41
1057.5	2037.42
1058	2039.93
1058.5	2041.69
1059	2042.97
1059.5	2044.53
1060	2046.8
1060.5	2049.59
1061	2051.79
1061.5	2052.37
1062	2050.38
1062.5	2046.81
1063	2043.13
1063.5	2041.5
1064	2042.57
1064.5	2045.9
1065	2049.95
1065.5	2052.64
1066	2052.84
1066.5	2050.14
1067	2046.16
1067.5	2042.57
1068	2041.08
1068.5	2041.88
1069	2044.27
1069.5	2046.98
1070	2048.89
1070.5	2049.9
1071	2050.87
1071.5	2053.18
1072	2057.47
1072.5	2063.47
1073	2069.51
1073.5	2074.23
1074	2076.92
1074.5	2078.59
1075	2080.79
1075.5	2084.86
1076	2090.52
1076.5	2096.18
1077	2099.54
1077.5	2099.24
1078	2095.68
1078.5	2090.31
1079	2085.58
1079.5	2083.1
1080	2083.7
1080.5	2086.53
1081	2090.08
1081.5	2093.16
1082	2095.16
1082.5	2096.36
1083	2097.5
1083.5	2099.62
1084	2103.26
1084.5	2108.49
1085	2114.46
1085.5	2119.91
1086	2123.59
1086.5	2124.82
1087	2124.03
1087.5	2121.81
1088	2119.07
1088.5	2116.52
1089	2114.66
1089.5	2113.99
1090	2114.82
1090.5	2117.52
1091	2121.83
1091.5	2126.53
1092	2130.15
1092.5	2131.15
1093	2129.55
1093.5	2126.08
1094	2122.54
1094.5	2120.59
1095	2121.07
1095.5	2123.84
1096	2127.46
1096.5	2130.81
1097	2133.17
1097.5	2134.86
1098	2136.49
1098.5	2138.78
1099	2141.85
1099.5	2145.36
1100	2148.37
1100.5	2150.1
1101	2150.16
1101.5	2149.03
1102	2148.47
1102.5	2150.26
1103	2156.15
1103.5	2164.96
1104	2174.35
1104.5	2180.43
1105	2181.6
1105.5	2178.13
1106	2172.3
1106.5	2167.71
1107	2165.81
1107.5	2166.01
1108	2165.26
1108.5	2161.63
1109	2154.86
1109.5	2148.34
1110	2145.33
1110.5	2148.64
1111	2155.94
1111.5	2163.7
1112	2168.01
1112.5	2168.76
1113	2168.02
1113.5	2169.18
1114	2173.55
1114.5	2179.93
1115	2185.11
1115.5	2186.49
1116	2183.74
1116.5	2178.33
1117	2173.33
1117.5	2170.34
1118	2169.45
1118.5	2168.94
1119	2167.56
1119.5	2165.15
1120	2162.85
1120.5	2161.85
1121	2162.99
1121.5	2165.83
1122	2169.51
1122.5	2173.12
1123	2175.89
1123.5	2177.31
1124	2176.72
1124.5	2174.15
1125	2170.38
1125.5	2167
1126	2165.92
1126.5	2167.93
1127	2172.81
1127.5	2178.52
1128	2182.85
1128.5	2184.26
1129	2183.2
1129.5	2181.6
1130	2181.56
1130.5	2184.11
1131	2188.31
1131.5	2192.3
1132	2194.22
1132.5	2194.04
1133	2193.22
1133.5	2193.9
1134	2196.87
1134.5	2201.44
1135	2205.49
1135.5	2207.39
1136	2206.88
1136.5	2205.55
1137	2205.45
1137.5	2207.51
1138	2210.77
1138.5	2213.1
1139	2213.02
1139.5	2211.25
1140	2210.34
1140.5	2212.53
1141	2218.54
1141.5	2226.09
1142	2232.45
1142.5	2235.13
1143	2234.51
1143.5	2231.9
1144	2229.07
1144.5	2226.84
1145	2224.94
1145.5	2222.88
1146	2221.1
1146.5	2220.79
1147	2223.48
1147.5	2228.72
1148	2235.31
1148.5	2241.21
1149	2245.16
1149.5	2246.95
1150	2247.14
1150.5	2247.02
1151	2247.32
1151.5	2248.73
1152	2251.47
1152.5	2255.6
1153	2260.68
1153.5	2265.16
1154	2267.58
1154.5	2266.54
1155	2263.45
1155.5	2260.42
1156	2260.56
1156.5	2264.52
1157	2271.17
1157.5	2277.49
1158	2280.71
1158.5	2280.28
1159	2277.94
1159.5	2276.95
1160	2279.02
1160.5	2284.27
1161	2289.99
1161.5	2293.77
1162	2293.73
1162.5	2290.89
1163	2287.1
1163.5	2284.41
1164	2283.69
1164.5	2284.66
1165	2286.69
1165.5	2289.17
1166	2291.93
1166.5	2294.77
1167	2296.98
1167.5	2297.65
1168	2295.73
1168.5	2291.5
1169	2286.12
1169.5	2281.17
1170	2277.9
1170.5	2276.59
1171	2277.05
1171.5	2278.77
1172	2281.57
1172.5	2285.58
1173	2290.27
1173.5	2294.51
1174	2296.66
1174.5	2295.77
1175	2292.49
1175.5	2288.52
1176	2286.33
1176.5	2287.29
1177	2291.48
1177.5	2297.4
1178	2303.36
1178.5	2308.51
1179	2313.01
1179.5	2317.53
1180	2322.41
1180.5	2327.2
1181	2330.99
1181.5	2332.86
1182	2332.65
1182.5	2331.39
1183	2330.29
1183.5	2330.26
1184	2331.21
1184.5	2332.58
1185	2333.57
1185.5	2334.04
1186	2334.49
1186.5	2335.98
1187	2339.1
1187.5	2343.83
1188	2349.26
1188.5	2354.08
1189	2357.6
1189.5	2359.76
1190	2361.25
1190.5	2362.42
1191	2362.99
1191.5	2362.47
1192	2360.59
1192.5	2357.97
1193	2356.25
1193.5	2356.96
1194	2360.74
1194.5	2365.68
1195	2369.71
1195.5	2370.8
1196	2369.65
1196.5	2368.12
1197	2369.21
1197.5	2373.78
1198	2380.98
1198.5	2388.12
1199	2392.52
1199.5	2393.56
1200	2392.47
1200.5	2391.9
1201	2392.97
1201.5	2395.07
1202	2395.87
1202.5	2393.69
1203	2387.91
1203.5	2381.17
1204	2376.23
1204.5	2376.3
1205	2380.99
1205.5	2388.65
1206	2396.91
1206.5	2403.39
1207	2406.91
1207.5	2406.56
1208	2403.42
1208.5	2398.88
1209	2394.98
1209.5	2393.52
1210	2395.11
1210.5	2398.95
1211	2402.61
1211.5	2404.42
1212	2403.81
1212.5	2402.5
1213	2402.66
1213.5	2406.23
1214	2412.81
1214.5	2420.63
1215	2427.41
1215.5	2431.65
1216	2433.5
1216.5	2433.57
1217	2433.05
1217.5	2432.69
1218	2432.9
1218.5	2433.71
1219	2434.81
1219.5	2435.7
1220	2435.95
1220.5	2435.7
1221	2435.75
1221.5	2437.15
1222	2440.17
1222.5	2444.35
1223	2448.48
1223.5	2451.89
1224	2454.89
1224.5	2458.58
1225	2463.34
1225.5	2467.87
1226	2469.07
1226.5	2465.21
1227	2456.35
1227.5	2446.11
1228	2439.21
1228.5	2439.18
1229	2446
1229.5	2455.45
1230	2462.94
1230.5	2464.86
1231	2462.16
1231.5	2457.94
1232	2456.2
1232.5	2458.61
1233	2464.85
1233.5	2472.43
1234	2478.24
1234.5	2480.29
1235	2478.16
1235.5	2474.25
1236	2471.41
1236.5	2472.55
1237	2477.75
1237.5	2485.66
1238	2493.23
1238.5	2497.76
1239	2498.08
1239.5	2494.74
1240	2490.56
1240.5	2487.64
1241	2487.18
1241.5	2487.98
1242	2488.82
1242.5	2488.84
1243	2488.61
1243.5	2489.22
1244	2491.94
1244.5	2496.25
1245	2500.9
1245.5	2503.67
1246	2503.71
1246.5	2501.3
1247	2497.54
1247.5	2494.15
1248	2491.93
1248.5	2491.28
1249	2491.67
1249.5	2493.02
1250	2495.88
1250.5	2500.6
1251	2507.12
1251.5	2514.65
1252	2521.31
1252.5	2525.41
1253	2525.04
1253.5	2520.81
1254	2514.24
1254.5	2508.02
1255	2505.01
1255.5	2506.43
1256	2511.81
1256.5	2517.87
1257	2521.59
1257.5	2520.47
1258	2515.54
1258.5	2509.43
1259	2505.64
1259.5	2506.07
1260	2510.29
1260.5	2516.43
1261	2522.19
1261.5	2526.72
1262	2530.2
1262.5	2533.58
1263	2537.44
1263.5	2541.94
1264	2546.64
1264.5	2550.77
1265	2552.86
1265.5	2551.4
1266	2545.71
1266.5	2535.91
1267	2524.8
1267.5	2516
1268	2513.09
1268.5	2516.94
1269	2525.45
1269.5	2535.68
1270	2544.92
1270.5	2552.48
1271	2558.33
1271.5	2562.34
1272	2563.83
1272.5	2561.63
1273	2556.08
1273.5	2549.72
1274	2545.98
1274.5	2547.21
1275	2552.4
1275.5	2559.08
1276	2563.71
1276.5	2564.69
1277	2562.11
1277.5	2557.98
1278	2554.71
1278.5	2553.59
1279	2554.6
1279.5	2556.81
1280	2560.15
1280.5	2566.11
1281	2576.86
1281.5	2595.25
1282	2623.11
1282.5	2656.72
1283	2689.75
1283.5	2712.39
1284	2719.87
1284.5	2710.57
1285	2687.49
1285.5	2660.17
1286	2635.06
1286.5	2616.54
1287	2603.34
1287.5	2593.32
1288	2585.42
1288.5	2580.09
1289	2578.65
1289.5	2581.7
1290	2586.22
1290.5	2589.03
1291	2586.68
1291.5	2579.93
1292	2571.34
1292.5	2564.8
1293	2562.32
1293.5	2564.22
1294	2569.71
1294.5	2576
1295	2581.14
1295.5	2583.01
1296	2581.54
1296.5	2577.78
1297	2573.67
1297.5	2571.37
1298	2571.84
1298.5	2575.15
1299	2579.4
1299.5	2583.1
1300	2585.14
1300.5	2585.91
1301	2586.1
1301.5	2586.51
1302	2587.97
1302.5	2591.4
1303	2598.31
1303.5	2608.46
1304	2620.31
1304.5	2630.13
1305	2634.64
1305.5	2632.94
1306	2626.04
1306.5	2618.12
1307	2612.42
1307.5	2610.73
1308	2611.64
1308.5	2612.71
1309	2611.81
1309.5	2608.7
1310	2604.27
1310.5	2599.59
1311	2595.55
1311.5	2592.57
1312	2591.2
1312.5	2591.87
1313	2594.7
1313.5	2599.75
1314	2606.46
1314.5	2614.01
1315	2621.51
1315.5	2627.83
1316	2632.03
1316.5	2633.28
1317	2631.99
1317.5	2630.08
1318	2629.56
1318.5	2631.79
1319	2636.23
1319.5	2641.16
1320	2644.04
1320.5	2643.49
1321	2639.15
1321.5	2632.99
1322	2627.65
1322.5	2625.31
1323	2627.13
1323.5	2632.01
1324	2638.28
1324.5	2643.59
1325	2646.63
1325.5	2647.5
1326	2647.64
1326.5	2648.57
1327	2650.93
1327.5	2654.39
1328	2658.01
1328.5	2661.4
1329	2664.77
1329.5	2668.39
1330	2671.91
1330.5	2674.37
1331	2675.53
1331.5	2676.11
1332	2677.92
1332.5	2681.8
1333	2686.76
1333.5	2688.99
1334	2685.74
1334.5	2676.5
1335	2664.08
1335.5	2654.18
1336	2650.7
1336.5	2655.46
1337	2663.9
1337.5	2671.48
1338	2674.5
1338.5	2674
1339	2672.36
1339.5	2672.89
1340	2676.62
1340.5	2683.01
1341	2690.44
1341.5	2697
1342	2701.91
1342.5	2704.4
1343	2704.81
1343.5	2703.47
1344	2701.2
1344.5	2699.76
1345	2700.51
1345.5	2704.3
1346	2709.64
1346.5	2714.67
1347	2717.01
1347.5	2715.98
1348	2712.11
1348.5	2706.84
1349	2702.48
1349.5	2700.32
1350	2701.3
1350.5	2704.76
1351	2709.68
1351.5	2714.75
1352	2718.7
1352.5	2720.92
1353	2721.5
1353.5	2721.44
1354	2721.43
1354.5	2721.59
1355	2721.25
1355.5	2719.76
1356	2717.11
1356.5	2714.91
1357	2715.03
1357.5	2718.94
1358	2725.57
1358.5	2732.28
1359	2736.02
1359.5	2735.67
1360	2733.07
1360.5	2731.91
1361	2735.16
1361.5	2742.57
1362	2751.53
1362.5	2757.67
1363	2758.55
1363.5	2754.06
1364	2748.06
1364.5	2744.99
1365	2747.69
1365.5	2755.6
1366	2765.1
1366.5	2772.12
1367	2773.55
1367.5	2769.93
1368	2764.01
1368.5	2759.72
1369	2759.16
1369.5	2762.49
1370	2767.61
1370.5	2771.81
1371	2773.6
1371.5	2773.43
1372	2773.11
1372.5	2773.66
1373	2775.05
1373.5	2776.29
1374	2776.84
1374.5	2777.25
1375	2778.98
1375.5	2782.98
1376	2788.82
1376.5	2794.3
1377	2797.29
1377.5	2796.28
1378	2792.76
1378.5	2789.14
1379	2788.5
1379.5	2791.36
1380	2796.78
1380.5	2802.49
1381	2806.62
1381.5	2809
1382	2811.01
1382.5	2814.12
1383	2818.15
1383.5	2821.86
1384	2825.57
1384.5	2832.93
1385	2853.74
1385.5	2893.1
1386	2949.42
1386.5	3009.24
1387	3051.57
1387.5	3061.27
1388	3026.79
1388.5	2966.9
1389	2901.83
1389.5	2856.02
1390	2834.36
1390.5	2831.63
1391	2837.31
1391.5	2840.2
1392	2837.44
1392.5	2830.97
1393	2825.56
1393.5	2822.89
1394	2822.89
1394.5	2824.23
1395	2826.49
1395.5	2829.79
1396	2833.5
1396.5	2836.65
1397	2838.44
1397.5	2839.43
1398	2840.55
1398.5	2842.18
1399	2843.31
1399.5	2842.59
1400	2839.58
1400.5	2836.48
1401	2835.85
1401.5	2839.76
1402	2847.03
1402.5	2854.81
1403	2859.76
1403.5	2860.7
1404	2858.91
1404.5	2856.1
1405	2853.82
1405.5	2852.48
1406	2852.03
1406.5	2852.37
1407	2853.68
1407.5	2856.26
1408	2859.86
1408.5	2863.76
1409	2867.25
1409.5	2869.94
1410	2871.92
1410.5	2873.28
1411	2873.94
1411.5	2873.74
1412	2872.55
1412.5	2870.8
1413	2869.22
1413.5	2868.43
1414	2868.48
1414.5	2868.84
1415	2869.05
1415.5	2868.97
1416	2868.89
1416.5	2869.17
1417	2869.77
1417.5	2870.15
1418	2869.71
1418.5	2868.32
1419	2866.73
1419.5	2866.1
1420	2867.83
1420.5	2871.88
1421	2877.4
1421.5	2882.74
1422	2886.47
1422.5	2887.97
1423	2887.65
1423.5	2887.1
1424	2887.32
1424.5	2888.3
1425	2888.82
1425.5	2887.6
1426	2883.83
1426.5	2878.71
1427	2873.97
1427.5	2871.51
1428	2871.41
1428.5	2873.05
1429	2875.14
1429.5	2876.4
1430	2876.23
1430.5	2874.8
1431	2873.46
1431.5	2873.62
1432	2877.11
1432.5	2883.45
1433	2891.17
1433.5	2896.93
1434	2899.15
1434.5	2898.44
1435	2897.78
1435.5	2900.35
1436	2906.82
1436.5	2914.55
1437	2918.71
1437.5	2917.35
1438	2911.75
1438.5	2907.42
1439	2908.34
1439.5	2916.27
1440	2926.3
1440.5	2932.95
1441	2931.5
1441.5	2923.19
1442	2911.54
1442.5	2901.51
1443	2896.87
1443.5	2898.03
1444	2903.64
1444.5	2909.85
1445	2913.53
1445.5	2912.2
1446	2906.87
1446.5	2900.72
1447	2897.79
1447.5	2899.72
1448	2905.19
1448.5	2911
1449	2913.67
1449.5	2912.4
1450	2908.94
1450.5	2906.31
1451	2905.98
1451.5	2907.82
1452	2910.23
1452.5	2912.1
1453	2913.52
1453.5	2915.21
1454	2917.25
1454.5	2918.83
1455	2918.97
1455.5	2917.72
1456	2916.27
1456.5	2916.08
1457	2917.29
1457.5	2918.77
1458	2918.85
1458.5	2917.2
1459	2915.34
1459.5	2916.13
1460	2920.89
1460.5	2929.29
1461	2938.55
1461.5	2945.43
1462	2947.58
1462.5	2945.31
1463	2940.92
1463.5	2936.24
1464	2932.58
1464.5	2930.03
1465	2928.26
1465.5	2926.85
1466	2925.71
1466.5	2925.1
1467	2925.66
1467.5	2927.85
1468	2932.32
1468.5	2938.83
1469	2945.63
1469.5	2950.48
1470	2950.63
1470.5	2945.94
1471	2937.71
1471.5	2930.03
1472	2926.75
1472.5	2929.97
1473	2939.88
1473.5	2952.49
1474	2963.8
1474.5	2969.3
1475	2968.72
1475.5	2963.09
1476	2955.1
1476.5	2948.45
1477	2945.32
1477.5	2946.54
1478	2949.76
1478.5	2953.49
1479	2956.99
1479.5	2960.95
1480	2966.31
1480.5	2973.01
1481	2978.65
1481.5	2980.72
1482	2976.44
1482.5	2967.25
1483	2955.58
1483.5	2945.37
1484	2938.98
1484.5	2937.1
1485	2939.9
1485.5	2945.29
1486	2951.48
1486.5	2956.2
1487	2958.32
1487.5	2958.02
1488	2956.58
1488.5	2956.12
1489	2957.62
1489.5	2960.55
1490	2963.13
1490.5	2964.67
1491	2965.96
1491.5	2968.72
1492	2973.6
1492.5	2978.78
1493	2980.8
1493.5	2977.64
1494	2969.14
1494.5	2959.1
1495	2951.91
1495.5	2950.79
1496	2954.96
1496.5	2961.87
1497	2968.99
1497.5	2974.55
1498	2978.16
1498.5	2979.71
1499	2979.25
1499.5	2976.98
1500	2973.45
1500.5	2970.4
1501	2969.58
1501.5	2971.83
1502	2975.9
1502.5	2979.58
1503	2980.92
1503.5	2979.65
1504	2977.56
1504.5	2976.91
1505	2978.89
1505.5	2982.65
1506	2986.55
1506.5	2988.61
1507	2988.37
1507.5	2986.37
1508	2984.03
1508.5	2982.77
1509	2983.73
1509.5	2987.21
1510	2991.56
1510.5	2994.43
1511	2993.19
1511.5	2987.64
1512	2979.39
1512.5	2972.92
1513	2971.71
1513.5	2977.19
1514	2987.97
1514.5	2999.79
1515	3009.03
1515.5	3012.91
1516	3012.34
1516.5	3008.53
1517	3003.32
1517.5	2998.59
1518	2995.45
1518.5	2994.22
1519	2994.21
1519.5	2995.07
1520	2996.99
1520.5	3000.28
1521	3005.35
1521.5	3011.95
1522	3018.87
1522.5	3025.08
1523	3029.39
1523.5	3031.32
1524	3030.42
1524.5	3026.24
1525	3020.11
1525.5	3013.5
1526	3009.5
1526.5	3007.6
1527	3006.58
1527.5	3005.35
1528	3004.19
1528.5	3004.1
1529	3006.27
1529.5	3010.2
1530	3014.34
1530.5	3016.79
1531	3017.38
1531.5	3017.25
1532	3018.02
1532.5	3020.26
1533	3023.55
1533.5	3026.61
1534	3029.53
1534.5	3033.76
1535	3039.9
1535.5	3048.04
1536	3055.51
1536.5	3058.55
1537	3055.46
1537.5	3047.35
1538	3038.51
1538.5	3033.65
1539	3035.02
1539.5	3040.49
1540	3047.03
1540.5	3051.8
1541	3054.19
1541.5	3055.43
1542	3057.15
1542.5	3059.43
1543	3061.16
1543.5	3061.46
1544	3060.4
1544.5	3060.01
1545	3061.7
1545.5	3065.96
1546	3071.05
1546.5	3074.89
1547	3075.89
1547.5	3075.26
1548	3074.77
1548.5	3076.16
1549	3079.52
1549.5	3083.42
1550	3085.52
1550.5	3084.94
1551	3081.86
1551.5	3078.18
1552	3075.78
1552.5	3075.96
1553	3078.12
1553.5	3081.24
1554	3083.89
1554.5	3085.38
1555	3085.9
1555.5	3086.95
1556	3089.56
1556.5	3093.94
1557	3098.38
1557.5	3100.02
1558	3096.45
1558.5	3088.73
1559	3079.8
1559.5	3074.19
1560	3074.54
1560.5	3081.32
1561	3089.11
1561.5	3094.08
1562	3094.17
1562.5	3091.49
1563	3089.87
1563.5	3092.24
1564	3097.19
1564.5	3100.97
1565	3100.23
1565.5	3094.54
1566	3087.82
1566.5	3085.76
1567	3091.35
1567.5	3103.23
1568	3116.58
1568.5	3125.67
1569	3128.1
1569.5	3126.13
1570	3123.63
1570.5	3123.99
1571	3128.36
1571.5	3135.7
1572	3143.44
1572.5	3150.25
1573	3155.61
1573.5	3159.35
1574	3160.52
1574.5	3158.61
1575	3154.31
1575.5	3149.59
1576	3146.74
1576.5	3146.87
1577	3148.52
1577.5	3148.3
1578	3143.67
1578.5	3135.66
1579	3127.49
1579.5	3123.92
1580	3126.9
1580.5	3134.57
1581	3142.9
1581.5	3148.89
1582	3151.57
1582.5	3152.36
1583	3153.05
1583.5	3153.75
1584	3153.09
1584.5	3150.09
1585	3144.85
1585.5	3139.77
1586	3137.36
1586.5	3138.58
1587	3142.17
1587.5	3146.53
1588	3150.3
1588.5	3153.57
1589	3157.46
1589.5	3162.44
1590	3167.84
1590.5	3171.7
1591	3172.15
1591.5	3167.64
1592	3159.57
1592.5	3150.87
1593	3144.99
1593.5	3143.99
1594	3147.67
1594.5	3153.15
1595	3156.07
1595.5	3154.46
1596	3149.39
1596.5	3144.73
1597	3144.91
1597.5	3151.19
1598	3160.01
1598.5	3165.98
1599	3165.58
1599.5	3158.77
1600	3149.69
1600.5	3144.7
1601	3147.16
1601.5	3156
1602	3166.89
1602.5	3174.93
1603	3177.17
1603.5	3174.76
1604	3171.27
1604.5	3170.16
1605	3172.92
1605.5	3178.75
1606	3184.59
1606.5	3187.32
1607	3185.86
1607.5	3181.39
1608	3176.26
1608.5	3173.34
1609	3174.38
1609.5	3179.27
1610	3185.47
1610.5	3190.69
1611	3193
1611.5	3192.28
1612	3189.37
1612.5	3186.67
1613	3185.6
1613.5	3186.97
1614	3189.87
1614.5	3193.29
1615	3196.05
1615.5	3197.91
1616	3199.06
1616.5	3199.77
1617	3200.01
1617.5	3199.3
1618	3197.19
1618.5	3193.69
1619	3189.14
1619.5	3184.33
1620	3179.93
1620.5	3176.82
1621	3175.67
1621.5	3177.15
1622	3180.76
1622.5	3185.56
1623	3190.32
1623.5	3194.19
1624	3197.21
1624.5	3200.4
1625	3204.43
1625.5	3209.17
1626	3213.46
1626.5	3216.19
1627	3216.44
1627.5	3214.89
1628	3212.6
1628.5	3210.44
1629	3208.94
1629.5	3208.61
1630	3210.31
1630.5	3214.49
1631	3220.69
1631.5	3226.72
1632	3230.22
1632.5	3228.61
1633	3222.28
1633.5	3212.85
1634	3203.45
1634.5	3195.96
1635	3191.29
1635.5	3189.75
1636	3191.53
1636.5	3198.02
1637	3208.66
1637.5	3221.39
1638	3232.17
1638.5	3237.45
1639	3235.29
1639.5	3226.99
1640	3217.8
1640.5	3212.48
1641	3212.88
1641.5	3217.43
1642	3222.9
1642.5	3225.84
1643	3225.2
1643.5	3222.72
1644	3220.92
1644.5	3221.23
1645	3223.6
1645.5	3226.86
1646	3230.13
1646.5	3233.61
1647	3237.95
1647.5	3243.59
1648	3249.59
1648.5	3254.66
1649	3257.5
1649.5	3258.52
1650	3258.94
1650.5	3259.92
1651	3261.45
1651.5	3262.54
1652	3261.97
1652.5	3259.36
1653	3255.54
1653.5	3251.73
1654	3248.29
1654.5	3244.86
1655	3241.12
1655.5	3237.81
1656	3237.3
1656.5	3241.2
1657	3250.13
1657.5	3260.83
1658	3269.57
1658.5	3272.33
1659	3269.41
1659.5	3264.14
1660	3261.3
1660.5	3263.03
1661	3269.27
1661.5	3276.48
1662	3281.48
1662.5	3282.5
1663	3281.25
1663.5	3279.31
1664	3277.73
1664.5	3276.23
1665	3274.26
1665.5	3272.28
1666	3271.81
1666.5	3274.73
1667	3280.61
1667.5	3287.86
1668	3293.49
1668.5	3295.36
1669	3292.59
1669.5	3286.77
1670	3279.99
1670.5	3274.38
1671	3271.52
1671.5	3272.06
1672	3276.15
1672.5	3281.44
1673	3285.8
1673.5	3287.57
1674	3287.26
1674.5	3286.61
1675	3288.18
1675.5	3292.93
1676	3299.81
1676.5	3306.29
1677	3310.93
1677.5	3313.39
1678	3314.82
1678.5	3316.03
1679	3317.13
1679.5	3317.86
1680	3318.63
1680.5	3320.71
1681	3324.98
1681.5	3331.3
1682	3336.91
1682.5	3338.61
1683	3334.57
1683.5	3326.47
1684	3317.04
1684.5	3309.72
1685	3305.97
1685.5	3306.12
1686	3308.27
1686.5	3311.34
1687	3314.98
1687.5	3319.23
1688	3324.21
1688.5	3329.7
1689	3335.21
1689.5	3340.21
1690	3344.39
1690.5	3347.63
1691	3349.7
1691.5	3350.54
1692	3349.68
1692.5	3346.07
1693	3339.71
1693.5	3331.22
1694	3323.04
1694.5	3317.79
1695	3318.09
1695.5	3323.23
1696	3330.75
1696.5	3336.88
1697	3340.37
1697.5	3342.05
1698	3344.32
1698.5	3348.41
1699	3353.83
1699.5	3357.88
1700	3359.06
1700.5	3357.36
1701	3354.83
1701.5	3352.62
1702	3350.46
1702.5	3346.87
1703	3340.64
1703.5	3333.32
1704	3327.83
1704.5	3327.39
1705	3332.42
1705.5	3341.46
1706	3351.69
1706.5	3360.22
1707	3365.78
1707.5	3368.53
1708	3369.57
1708.5	3369.87
1709	3370.4
1709.5	3371.47
1710	3372.76
1710.5	3373.15
1711	3371.86
1711.5	3368.84
1712	3365.29
1712.5	3362.55
1713	3361.47
1713.5	3361.62
1714	3361.99
1714.5	3362.13
1715	3362.73
1715.5	3365.43
1716	3370.79
1716.5	3378.33
1717	3385.85
1717.5	3390.74
1718	3391.42
1718.5	3388.63
1719	3384.33
1719.5	3380.8
1720	3379.28
1720.5	3379.59
1721	3380.01
1721.5	3378.73
1722	3375.15
1722.5	3370.52
1723	3366.89
1723.5	3366.31
1724	3369
1724.5	3373.85
1725	3379.05
1725.5	3383.46
1726	3386.95
1726.5	3389.52
1727	3390.87
1727.5	3389.98
1728	3386.43
1728.5	3381.32
1729	3377.45
1729.5	3377.32
1730	3381.63
1730.5	3389.06
1731	3396.13
1731.5	3399.8
1732	3398.23
1732.5	3392.63
1733	3385.6
1733.5	3380.14
1734	3377.69
1734.5	3378.75
1735	3381.33
1735.5	3383.47
1736	3383.18
1736.5	3380.8
1737	3377.81
1737.5	3376.22
1738	3376.85
1738.5	3379.54
1739	3382.87
1739.5	3385.98
1740	3389.07
1740.5	3392.91
1741	3397.49
1741.5	3401.03
1742	3401.33
1742.5	3396.55
1743	3388.24
1743.5	3380.24
1744	3378.25
1744.5	3383.08
1745	3392.3
1745.5	3400
1746	3401.76
1746.5	3396.34
1747	3388.01
1747.5	3382.77
1748	3384.99
1748.5	3391.94
1749	3398.81
1749.5	3400.41
1750	3396.87
1750.5	3391.21
1751	3388.64
1751.5	3391.39
1752	3398.22
1752.5	3405.29
1753	3410.6
1753.5	3413.85
1754	3416.38
1754.5	3418.66
1755	3419.82
1755.5	3418.84
1756	3415.96
1756.5	3413.18
1757	3412.13
1757.5	3413.29
1758	3415.09
1758.5	3415.98
1759	3415.06
1759.5	3413.45
1760	3412.37
1760.5	3412.35
1761	3412.84
1761.5	3413.38
1762	3413.96
1762.5	3414.7
1763	3415.09
1763.5	3413.43
1764	3408.29
1764.5	3399.55
1765	3389.87
1765.5	3382.24
1766	3379.04
1766.5	3379.74
1767	3382.41
1767.5	3384.16
1768	3384.16
1768.5	3383.62
1769	3384.81
1769.5	3389.28
1770	3397.31
1770.5	3407.02
1771	3415.95
1771.5	3421.15
1772	3421.1
1772.5	3415.5
1773	3407.11
1773.5	3399.06
1774	3395.17
1774.5	3396.35
1775	3401.72
1775.5	3407.65
1776	3410.64
1776.5	3409.09
1777	3404.85
1777.5	3400.56
1778	3398.89
1778.5	3400.21
1779	3403.84
1779.5	3408.23
1780	3411.78
1780.5	3413.02
1781	3410.94
1781.5	3405.79
1782	3398.99
1782.5	3393.92
1783	3393.19
1783.5	3398.24
1784	3406.03
1784.5	3412.6
1785	3414.83
1785.5	3413.49
1786	3410.55
1786.5	3407.7
1787	3404.28
1787.5	3397.75
1788	3387.47
1788.5	3375.64
1789	3368.34
1789.5	3369.04
1790	3378.07
1790.5	3390.32
1791	3399.83
1791.5	3401.9
1792	3397.65
1792.5	3391.11
1793	3388.23
1793.5	3390.6
1794	3396.33
1794.5	3400.58
1795	3400.29
1795.5	3395.36
1796	3390.52
1796.5	3390.71
1797	3399.61
1797.5	3412.99
1798	3424.05
1798.5	3426.04
1799	3419.57
1799.5	3408.76
1800	3400.5
1800.5	3397.88
1801	3400.53
1801.5	3404.25
1802	3406.65
1802.5	3408.26
1803	3410.98
1803.5	3415.08
1804	3418.48
1804.5	3419.04
1805	3416.2
1805.5	3412.58
1806	3411.07
1806.5	3413.25
1807	3416.62
1807.5	3418.81
1808	3418.67
1808.5	3417.77
1809	3418.04
1809.5	3420.44
1810	3423.87
1810.5	3426.43
1811	3426.85
1811.5	3425.32
1812	3422.24
1812.5	3418.18
1813	3413.46
1813.5	3409.09
1814	3406.58
1814.5	3407.64
1815	3412.41
1815.5	3419.07
1816	3424.59
1816.5	3426.99
1817	3426.17
1817.5	3423.45
1818	3420.8
1818.5	3418.95
1819	3417.22
1819.5	3414.49
1820	3410.43
1820.5	3407.12
1821	3407.15
1821.5	3412.9
1822	3422.28
1822.5	3431.49
1823	3435.13
1823.5	3431.56
1824	3422.21
1824.5	3413.1
1825	3409.59
1825.5	3414.19
1826	3423.11
1826.5	3431.57
1827	3434.64
1827.5	3432.12
1828	3426.06
1828.5	3420.85
1829	3419.59
1829.5	3423.86
1830	3431.67
1830.5	3439.89
1831	3445.12
1831.5	3446.03
1832	3442.77
1832.5	3437.04
1833	3431.14
1833.5	3426.15
1834	3421.52
1834.5	3415.98
1835	3409.13
1835.5	3403.09
1836	3400.56
1836.5	3404.19
1837	3412.02
1837.5	3420.58
1838	3425.25
1838.5	3425.11
1839	3422.43
1839.5	3422.66
1840	3428.13
1840.5	3437.59
1841	3445.72
1841.5	3448.79
1842	3445.54
1842.5	3439.27
1843	3433.04
1843.5	3428.59
1844	3425.49
1844.5	3423.81
1845	3425.43
1845.5	3432.4
1846	3445.61
1846.5	3460.64
1847	3472.52
1847.5	3476.89
1848	3474.81
1848.5	3469.32
1849	3464.38
1849.5	3460.96
1850	3457.7
1850.5	3453.17
1851	3447.58
1851.5	3442.33
1852	3438.58
1852.5	3437.05
1853	3438.28
1853.5	3442.55
1854	3450.05
1854.5	3458.49
1855	3464.48
1855.5	3464.73
1856	3460.87
1856.5	3456.28
1857	3455.11
1857.5	3457.67
1858	3461.61
1858.5	3463.19
1859	3461.45
1859.5	3458.03
1860	3456.29
1860.5	3457.32
1861	3460.07
1861.5	3462.49
1862	3463.62
1862.5	3463.36
1863	3461.82
1863.5	3458.56
1864	3453.78
1864.5	3448.85
1865	3446.65
1865.5	3448.64
1866	3453.86
1866.5	3458.89
1867	3460.81
1867.5	3458.61
1868	3454.4
1868.5	3451.21
1869	3451.64
1869.5	3455.43
1870	3460.51
1870.5	3463.01
1871	3460.27
1871.5	3451.74
1872	3440.08
1872.5	3429.85
1873	3425.37
1873.5	3427.93
1874	3435.54
1874.5	3444.8
1875	3452.3
1875.5	3456.75
1876	3458.03
1876.5	3457
1877	3454.03
1877.5	3450.18
1878	3447.16
1878.5	3447.14
1879	3450.76
1879.5	3457.16
1880	3464.51
1880.5	3470.99
1881	3475.69
1881.5	3477.87
1882	3476.98
1882.5	3472.46
1883	3465.91
1883.5	3460.3
1884	3459.28
1884.5	3463.24
1885	3470.1
1885.5	3475.81
1886	3478.18
1886.5	3477.58
1887	3476.67
1887.5	3477.02
1888	3477.53
1888.5	3475.18
1889	3468.59
1889.5	3458.55
1890	3448.96
1890.5	3443.14
1891	3443.54
1891.5	3449.5
1892	3459.95
1892.5	3471.89
1893	3481.94
1893.5	3485.4
1894	3480.6
1894.5	3469.26
1895	3456.71
1895.5	3449.13
1896	3449.97
1896.5	3457.94
1897	3468.13
1897.5	3476.17
1898	3480.71
1898.5	3483.2
1899	3485.41
1899.5	3487.12
1900	3486.29
1900.5	3481.11
1901	3472.86
1901.5	3463.73
1902	3455.74
1902.5	3448.92
1903	3442.61
1903.5	3437.28
1904	3435.04
1904.5	3439.23
1905	3448.96
1905.5	3460.93
1906	3469.49
1906.5	3473.19
1907	3474.55
1907.5	3478.92
1908	3488.35
1908.5	3500.57
1909	3509.24
1909.5	3510.21
1910	3503.4
1910.5	3494.47
1911	3488.45
1911.5	3486.88
1912	3486.53
1912.5	3482.94
1913	3475.27
1913.5	3465.86
1914	3458.4
1914.5	3454.12
1915	3452.41
1915.5	3451.99
1916	3452.93
1916.5	3456.7
1917	3463.61
1917.5	3471.71
1918	3477.27
1918.5	3478.34
1919	3475.96
1919.5	3472.97
1920	3470.63
1920.5	3467.62
1921	3461.8
1921.5	3454.01
1922	3448.39
1922.5	3449.64
1923	3458.3
1923.5	3469.97
1924	3476.93
1924.5	3475.02
1925	3466.25
1925.5	3458.06
1926	3456.22
1926.5	3460.4
1927	3466.04
1927.5	3468.18
1928	3466.33
1928.5	3463.04
1929	3461.84
1929.5	3462.88
1930	3463.77
1930.5	3461.07
1931	3454.46
1931.5	3446.27
1932	3441.12
1932.5	3441.53
1933	3448.27
1933.5	3458.24
1934	3468.8
1934.5	3477.03
1935	3481.56
1935.5	3481.35
1936	3476.83
1936.5	3469.45
1937	3461.06
1937.5	3453.94
1938	3449.57
1938.5	3449.24
1939	3452.37
1939.5	3458.1
1940	3464.34
1940.5	3469.13
1941	3470.89
1941.5	3469.74
1942	3466.83
1942.5	3463.39
1943	3460.19
1943.5	3457.38
1944	3455.49
1944.5	3455.57
1945	3458.8
1945.5	3464.26
1946	3468.7
1946.5	3467.22
1947	3458.77
1947.5	3446.1
1948	3435.18
1948.5	3430.09
1949	3431.46
1949.5	3436.16
1950	3440.94
1950.5	3445.17
1951	3450.45
1951.5	3457.39
1952	3463.79
1952.5	3465.64
1953	3460.89
1953.5	3451.49
1954	3443.33
1954.5	3440.68
1955	3443.15
1955.5	3446.89
1956	3448.51
1956.5	3448.33
1957	3448.96
1957.5	3453.39
1958	3460.48
1958.5	3467.11
1959	3469.16
1959.5	3465.7
1960	3457.38
1960.5	3446.81
1961	3436.02
1961.5	3427.22
1962	3422.82
1962.5	3424.84
1963	3433.63
1963.5	3444.36
1964	3450.83
1964.5	3447.81
1965	3436.9
1965.5	3424.19
1966	3418.17
1966.5	3422.11
1967	3434.52
1967.5	3447.81
1968	3457.24
1968.5	3461.83
1969	3464.37
1969.5	3466.05
1970	3464.36
1970.5	3456.4
1971	3441.64
1971.5	3426.61
1972	3418.08
1972.5	3420.86
1973	3430.49
1973.5	3440.48
1974	3444.8
1974.5	3443.82
1975	3441.18
1975.5	3440.94
1976	3443.42
1976.5	3446.47
1977	3448.1
1977.5	3448.58
1978	3449.57
1978.5	3451.48
1979	3453.02
1979.5	3452.69
1980	3450.8
1980.5	3448.82
1981	3447.82
1981.5	3447.44
1982	3446.76
1982.5	3446.23
1983	3447.57
1983.5	3452.28
1984	3459.05
1984.5	3464.62
1985	3465.73
1985.5	3462.13
1986	3455.65
1986.5	3449.42
1987	3444.51
1987.5	3440.38
1988	3436.33
1988.5	3432.98
1989	3431.82
1989.5	3433.52
1990	3437.98
1990.5	3443.71
1991	3449.4
1991.5	3453.57
1992	3455.23
1992.5	3453.65
1993	3449.39
1993.5	3444.64
1994	3441.78
1994.5	3441.81
1995	3443.59
1995.5	3445.01
1996	3444.96
1996.5	3444.12
1997	3444.23
1997.5	3445.59
1998	3446.89
1998.5	3445.89
1999	3442.07
1999.5	3436.62
2000	3432.65
2000.5	3432.29
2001	3436.8
2001.5	3444.19
2002	3452.37
2002.5	3459.05
2003	3463.48
2003.5	3465.59
2004	3466.05
2004.5	3465.27
2005	3463.35
2005.5	3461.05
2006	3459.5
2006.5	3460.13
2007	3462.46
2007.5	3464.48
2008	3463.11
2008.5	3457.39
2009	3448.24
2009.5	3439.32
2010	3433.32
2010.5	3431.9
2011	3433.4
2011.5	3436.36
2012	3439.72
2012.5	3443.29
2013	3446.86
2013.5	3449.19
2014	3448.76
2014.5	3444.31
2015	3437.9
2015.5	3433.14
2016	3435.04
2016.5	3443.89
2017	3456.49
2017.5	3465.04
2018	3464.59
2018.5	3454.24
2019	3440.48
2019.5	3429.73
2020	3426.66
2020.5	3429.22
2021	3434.83
2021.5	3442.12
2022	3451.61
2022.5	3463.61
2023	3475.05
2023.5	3481.67
2024	3479.99
2024.5	3472.76
2025	3464.49
2025.5	3459.07
2026	3455.47
2026.5	3450.92
2027	3444.07
2027.5	3437.57
2028	3435.69
2028.5	3439.79
2029	3447.21
2029.5	3453.35
2030	3455.98
2030.5	3455.7
2031	3454.41
2031.5	3453.07
2032	3451.35
2032.5	3449.13
2033	3447.34
2033.5	3447.54
2034	3450.04
2034.5	3453.9
2035	3457.4
2035.5	3459.27
2036	3458.86
2036.5	3456.01
2037	3451.57
2037.5	3447.04
2038	3444.92
2038.5	3446.67
2039	3452.65
2039.5	3460.2
2040	3466.96
2040.5	3471.28
2041	3473.47
2041.5	3473.57
2042	3470.86
2042.5	3464.93
2043	3456.61
2043.5	3449.61
2044	3447.22
2044.5	3451.46
2045	3458.79
2045.5	3464.93
2046	3465.76
2046.5	3461.49
2047	3454.16
2047.5	3447.3
2048	3442.85
2048.5	3442.07
2049	3444.52
2049.5	3449.57
2050	3456.01
2050.5	3462.06
2051	3466.55
2051.5	3469.43
2052	3471.47
2052.5	3472.81
2053	3472.4
2053.5	3469.01
2054	3461.99
2054.5	3453.84
2055	3447.38
2055.5	3445.16
2056	3446.95
2056.5	3451.97
2057	3458.76
2057.5	3466.12
2058	3472.19
2058.5	3474.66
2059	3472.18
2059.5	3465.03
2060	3456.88
2060.5	3451.15
2061	3450.27
2061.5	3453.62
2062	3459.55
2062.5	3464.64
2063	3465.62
2063.5	3458.32
2064	3443.6
2064.5	3425.49
2065	3412.81
2065.5	3411.19
2066	3421.15
2066.5	3434.3
2067	3441.84
2067.5	3439.03
2068	3431.67
2068.5	3427.58
2069	3432.84
2069.5	3443.59
2070	3453.21
2070.5	3455.62
2071	3451.75
2071.5	3445.71
2072	3442.11
2072.5	3441.53
2073	3441.65
2073.5	3439.32
2074	3433.4
2074.5	3425
2075	3417.4
2075.5	3413.89
2076	3416.14
2076.5	3422.01
2077	3426.83
2077.5	3425.85
2078	3418.67
2078.5	3409.94
2079	3406.76
2079.5	3412.61
2080	3424.15
2080.5	3433.19
2081	3432.97
2081.5	3424.13
2082	3412.94
2082.5	3407.2
2083	3409.29
2083.5	3417.14
2084	3426.59
2084.5	3435.16
2085	3442.75
2085.5	3449.81
2086	3455.62
2086.5	3458.36
2087	3457.53
2087.5	3453.98
2088	3448.87
2088.5	3443.11
2089	3437.11
2089.5	3432.45
2090	3431.13
2090.5	3434.58
2091	3440.74
2091.5	3445.9
2092	3446.59
2092.5	3443.42
2093	3438.54
2093.5	3433.59
2094	3427.89
2094.5	3420.19
2095	3411.61
2095.5	3405.58
2096	3405.65
2096.5	3411.24
2097	3419.16
2097.5	3425.97
2098	3430.84
2098.5	3434.31
2099	3435.95
2099.5	3434.03
2100	3426.57
2100.5	3414.85
2101	3402.92
2101.5	3395.65
2102	3394.73
2102.5	3399.02
2103	3405.75
2103.5	3411.62
2104	3414.32
2104.5	3412.22
2105	3406.02
2105.5	3397.86
2106	3392
2106.5	3391.09
2107	3395.94
2107.5	3402.89
2108	3408.67
2108.5	3411.18
2109	3411.61
2109.5	3411.54
2110	3411.68
2110.5	3411.02
2111	3407.98
2111.5	3402.89
2112	3397.59
2112.5	3394.89
2113	3395.32
2113.5	3397.6
2114	3398.8
2114.5	3397.46
2115	3394.05
2115.5	3391.14
2116	3390.41
2116.5	3392.05
2117	3394.02
2117.5	3394.78
2118	3393.94
2118.5	3392.71
2119	3392.12
2119.5	3392.38
2120	3392.9
2120.5	3393.09
2121	3392.77
2121.5	3391.93
2122	3390.43
2122.5	3388.39
2123	3386.24
2123.5	3384.89
2124	3384.62
2124.5	3384.78
2125	3383.32
2125.5	3378.56
2126	3369.62
2126.5	3359.17
2127	3350.96
2127.5	3349.39
2128	3354.06
2128.5	3361.67
2129	3366
2129.5	3364.33
2130	3358.07
2130.5	3353.58
2131	3354.93
2131.5	3362.47
2132	3370.15
2132.5	3373
2133	3369.08
2133.5	3361.7
2134	3354.47
2134.5	3349.65
2135	3347.09
2135.5	3346.37
2136	3346.98
2136.5	3348.49
2137	3349.69
2137.5	3349.37
2138	3347.27
2138.5	3344.53
2139	3342.38
2139.5	3341.34
2140	3341.13
2140.5	3341.65
2141	3343.43
2141.5	3346.22
2142	3349
2142.5	3349.91
2143	3348.24
2143.5	3344.02
2144	3337.96
2144.5	3330.51
2145	3322.04
2145.5	3314.19
2146	3308.98
2146.5	3308.48
2147	3311.71
2147.5	3317.27
2148	3323.69
2148.5	3330.51
2149	3337.29
2149.5	3342.45
2150	3344.54
2150.5	3343.16
2151	3341.01
2151.5	3340.04
2152	3339.53
2152.5	3335.88
2153	3325.94
2153.5	3311.2
2154	3297.31
2154.5	3291.19
2155	3295.2
2155.5	3307.48
2156	3323.69
2156.5	3337.97
2157	3345.76
2157.5	3343.38
2158	3332.22
2158.5	3316.38
2159	3303.76
2159.5	3298.81
2160	3302.08
2160.5	3307.64
2161	3311.27
2161.5	3311.93
2162	3312.15
2162.5	3313.02
2163	3312.2
2163.5	3307.04
2164	3297.58
2164.5	3289.61
2165	3288.46
2165.5	3296.85
2166	3308.95
2166.5	3318.45
2167	3320.45
2167.5	3316.22
2168	3308.52
2168.5	3300.42
2169	3292.86
2169.5	3286.27
2170	3281.65
2170.5	3280.56
2171	3284.35
2171.5	3291.02
2172	3297.2
2172.5	3298.54
2173	3294.11
2173.5	3286.31
2174	3281.76
2174.5	3284.86
2175	3296.38
2175.5	3308.68
2176	3314.42
2176.5	3309.39
2177	3298.19
2177.5	3287.21
2178	3280.92
2178.5	3278.13
2179	3275.9
2179.5	3273.32
2180	3272.06
2180.5	3273.42
2181	3274.53
2181.5	3271.39
2182	3262.74
2182.5	3252.99
2183	3248.15
2183.5	3250.27
2184	3256.28
2184.5	3261.24
2185	3263.32
2185.5	3263.84
2186	3264.59
2186.5	3264.78
2187	3262.26
2187.5	3256.78
2188	3251.42
2188.5	3250.77
2189	3256.36
2189.5	3266.23
2190	3275.75
2190.5	3280.65
2191	3278.63
2191.5	3270.43
2192	3260.45
2192.5	3254.56
2193	3257.57
2193.5	3269.22
2194	3285
2194.5	3296.75
2195	3299.65
2195.5	3292.75
2196	3281.17
2196.5	3269.56
2197	3261.45
2197.5	3257.24
2198	3256.47
2198.5	3257.53
2199	3259.38
2199.5	3261.25
2200	3262.56
2200.5	3262.35
2201	3258.64
2201.5	3250.56
2202	3239.08
2202.5	3229.7
2203	3228.11
2203.5	3238.76
2204	3256.23
2204.5	3271.73
2205	3274.47
2205.5	3263.52
2206	3244.07
2206.5	3227.79
2207	3222.04
2207.5	3228.66
2208	3239.83
2208.5	3247.58
2209	3245.98
2209.5	3238.52
2210	3231.04
2210.5	3229.56
2211	3233.81
2211.5	3240.5
2212	3245.68
2212.5	3249.19
2213	3252.99
2213.5	3257.54
2214	3260.31
2214.5	3256.78
2215	3247.27
2215.5	3235.63
2216	3228.6
2216.5	3228.75
2217	3234.72
2217.5	3240.83
2218	3243.44
2218.5	3241.12
2219	3236.36
2219.5	3231.21
2220	3227.15
2220.5	3224.31
2221	3222.64
2221.5	3222.21
2222	3223.42
2222.5	3227.13
2223	3232.73
2223.5	3238.19
2224	3239.28
2224.5	3233.88
2225	3222.62
2225.5	3210.9
2226	3204.41
2226.5	3206.37
2227	3213.71
2227.5	3221.55
2228	3226.06
2228.5	3228.16
2229	3230.22
2229.5	3233.83
2230	3237.57
2230.5	3239.15
2231	3237.63
2231.5	3234.43
2232	3231.41
2232.5	3229.1
2233	3226.61
2233.5	3222.88
2234	3218.84
2234.5	3216.46
2235	3217.78
2235.5	3222.26
2236	3227.87
2236.5	3231.64
2237	3232.5
2237.5	3230.98
2238	3229.3
2238.5	3228.6
2239	3228.8
2239.5	3229.04
2240	3229.1
2240.5	3229.15
2241	3228.45
2241.5	3224.23
2242	3214.28
2242.5	3199.88
2243	3187.49
2243.5	3184.62
2244	3194.49
2244.5	3211.91
2245	3226
2245.5	3227.98
2246	3218.15
2246.5	3204.05
2247	3194.96
2247.5	3194.53
2248	3201.02
2248.5	3209.76
2249	3216.79
2249.5	3220.44
2250	3220.59
2250.5	3218.06
2251	3213.76
2251.5	3209.27
2252	3205.53
2252.5	3202.92
2253	3201.18
2253.5	3200.53
2254	3201.56
2254.5	3203.79
2255	3205.69
2255.5	3205.14
2256	3201.81
2256.5	3197.09
2257	3193.87
2257.5	3193.68
2258	3196.26
2258.5	3198.72
2259	3197.95
2259.5	3191.78
2260	3181.8
2260.5	3172.36
2261	3169.46
2261.5	3175.29
2262	3187.71
2262.5	3198.34
2263	3200.99
2263.5	3193.65
2264	3181.7
2264.5	3170.26
2265	3162.58
2265.5	3158.95
2266	3160.33
2266.5	3167.13
2267	3178.27
2267.5	3188.93
2268	3193.15
2268.5	3188
2269	3176.49
2269.5	3165.31
2270	3159.71
2270.5	3160.33
2271	3164.67
2271.5	3169.72
2272	3172.76
2272.5	3171.88
2273	3166.03
2273.5	3158.16
2274	3153.44
2274.5	3157.33
2275	3169.4
2275.5	3184.62
2276	3194.72
2276.5	3196.09
2277	3189.01
2277.5	3178.88
2278	3169.18
2278.5	3161.94
2279	3157.2
2279.5	3155.16
2280	3155.62
2280.5	3157.97
2281	3161.12
2281.5	3163.23
2282	3162.8
2282.5	3159.04
2283	3153.92
2283.5	3150.59
2284	3151.81
2284.5	3156.08
2285	3158.47
2285.5	3153.93
2286	3142.47
2286.5	3129.22
2287	3121.22
2287.5	3121.17
2288	3126.7
2288.5	3133.46
2289	3139.7
2289.5	3145.8
2290	3151.63
2290.5	3154.87
2291	3153.43
2291.5	3147.6
2292	3140.7
2292.5	3136.55
2293	3136.54
2293.5	3138.6
2294	3139.17
2294.5	3135.02
2295	3125.94
2295.5	3114.44
2296	3105.79
2296.5	3104.45
2297	3111.98
2297.5	3124.75
2298	3135.1
2298.5	3136.66
2299	3128.39
2299.5	3115.08
2300	3103.84
2300.5	3099.99
2301	3104.19
2301.5	3113.05
2302	3120.27
2302.5	3121.68
2303	3116.94
2303.5	3110.05
2304	3105.77
2304.5	3106.96
2305	3113.19
2305.5	3122.74
2306	3132.34
2306.5	3139.22
2307	3139.81
2307.5	3133.8
2308	3123.49
2308.5	3115.46
2309	3114.59
2309.5	3122.37
2310	3132.49
2310.5	3138.08
2311	3133.07
2311.5	3119.48
2312	3101.66
2312.5	3086.86
2313	3080.06
2313.5	3084.53
2314	3097.29
2314.5	3111.7
2315	3118.71
2315.5	3114.5
2316	3100.96
2316.5	3085.91
2317	3076.68
2317.5	3076.31
2318	3082.22
2318.5	3089.61
2319	3094.48
2319.5	3095.43
2320	3093.06
2320.5	3088.55
2321	3083.49
2321.5	3078.72
2322	3075.51
2322.5	3075.59
2323	3081.66
2323.5	3094.05
2324	3109.16
2324.5	3119.35
2325	3118.74
2325.5	3107.79
2326	3094.12
2326.5	3087.48
2327	3092.67
2327.5	3105.36
2328	3116.13
2328.5	3116.5
2329	3106.21
2329.5	3090.8
2330	3078.61
2330.5	3074.22
2331	3077.97
2331.5	3086.14
2332	3093.36
2332.5	3095.1
2333	3089.41
2333.5	3078.72
2334	3068.58
2334.5	3065.68
2335	3072.83
2335.5	3087.47
2336	3100.54
2336.5	3104.35
2337	3096.19
2337.5	3081.28
2338	3066.69
2338.5	3058.22
2339	3056.86
2339.5	3061.81
2340	3069.23
2340.5	3075.58
2341	3075.95
2341.5	3068.93
2342	3056.4
2342.5	3045.94
2343	3044.03
2343.5	3054.17
2344	3070.56
2344.5	3085.78
2345	3092.32
2345.5	3089.91
2346	3080.85
2346.5	3070.09
2347	3061.66
2347.5	3058.63
2348	3061.51
2348.5	3068.14
2349	3073.81
2349.5	3073.64
2350	3065.65
2350.5	3052.4
2351	3040.9
2351.5	3037.48
2352	3043.84
2352.5	3055.16
2353	3063.8
2353.5	3063.98
2354	3055.55
2354.5	3042.9
2355	3033.39
2355.5	3031.97
2356	3039.63
2356.5	3051.96
2357	3062.86
2357.5	3066.06
2358	3060.24
2358.5	3048.3
2359	3038.25
2359.5	3035.33
2360	3040.57
2360.5	3048.53
2361	3054.12
2361.5	3054.87
2362	3052.3
2362.5	3048.3
2363	3044.2
2363.5	3040.62
2364	3039.21
2364.5	3040.75
2365	3044.2
2365.5	3045.52
2366	3041.76
2366.5	3033.05
2367	3024.78
2367.5	3022.19
2368	3028.5
2368.5	3039.76
2369	3050.54
2369.5	3055.14
2370	3052.91
2370.5	3045.25
2371	3036.08
2371.5	3028.85
2372	3025.85
2372.5	3026.1
2373	3026.97
2373.5	3024.9
2374	3019.2
2374.5	3011.67
2375	3006.84
2375.5	3007.71
2376	3014.45
2376.5	3022.5
2377	3026.62
2377.5	3022.27
2378	3011.3
2378.5	2998.85
2379	2992.92
2379.5	2996.85
2380	3009.77
2380.5	3024.93
2381	3035.38
2381.5	3036.45
2382	3029.8
2382.5	3019.69
2383	3010.73
2383.5	3005.95
2384	3006.92
2384.5	3013.7
2385	3022.99
2385.5	3030.33
2386	3031.21
2386.5	3025.32
2387	3015.41
2387.5	3007.19
2388	3004.05
2388.5	3007.01
2389	3012.98
2389.5	3018.34
2390	3017.91
2390.5	3009.26
2391	2993.12
2391.5	2977.82
2392	2972.33
2392.5	2984.06
2393	3006.3
2393.5	3027.89
2394	3035.79
2394.5	3029.92
2395	3016.57
2395.5	3006.7
2396	3005.31
2396.5	3012.17
2397	3020.59
2397.5	3025.08
2398	3022.04
2398.5	3014.5
2399	3007.03
2399.5	3004.8
2400	3007.81
2400.5	3012.93
2401	3015.12
2401.5	3012.07
2402	3003.24
2402.5	2991.65
2403	2980.75
2403.5	2976.12
2404	2980.98
2404.5	2995.86
2405	3013.74
2405.5	3024.82
2406	3021.75
2406.5	3007.97
2407	2991.65
2407.5	2982.03
2408	2980.88
2408.5	2986.24
2409	2994.11
2409.5	3001.41
2410	3005.63
2410.5	3004.24
2411	2997.02
2411.5	2986.91
2412	2979.86
2412.5	2979
2413	2983.32
2413.5	2987.44
2414	2987.88
2414.5	2985.04
2415	2982.16
2415.5	2981.54
2416	2982.21
2416.5	2981.78
2417	2978.27
2417.5	2972.61
2418	2966.62
2418.5	2962.94
2419	2963.03
2419.5	2967.49
2420	2974.41
2420.5	2980.72
2421	2983.26
2421.5	2981.77
2422	2978.12
2422.5	2974.9
2423	2973.42
2423.5	2973.98
2424	2976.24
2424.5	2979.25
2425	2981.26
2425.5	2980.01
2426	2975.13
2426.5	2968.94
2427	2965.82
2427.5	2967.6
2428	2972.48
2428.5	2976.6
2429	2978.1
2429.5	2978.09
2430	2978.05
2430.5	2977.41
2431	2974.16
2431.5	2968.15
2432	2962.91
2432.5	2962.43
2433	2967.58
2433.5	2974.47
2434	2978.15
2434.5	2975.99
2435	2970.68
2435.5	2966.87
2436	2969.1
2436.5	2976.24
2437	2983.65
2437.5	2984.28
2438	2976.67
2438.5	2964.16
2439	2955.44
2439.5	2955.52
2440	2964.08
2440.5	2972.81
2441	2975.08
2441.5	2967.72
2442	2956.17
2442.5	2945.16
2443	2938.12
2443.5	2935.62
2444	2938.35
2444.5	2945.11
2445	2952.36
2445.5	2954.3
2446	2948.74
2446.5	2938.76
2447	2932.69
2447.5	2934.77
2448	2943.66
2448.5	2952.18
2449	2955.38
2449.5	2952.61
2450	2948.76
2450.5	2947.69
2451	2951.31
2451.5	2957.01
2452	2961.93
2452.5	2962.63
2453	2957.56
2453.5	2946.59
2454	2934.05
2454.5	2925.73
2455	2927.19
2455.5	2936.33
2456	2946.82
2456.5	2950.15
2457	2944.74
2457.5	2933.35
2458	2922.54
2458.5	2916.63
2459	2917.44
2459.5	2922.71
2460	2929.18
2460.5	2932.62
2461	2931.3
2461.5	2926.14
2462	2921.44
2462.5	2921.25
2463	2926.78
2463.5	2934.03
2464	2937.87
2464.5	2934.61
2465	2926.5
2465.5	2917.73
2466	2912.49
2466.5	2911.58
2467	2914.35
2467.5	2918.35
2468	2920.83
2468.5	2919.56
2469	2915.39
2469.5	2911.82
2470	2913.68
2470.5	2921.05
2471	2930.42
2471.5	2935.21
2472	2932.57
2472.5	2923.4
2473	2913.18
2473.5	2906.72
2474	2906.9
2474.5	2912.29
2475	2920.54
2475.5	2928.23
2476	2931.98
2476.5	2929.61
2477	2921.9
2477.5	2913.48
2478	2909.91
2478.5	2913.14
2479	2920.04
2479.5	2924.73
2480	2923.47
2480.5	2916.92
2481	2909.71
2481.5	2906.28
2482	2908.01
2482.5	2911.92
2483	2914.52
2483.5	2914.39
2484	2913.21
2484.5	2912.59
2485	2912.37
2485.5	2910.26
2486	2904.57
2486.5	2896.28
2487	2888.78
2487.5	2884.28
2488	2882.2
2488.5	2880.96
2489	2880.5
2489.5	2882.32
2490	2887.04
2490.5	2892.15
2491	2893.72
2491.5	2890.43
2492	2885.45
2492.5	2882.82
2493	2884.33
2493.5	2887.37
2494	2889.02
2494.5	2887.34
2495	2883.09
2495.5	2876.65
2496	2868.78
2496.5	2862.15
2497	2860.97
2497.5	2867.55
2498	2878.86
2498.5	2888.04
2499	2889.91
2499.5	2885.62
2500	2880.74
2500.5	2879.64
2501	2881.88
2501.5	2882.37
2502	2877.5
2502.5	2867.62
2503	2859.36
2503.5	2857.98
2504	2865.41
2504.5	2875.16
2505	2880.59
2505.5	2877.73
2506	2870.76
2506.5	2866.06
2507	2867.28
2507.5	2871.57
2508	2874.26
2508.5	2873.49
2509	2870.57
2509.5	2867.15
2510	2863.1
2510.5	2858.14
2511	2854.95
2511.5	2856.57
2512	2863.33
2512.5	2869.38
2513	2869.38
2513.5	2861.94
2514	2854.34
2514.5	2853.52
2515	2861.03
2515.5	2870.24
2516	2874.13
2516.5	2869.42
2517	2859.59
2517.5	2851.26
2518	2851
2518.5	2859.66
2519	2872.39
2519.5	2880.2
2520	2877.32
2520.5	2864.7
2521	2850.72
2521.5	2843.95
2522	2847.36
2522.5	2856.67
2523	2865.94
2523.5	2870.37
2524	2867.62
2524.5	2856.74
2525	2842.21
2525.5	2831.79
2526	2834.38
2526.5	2849.08
2527	2867.4
2527.5	2875.91
2528	2869.79
2528.5	2853.31
2529	2839.93
2529.5	2837.31
2530	2843.3
2530.5	2848.89
2531	2846.84
2531.5	2836.73
2532	2824.06
2532.5	2816.29
2533	2816.51
2533.5	2821.8
2534	2825.29
2534.5	2822.51
2535	2813.42
2535.5	2803.08
2536	2796.37
2536.5	2795.99
2537	2800.09
2537.5	2806.17
2538	2811.07
2538.5	2811.44
2539	2804.98
2539.5	2793.19
2540	2783.05
2540.5	2780.88
2541	2785.63
2541.5	2790.18
2542	2787.69
2542.5	2780.76
2543	2777.14
2543.5	2784.72
2544	2798.53
2544.5	2809.58
2545	2810.62
2545.5	2804.06
2546	2795.94
2546.5	2791.68
2547	2791.72
2547.5	2794.24
2548	2797.01
2548.5	2798.59
2549	2796.78
2549.5	2791.39
2550	2784.86
2550.5	2783.39
2551	2789.83
2551.5	2802.28
2552	2812.83
2552.5	2815.83
2553	2808.83
2553.5	2797.03
2554	2785.92
2554.5	2780.69
2555	2782.28
2555.5	2789.87
2556	2798.81
2556.5	2804.34
2557	2802.35
2557.5	2795.1
2558	2787.2
2558.5	2782.88
2559	2781.53
2559.5	2780.41
2560	2777.18
2560.5	2772.79
2561	2770.2
2561.5	2771.3
2562	2775.85
2562.5	2782.1
2563	2786.44
2563.5	2785.18
2564	2775.75
2564.5	2762.6
2565	2753.99
2565.5	2757.02
2566	2769.84
2566.5	2783.27
2567	2787.03
2567.5	2779.49
2568	2769.07
2568.5	2764.59
2569	2768.1
2569.5	2773.96
2570	2776.25
2570.5	2772.58
2571	2766.46
2571.5	2761.57
2572	2760.84
2572.5	2764.19
2573	2770.32
2573.5	2775.21
2574	2774.6
2574.5	2767.07
2575	2757.59
2575.5	2752.51
2576	2756.09
2576.5	2763.5
2577	2766.88
2577.5	2759.34
2578	2745.19
2578.5	2732.45
2579	2730.02
2579.5	2738.64
2580	2754.03
2580.5	2766.84
2581	2771.9
2581.5	2766.94
2582	2756.31
2582.5	2744.75
2583	2738.52
2583.5	2740.57
2584	2749.61
2584.5	2758.4
2585	2760.77
2585.5	2754.36
2586	2746.06
2586.5	2743.78
2587	2752.23
2587.5	2765.01
2588	2774.86
2588.5	2776.89
2589	2773.11
2589.5	2767.25
2590	2762.49
2590.5	2759.06
2591	2756.35
2591.5	2753.68
2592	2750.84
2592.5	2748.54
2593	2748.54
2593.5	2752.16
2594	2757.07
2594.5	2758.32
2595	2750.9
2595.5	2737.53
2596	2726.15
2596.5	2726.65
2597	2737.79
2597.5	2752.92
2598	2761.77
2598.5	2761.05
2599	2753.17
2599.5	2745.84
2600	2742.72
2600.5	2743.78
2601	2745.73
2601.5	2747.15
2602	2749.07
2602.5	2752.92
2603	2758.44
2603.5	2763.16
2604	2764.92
2604.5	2762.29
2605	2755.54
2605.5	2745.8
2606	2735.83
2606.5	2730.41
2607	2733.49
2607.5	2744.54
2608	2755.74
2608.5	2758.88
2609	2753.54
2609.5	2746.64
2610	2746.37
2610.5	2752.21
2611	2757.25
2611.5	2753.63
2612	2743.78
2612.5	2734.43
2613	2732.36
2613.5	2736.97
2614	2743.51
2614.5	2746.05
2615	2742.86
2615.5	2734.25
2616	2724.15
2616.5	2716.58
2617	2716.38
2617.5	2722.56
2618	2730.6
2618.5	2732.53
2619	2724.87
2619.5	2709.54
2620	2697.06
2620.5	2695.24
2621	2706.97
2621.5	2724.18
2622	2737.93
2622.5	2740.78
2623	2734.6
2623.5	2725.47
2624	2720.09
2624.5	2719.99
2625	2722.2
2625.5	2720.5
2626	2712.41
2626.5	2701.81
2627	2696.94
2627.5	2704.65
2628	2723.26
2628.5	2742.36
2629	2749.19
2629.5	2740.87
2630	2723.02
2630.5	2706.41
2631	2698.54
2631.5	2700.56
2632	2707.13
2632.5	2711.98
2633	2710.29
2633.5	2702.01
2634	2691.95
2634.5	2688.6
2635	2695.2
2635.5	2708.91
2636	2721.07
2636.5	2725.59
2637	2722.11
2637.5	2716.76
2638	2713
2638.5	2710.07
2639	2704.59
2639.5	2695.5
2640	2685.7
2640.5	2679.94
2641	2681.3
2641.5	2689.45
2642	2699.01
2642.5	2702.38
2643	2696.1
2643.5	2684.54
2644	2677.65
2644.5	2681.84
2645	2694.37
2645.5	2702.8
2646	2699.75
2646.5	2686.87
2647	2674.5
2647.5	2669.25
2648	2670.55
2648.5	2671.27
2649	2669.16
2649.5	2667.19
2650	2669.62
2650.5	2677.33
2651	2686.92
2651.5	2694.77
2652	2698.48
2652.5	2696.57
2653	2688.7
2653.5	2676.54
2654	2666.21
2654.5	2662.04
2655	2664.64
2655.5	2668.19
2656	2667.83
2656.5	2664.5
2657	2663.1
2657.5	2666.92
2658	2672.74
2658.5	2675.36
2659	2672.25
2659.5	2668.13
2660	2667.16
2660.5	2669.91
2661	2672.17
2661.5	2670.14
2662	2664.17
2662.5	2656.74
2663	2649.93
2663.5	2645.15
2664	2644.3
2664.5	2649.12
2665	2656.31
2665.5	2659.9
2666	2654.24
2666.5	2642.77
2667	2635.18
2667.5	2638.41
2668	2649.09
2668.5	2656.28
2669	2651.84
2669.5	2638.96
2670	2629.44
2670.5	2630.87
2671	2642.92
2671.5	2655.29
2672	2658.96
2672.5	2650.58
2673	2636.41
2673.5	2623.4
2674	2617.46
2674.5	2617.17
2675	2619.02
2675.5	2619.97
2676	2620.14
2676.5	2621.64
2677	2626.4
2677.5	2633.84
2678	2641.56
2678.5	2645.58
2679	2642.5
2679.5	2631.25
2680	2618.26
2680.5	2611.34
2681	2615.23
2681.5	2624.85
2682	2628.78
2682.5	2621.17
2683	2607.47
2683.5	2601.26
2684	2609
2684.5	2625.82
2685	2635.72
2685.5	2631.03
2686	2613.71
2686.5	2597.01
2687	2591.35
2687.5	2599.91
2688	2614.16
2688.5	2625.24
2689	2625.35
2689.5	2616.77
2690	2606.7
2690.5	2603.19
2691	2606.95
2691.5	2613.16
2692	2614.65
2692.5	2610.96
2693	2606.94
2693.5	2607.64
2694	2613.15
2694.5	2617.63
2695	2615.83
2695.5	2606.25
2696	2593.59
2696.5	2584.37
2697	2584.35
2697.5	2590.67
2698	2597.16
2698.5	2596
2699	2586.67
2699.5	2573.88
2700	2564.52
2700.5	2560.06
2701	2558.86
2701.5	2558.71
2702	2560.23
2702.5	2565.37
2703	2573.26
2703.5	2581.93
2704	2588.98
2704.5	2593.41
2705	2594.05
2705.5	2590.3
2706	2583.66
2706.5	2577.24
2707	2573.07
2707.5	2570.02
2708	2565.78
2708.5	2561.1
2709	2559.73
2709.5	2564.84
2710	2574.62
2710.5	2585.17
2711	2592.07
2711.5	2593.72
2712	2589.8
2712.5	2583.17
2713	2577.49
2713.5	2577.25
2714	2580.68
2714.5	2581.95
2715	2575.14
2715.5	2562.14
2716	2551.19
2716.5	2550.7
2717	2557.52
2717.5	2563.5
2718	2563.95
2718.5	2561.6
2719	2561.85
2719.5	2564.44
2720	2564.6
2720.5	2559.68
2721	2554.2
2721.5	2554.4
2722	2560.79
2722.5	2567.87
2723	2570.95
2723.5	2571.11
2724	2571.5
2724.5	2572.14
2725	2568.29
2725.5	2562.48
2726	2559.79
2726.5	2563.2
2727	2569.29
2727.5	2572.14
2728	2569.62
2728.5	2564.22
2729	2560.81
2729.5	2561.97
2730	2567.17
2730.5	2574.02
2731	2578.91
2731.5	2578.39
2732	2572.36
2732.5	2564.47
2733	2560.59
2733.5	2564.9
2734	2574.76
2734.5	2583.96
2735	2587.17
2735.5	2583.3
2736	2576.68
2736.5	2572.96
2737	2575.32
2737.5	2583.53
2738	2594.19
2738.5	2602.58
2739	2605.55
2739.5	2602.43
2740	2595.69
2740.5	2590.65
2741	2591.56
2741.5	2598.39
2742	2606.43
2742.5	2608.85
2743	2604.07
2743.5	2597.1
2744	2594.59
2744.5	2598.9
2745	2605.05
2745.5	2606.82
2746	2603.66
2746.5	2600.03
2747	2600.34
2747.5	2602.81
2748	2602.44
2748.5	2597.27
2749	2590.6
2749.5	2588.37
2750	2591.61
2750.5	2596.39
2751	2597.85
2751.5	2594.5
2752	2590.02
2752.5	2588.87
2753	2592.16
2753.5	2597.13
2754	2599.24
2754.5	2597.17
2755	2594.07
2755.5	2594.43
2756	2600.31
2756.5	2608.71
2757	2614.28
2757.5	2614.57
2758	2610.85
2758.5	2606.44
2759	2603.85
2759.5	2603.34
2760	2604.26
2760.5	2605.73
2761	2606.6
2761.5	2606.22
2762	2605.74
2762.5	2607.7
2763	2614.03
2763.5	2623.18
2764	2630.13
2764.5	2631.11
2765	2626.2
2765.5	2619.26
2766	2615.08
2766.5	2615.2
2767	2617.92
2767.5	2620.25
2768	2619.91
2768.5	2617.01
2769	2613.49
2769.5	2611.15
2770	2610.69
2770.5	2612.03
2771	2615.22
2771.5	2620.56
2772	2627.15
2772.5	2632.18
2773	2632.28
2773.5	2627.85
2774	2622.65
2774.5	2620.25
2775	2620.72
2775.5	2620.66
2776	2617.83
2776.5	2613.88
2777	2612.04
2777.5	2613.68
2778	2616.75
2778.5	2618.39
2779	2618.11
2779.5	2617.41
2780	2617.98
2780.5	2620.04
2781	2622.23
2781.5	2622.96
2782	2621.61
2782.5	2619.49
2783	2619.75
2783.5	2624.17
2784	2630.88
2784.5	2635.36
2785	2634.11
2785.5	2628.68
2786	2623.76
2786.5	2621.51
2787	2620.55
2787.5	2618.93
2788	2618.32
2788.5	2622.05
2789	2629.91
2789.5	2637.35
2790	2639.65
2790.5	2638.23
2791	2638.75
2791.5	2643.3
2792	2647.42
2792.5	2643.83
2793	2631.5
2793.5	2618.44
2794	2613.49
2794.5	2619.56
2795	2631.75
2795.5	2641.42
2796	2644.24
2796.5	2640.71
2797	2633.38
2797.5	2624.7
2798	2617.56
2798.5	2615.6
2799	2621.28
2799.5	2632.95
2800	2644.24
2800.5	2648.01
2801	2643.96
2801.5	2637.51
2802	2634.07
2802.5	2633.7
2803	2630.89
2803.5	2622.25
2804	2610.92
2804.5	2603.52
2805	2604.13
2805.5	2610.63
2806	2616.96
2806.5	2619.84
2807	2619.7
2807.5	2618.63
2808	2618
2808.5	2618.07
2809	2619.13
2809.5	2621.63
2810	2625.32
2810.5	2628.92
2811	2631.03
2811.5	2631.35
2812	2630.41
2812.5	2628.99
2813	2627.84
2813.5	2627.85
2814	2629.46
2814.5	2632.13
2815	2634.15
2815.5	2633.63
2816	2629.94
2816.5	2624.61
2817	2619.5
2817.5	2615.48
2818	2612.41
2818.5	2610.5
2819	2611.09
2819.5	2615.15
2820	2621.3
2820.5	2626.06
2821	2626.77
2821.5	2625.41
2822	2626.97
2822.5	2633.41
2823	2640.65
2823.5	2641.12
2824	2630.53
2824.5	2615.08
2825	2604.89
2825.5	2606.41
2826	2617.57
2826.5	2628.98
2827	2631.73
2827.5	2625.18
2828	2615.49
2828.5	2610.61
2829	2614.42
2829.5	2623.91
2830	2632.49
2830.5	2636.5
2831	2636.44
2831.5	2634.89
2832	2633.26
2832.5	2630.71
2833	2626.4
2833.5	2620.63
2834	2614.1
2834.5	2606.88
2835	2599.25
2835.5	2593.3
2836	2591.93
2836.5	2596.51
2837	2605.56
2837.5	2615.63
2838	2623.62
2838.5	2627.97
2839	2628.12
2839.5	2624.86
2840	2620.67
2840.5	2618.34
2841	2617.58
2841.5	2615.35
2842	2609.45
2842.5	2601.54
2843	2596.3
2843.5	2596.12
2844	2598.49
2844.5	2599.74
2845	2598.74
2845.5	2597.25
2846	2597.18
2846.5	2598.37
2847	2600
2847.5	2601.52
2848	2601.95
2848.5	2599.49
2849	2593.77
2849.5	2588.29
2850	2587.12
2850.5	2590.47
2851	2593.84
2851.5	2592.62
2852	2588.47
2852.5	2587.21
2853	2591.27
2853.5	2596.89
2854	2597.84
2854.5	2592
2855	2584.47
2855.5	2581.56
2856	2585.76
2856.5	2594.63
2857	2602.62
2857.5	2603.8
2858	2596.73
2858.5	2585.58
2859	2577.75
2859.5	2578.36
2860	2585.57
2860.5	2591.05
2861	2588.24
2861.5	2577.78
2862	2565.45
2862.5	2557.37
2863	2556.6
2863.5	2562.38
2864	2570.83
2864.5	2577.38
2865	2579.35
2865.5	2578.59
2866	2580.72
2866.5	2589.14
2867	2599.52
2867.5	2604.47
2868	2600.51
2868.5	2590.8
2869	2580.96
2869.5	2572.84
2870	2564.59
2870.5	2555.84
2871	2548.76
2871.5	2545.16
2872	2544.52
2872.5	2546.22
2873	2551.96
2873.5	2562.48
2874	2573.21
2874.5	2576.12
2875	2567.46
2875.5	2554.17
2876	2547.28
2876.5	2550.06
2877	2556.43
2877.5	2558.4
2878	2554.97
2878.5	2553.32
2879	2559.21
2879.5	2569.99
2880	2576.91
2880.5	2572.39
2881	2556.36
2881.5	2537.59
2882	2527.29
2882.5	2530.12
2883	2541.81
2883.5	2553.07
2884	2557.08
2884.5	2554.49
2885	2551.44
2885.5	2551.44
2886	2553.2
2886.5	2553.79
2887	2552.59
2887.5	2551.45
2888	2551.49
2888.5	2551.55
2889	2550.2
2889.5	2547.18
2890	2542.73
2890.5	2536.4
2891	2528.23
2891.5	2521.14
2892	2519.65
2892.5	2525.91
2893	2536.69
2893.5	2544.75
2894	2544.03
2894.5	2536.2
2895	2528.67
2895.5	2528.41
2896	2536.14
2896.5	2545.48
2897	2547.86
2897.5	2540.95
2898	2531.18
2898.5	2526.56
2899	2529.65
2899.5	2535.86
2900	2537.95
2900.5	2532.08
2901	2521.48
2901.5	2512
2902	2508.85
2902.5	2514.2
2903	2525.76
2903.5	2536.92
2904	2540.7
2904.5	2536.5
2905	2529.95
2905.5	2527.2
2906	2528.74
2906.5	2529.05
2907	2522.87
2907.5	2512.66
2908	2505.61
2908.5	2506.5
2909	2513.7
2909.5	2521.11
2910	2523.23
2910.5	2519.03
2911	2512.05
2911.5	2506.28
2912	2503.58
2912.5	2503.08
2913	2502.99
2913.5	2503.22
2914	2505.67
2914.5	2510.88
2915	2515.74
2915.5	2515.35
2916	2507.4
2916.5	2494.51
2917	2482.57
2917.5	2476.44
2918	2477.76
2918.5	2485.42
2919	2495.34
2919.5	2500.88
2920	2496.34
2920.5	2482.69
2921	2469.5
2921.5	2465.66
2922	2471.13
2922.5	2477.7
2923	2477.72
2923.5	2471.83
2924	2467.6
2924.5	2470.09
2925	2477
2925.5	2483.27
2926	2486.52
2926.5	2488.03
2927	2490.18
2927.5	2494.28
2928	2499.9
2928.5	2504.14
2929	2501.61
2929.5	2488.11
2930	2466.63
2930.5	2448.53
2931	2445.87
2931.5	2458.08
2932	2472.86
2932.5	2479.12
2933	2476.71
2933.5	2474.08
2934	2477.3
2934.5	2482.68
2935	2481.62
2935.5	2472.2
2936	2460.81
2936.5	2455.58
2937	2459.47
2937.5	2469
2938	2478.06
2938.5	2482.15
2939	2480.69
2939.5	2475.68
2940	2469.94
2940.5	2465.38
2941	2462.1
2941.5	2458.88
2942	2454.58
2942.5	2449.29
2943	2444.04
2943.5	2440.17
2944	2438.4
2944.5	2437.94
2945	2436.86
2945.5	2434.44
2946	2433.39
2946.5	2437.52
2947	2446.86
2947.5	2456.49
2948	2461.01
2948.5	2460.19
2949	2458.93
2949.5	2460.68
2950	2462.19
2950.5	2458.37
2951	2449.16
2951.5	2440.3
2952	2437.63
2952.5	2441.82
2953	2448.96
2953.5	2454.91
2954	2457.96
2954.5	2457.58
2955	2453.99
2955.5	2448.89
2956	2444.93
2956.5	2443.25
2957	2442.06
2957.5	2438.93
2958	2434.19
2958.5	2430.3
2959	2429.11
2959.5	2430.52
2960	2433.76
2960.5	2438.51
2961	2443.88
2961.5	2447.19
2962	2445.77
2962.5	2439.66
2963	2432.13
2963.5	2427.47
2964	2428.29
2964.5	2434.1
2965	2441.02
2965.5	2443.23
2966	2436.79
2966.5	2423.01
2967	2408.35
2967.5	2399.85
2968	2399.77
2968.5	2405.01
2969	2411.29
2969.5	2416.69
2970	2420.29
2970.5	2420.28
2971	2416.38
2971.5	2413.03
2972	2417
2972.5	2429.57
2973	2441.56
2973.5	2441.26
2974	2427.39
2974.5	2410.17
2975	2401.29
2975.5	2403.82
2976	2411.53
2976.5	2416.6
2977	2415.9
2977.5	2411.21
2978	2405.29
2978.5	2400.23
2979	2397.3
2979.5	2396.13
2980	2394.91
2980.5	2392.83
2981	2391.94
2981.5	2394.4
2982	2397.78
2982.5	2397.19
2983	2392.01
2983.5	2388.08
2984	2391.15
2984.5	2398.88
2985	2402.1
2985.5	2395.2
2986	2384.24
2986.5	2379.62
2987	2385.08
2987.5	2395.47
2988	2403.18
2988.5	2404.9
2989	2402.45
2989.5	2399.51
2990	2398.79
2990.5	2400.24
2991	2400.88
2991.5	2396.74
2992	2387.16
2992.5	2376.89
2993	2372.23
2993.5	2374.51
2994	2378.35
2994.5	2377.51
2995	2372.01
2995.5	2366.58
2996	2365.18
2996.5	2368.07
2997	2372.92
2997.5	2376.62
2998	2376.45
2998.5	2371.85
2999	2366.46
2999.5	2365.33
3000	2368.16
3000.5	2368.02
3001	2358.71
3001.5	2343.45
3002	2333.23
3002.5	2335.2
3003	2344.62
3003.5	2350.78
3004	2350.9
3004.5	2350.92
3005	2354.3
3005.5	2355.83
3006	2348.7
3006.5	2335.51
3007	2327.77
3007.5	2333.51
3008	2347.97
3008.5	2358.84
3009	2360.03
3009.5	2353.97
3010	2345.27
3010.5	2336.68
3011	2330.76
3011.5	2330.95
3012	2337.39
3012.5	2343.42
3013	2340.79
3013.5	2330.18
3014	2320.65
3014.5	2319.64
3015	2325.38
3015.5	2330.31
3016	2330.03
3016.5	2326.73
3017	2324.46
3017.5	2323.76
3018	2322.26
3018.5	2318.99
3019	2315.55
3019.5	2314.15
3020	2315.67
3020.5	2318.88
3021	2320.48
3021.5	2317.02
3022	2308.49
3022.5	2300.01
3023	2297.89
3023.5	2302.85
3024	2309.77
3024.5	2313.01
3025	2311.04
3025.5	2305.75
3026	2299.34
3026.5	2293.6
3027	2290.77
3027.5	2292.17
3028	2295.33
3028.5	2296.29
3029	2295.01
3029.5	2295.5
3030	2299.02
3030.5	2299.94
3031	2291.65
3031.5	2276.68
3032	2267.14
3032.5	2272.64
3033	2288.75
3033.5	2300.97
3034	2300.64
3034.5	2291.19
3035	2281.88
3035.5	2278.12
3036	2278.58
3036.5	2279.53
3037	2279.46
3037.5	2279.63
3038	2281.56
3038.5	2284.44
3039	2285.07
3039.5	2280.9
3040	2273.29
3040.5	2267.34
3041	2267.03
3041.5	2270.43
3042	2271.27
3042.5	2266.18
3043	2259.13
3043.5	2257
3044	2260.57
3044.5	2263.29
3045	2259.68
3045.5	2251.63
3046	2245.73
3046.5	2245.5
3047	2248.3
3047.5	2249.64
3048	2248.99
3048.5	2249.89
3049	2255
3049.5	2261.76
3050	2264.06
3050.5	2257.6
3051	2243.25
3051.5	2226.59
3052	2214.72
3052.5	2212.24
3053	2218.79
3053.5	2229.7
3054	2239.41
3054.5	2245.1
3055	2247.01
3055.5	2245.34
3056	2238.24
3056.5	2224.65
3057	2208.55
3057.5	2198.27
3058	2199.71
3058.5	2210.29
3059	2220.66
3059.5	2222.88
3060	2216.61
3060.5	2207.71
3061	2202.41
3061.5	2202.95
3062	2207.82
3062.5	2213.26
3063	2215.04
3063.5	2211.73
3064	2207.06
3064.5	2207.02
3065	2212.77
3065.5	2217.67
3066	2213.6
3066.5	2200.58
3067	2187.89
3067.5	2184.15
3068	2187.96
3068.5	2191.58
3069	2190.28
3069.5	2186.06
3070	2183.27
3070.5	2183.43
3071	2185.09
3071.5	2186.7
3072	2187.75
3072.5	2188.17
3073	2188.3
3073.5	2189.22
3074	2191.18
3074.5	2191.69
3075	2187.48
3075.5	2178.9
3076	2170.55
3076.5	2166.12
3077	2163.86
3077.5	2159.42
3078	2152.91
3078.5	2150.45
3079	2157.01
3079.5	2169.08
3080	2177.57
3080.5	2178
3081	2175.58
3081.5	2176.64
3082	2179.76
3082.5	2177.71
3083	2167.19
3083.5	2153.64
3084	2145.24
3084.5	2143.99
3085	2144.7
3085.5	2142.01
3086	2136.4
3086.5	2132.38
3087	2132.73
3087.5	2135.89
3088	2138.73
3088.5	2140.32
3089	2142.18
3089.5	2146.03
3090	2151.32
3090.5	2154.85
3091	2153.23
3091.5	2146.35
3092	2138.15
3092.5	2133.02
3093	2131.51
3093.5	2130.4
3094	2127.15
3094.5	2123.13
3095	2121.48
3095.5	2122.98
3096	2125.65
3096.5	2127.17
3097	2126.39
3097.5	2123.17
3098	2118.64
3098.5	2115.17
3099	2114.29
3099.5	2114.1
3100	2110.95
3100.5	2104.83
3101	2101.21
3101.5	2104.9
3102	2113.19
3102.5	2117.99
3103	2115.82
3103.5	2111.26
3104	2109.63
3104.5	2110.36
3105	2109.53
3105.5	2106.75
3106	2105.57
3106.5	2107.54
3107	2109.57
3107.5	2108.5
3108	2105.8
3108.5	2105.15
3109	2107.01
3109.5	2108.17
3110	2106.52
3110.5	2103.56
3111	2101.56
3111.5	2100.52
3112	2099.22
3112.5	2097.11
3113	2093.93
3113.5	2089.18
3114	2083.85
3114.5	2081.4
3115	2084.47
3115.5	2090.57
3116	2093.12
3116.5	2088.31
3117	2079.56
3117.5	2073.75
3118	2073.55
3118.5	2074.79
3119	2071.59
3119.5	2062.59
3120	2052.39
3120.5	2047.44
3121	2051.66
3121.5	2063.86
3122	2078.25
3122.5	2088.11
3123	2090.36
3123.5	2086.94
3124	2081.57
3124.5	2075.64
3125	2068.47
3125.5	2061.12
3126	2057.78
3126.5	2061.33
3127	2068.41
3127.5	2071.73
3128	2068.36
3128.5	2064.06
3129	2066.75
3129.5	2075.81
3130	2081.76
3130.5	2076.79
3131	2063.48
3131.5	2051.48
3132	2047.03
3132.5	2048.22
3133	2050.21
3133.5	2051.58
3134	2053.83
3134.5	2056.73
3135	2057.65
3135.5	2055.25
3136	2051.24
3136.5	2047.52
3137	2043.93
3137.5	2040.25
3138	2038.26
3138.5	2039.33
3139	2040.95
3139.5	2039
3140	2033.79
3140.5	2030
3141	2030.15
3141.5	2031.4
3142	2030.85
3142.5	2031.13
3143	2037.01
3143.5	2047.55
3144	2055.69
3144.5	2056.63
3145	2052.86
3145.5	2048.65
3146	2043.28
3146.5	2034.05
3147	2024.38
3147.5	2022.81
3148	2031.69
3148.5	2041.42
3149	2040.14
3149.5	2027.65
3150	2015.58
3150.5	2014.14
3151	2022.7
3151.5	2033.4
3152	2039.73
3152.5	2038.59
3153	2029.48
3153.5	2016.52
3154	2008.57
3154.5	2011.35
3155	2019.48
3155.5	2021.59
3156	2014.71
3156.5	2009.02
3157	2014.86
3157.5	2028.32
3158	2035.24
3158.5	2028.48
3159	2015.79
3159.5	2008.96
3160	2009.83
3160.5	2010.85
3161	2006.75
3161.5	2000.72
3162	1998.75
3162.5	2002.12
3163	2007.37
3163.5	2010.99
3164	2011.64
3164.5	2009.22
3165	2004.8
3165.5	2001.38
3166	2002
3166.5	2006.26
3167	2010.29
3167.5	2011.31
3168	2010.88
3168.5	2011.82
3169	2013.04
3169.5	2009.79
3170	2000.2
3170.5	1989.21
3171	1984.23
3171.5	1987.36
3172	1994.11
3172.5	1999.18
3173	2001.1
3173.5	2000.39
3174	1996.49
3174.5	1989.37
3175	1982.8
3175.5	1981.84
3176	1986.45
3176.5	1990.43
3177	1988.69
3177.5	1983.3
3178	1980.28
3178.5	1982.01
3179	1985.34
3179.5	1986.88
3180	1986.95
3180.5	1988.07
3181	1991.44
3181.5	1995.91
3182	1998.7
3182.5	1997.09
3183	1991.29
3183.5	1986.37
3184	1988.2
3184.5	1995.83
3185	2000.33
3185.5	1994.14
3186	1980.34
3186.5	1969.07
3187	1965.61
3187.5	1965.73
3188	1963.75
3188.5	1960.56
3189	1960.71
3189.5	1964.33
3190	1966.6
3190.5	1964.99
3191	1962.62
3191.5	1963.14
3192	1965.38
3192.5	1965.43
3193	1961.93
3193.5	1956.52
3194	1950.31
3194.5	1943.41
3195	1938.4
3195.5	1940.54
3196	1951.6
3196.5	1965.16
3197	1971.46
3197.5	1967.43
3198	1959.41
3198.5	1955.4
3199	1957.11
3199.5	1961.16
3200	1964.83
3200.5	1966.89
3201	1964.37
3201.5	1954.16
3202	1939.39
3202.5	1929.92
3203	1932.37
3203.5	1941.74
3204	1947.03
3204.5	1944.04
3205	1938.35
3205.5	1935.75
3206	1935.11
3206.5	1933.19
3207	1931.55
3207.5	1933.67
3208	1937.69
3208.5	1937.99
3209	1934.41
3209.5	1934.05
3210	1941.08
3210.5	1949.38
3211	1949.69
3211.5	1941.78
3212	1934.35
3212.5	1932.92
3213	1932.66
3213.5	1925.84
3214	1913.3
3214.5	1904.28
3215	1905.28
3215.5	1912.67
3216	1917.86
3216.5	1917.52
3217	1915.87
3217.5	1917.43
3218	1920.64
3218.5	1920.65
3219	1916.46
3219.5	1912.35
3220	1911.58
3220.5	1911.83
3221	1908.71
3221.5	1902.4
3222	1897.84
3222.5	1898.75
3223	1903.71
3223.5	1908.97
3224	1912.25
3224.5	1912.56
3225	1908.92
3225.5	1902.2
3226	1896.95
3226.5	1897.63
3227	1902.42
3227.5	1903.99
3228	1897.79
3228.5	1887.65
3229	1881.5
3229.5	1882.86
3230	1888.29
3230.5	1891.91
3231	1890.25
3231.5	1883.38
3232	1873.87
3232.5	1865.8
3233	1862.75
3233.5	1865.18
3234	1869.85
3234.5	1872.65
3235	1871.68
3235.5	1867.83
3236	1863.37
3236.5	1860.87
3237	1862
3237.5	1865.92
3238	1869.42
3238.5	1870.42
3239	1871.24
3239.5	1876.07
3240	1884.4
3240.5	1889.14
3241	1883.77
3241.5	1870.42
3242	1858.37
3242.5	1854.24
3243	1855.81
3243.5	1856.65
3244	1854.03
3244.5	1849.85
3245	1845.53
3245.5	1840
3246	1833.51
3246.5	1829.44
3247	1829.84
3247.5	1831.31
3248	1828.67
3248.5	1822.24
3249	1818.13
3249.5	1820.84
3250	1827.97
3250.5	1833.72
3251	1835.38
3251.5	1834.22
3252	1831.61
3252.5	1827.43
3253	1822.55
3253.5	1820.05
3254	1821.95
3254.5	1825.65
3255	1825.69
3255.5	1819.66
3256	1811.29
3256.5	1807.01
3257	1809.61
3257.5	1816
3258	1820.72
3258.5	1820.68
3259	1816.64
3259.5	1810.94
3260	1805.06
3260.5	1798.86
3261	1791.93
3261.5	1785.59
3262	1783.33
3262.5	1787.68
3263	1795.54
3263.5	1799.2
3264	1794.33
3264.5	1785.97
3265	1782.97
3265.5	1787.02
3266	1790.98
3266.5	1789.49
3267	1786.13
3267.5	1786.98
3268	1790.74
3268.5	1790.85
3269	1785.64
3269.5	1780.21
3270	1777.85
3270.5	1775.23
3271	1768.81
3271.5	1761.49
3272	1759.02
3272.5	1762.13
3273	1765.92
3273.5	1765.92
3274	1761.87
3274.5	1756.21
3275	1751.8
3275.5	1750.79
3276	1753.04
3276.5	1755.61
3277	1755.86
3277.5	1754.98
3278	1756.17
3278.5	1759.58
3279	1761.88
3279.5	1761
3280	1758.63
3280.5	1756.53
3281	1753.34
3281.5	1747.55
3282	1741.83
3282.5	1741.13
3283	1746.4
3283.5	1752.31
3284	1752.49
3284.5	1745.68
3285	1736.25
3285.5	1729.27
3286	1726.06
3286.5	1724.64
3287	1723.73
3287.5	1724.75
3288	1728.84
3288.5	1733.42
3289	1734.3
3289.5	1731.34
3290	1729.37
3290.5	1732.05
3291	1737.09
3291.5	1739.67
3292	1738.9
3292.5	1737.66
3293	1736.33
3293.5	1730.83
3294	1719.33
3294.5	1707.81
3295	1704.97
3295.5	1711.54
3296	1718.55
3296.5	1717.93
3297	1712.35
3297.5	1711
3298	1716.99
3298.5	1723.24
3299	1722
3299.5	1714.27
3300	1706.4
3300.5	1700.97
3301	1696.41
3301.5	1693.17
3302	1693.97
3302.5	1697.11
3303	1696
3303.5	1688.33
3304	1681.64
3304.5	1684.69
3305	1695.6
3305.5	1703.32
3306	1700.47
3306.5	1690.4
3307	1681.54
3307.5	1678.51
3308	1680.1
3308.5	1682.41
3309	1681.76
3309.5	1676.65
3310	1669.34
3310.5	1664.53
3311	1664.87
3311.5	1668.45
3312	1671.51
3312.5	1672.28
3313	1670.88
3313.5	1667.33
3314	1661.91
3314.5	1656.74
3315	1654.64
3315.5	1656.44
3316	1660.49
3316.5	1664.56
3317	1666.7
3317.5	1665.18
3318	1659.69
3318.5	1652.88
3319	1648.79
3319.5	1648.95
3320	1650.86
3320.5	1650.9
3321	1648.3
3321.5	1645.77
3322	1647.01
3322.5	1653.1
3323	1660.44
3323.5	1662.77
3324	1657.15
3324.5	1647.77
3325	1641.39
3325.5	1638.99
3326	1635.97
3326.5	1630.85
3327	1629.11
3327.5	1634.97
3328	1642.89
3328.5	1643.14
3329	1634.95
3329.5	1628.24
3330	1630.73
3330.5	1638.29
3331	1641.34
3331.5	1637.17
3332	1631.4
3332.5	1629.02
3333	1629.04
3333.5	1628.14
3334	1625.57
3334.5	1622.87
3335	1621.46
3335.5	1622.3
3336	1625.72
3336.5	1629.86
3337	1630.76
3337.5	1626.38
3338	1619.56
3338.5	1615.45
3339	1615.8
3339.5	1617.29
3340	1615.9
3340.5	1611.61
3341	1607.84
3341.5	1606.93
3342	1607.57
3342.5	1607.14
3343	1605.08
3343.5	1602.72
3344	1600.61
3344.5	1598.16
3345	1596.05
3345.5	1596.58
3346	1600.36
3346.5	1604.3
3347	1605.05
3347.5	1603.46
3348	1603.25
3348.5	1605.06
3349	1604.66
3349.5	1598.42
3350	1589.13
3350.5	1583.99
3351	1586.72
3351.5	1593.49
3352	1596.99
3352.5	1593.67
3353	1586.31
3353.5	1579.76
3354	1576.37
3354.5	1575.24
3355	1575.09
3355.5	1576.65
3356	1581.64
3356.5	1589.3
3357	1595.02
3357.5	1593.81
3358	1585.48
3358.5	1575.48
3359	1569.51
3359.5	1567.99
3360	1567.08
3360.5	1564.49
3361	1561.93
3361.5	1561.55
3362	1562.68
3362.5	1563.43
3363	1563.89
3363.5	1565.51
3364	1568.11
3364.5	1569.4
3365	1568.08
3365.5	1565.88
3366	1565.52
3366.5	1567.27
3367	1568.41
3367.5	1566.63
3368	1563.18
3368.5	1560.8
3369	1558.99
3369.5	1553.96
3370	1545.08
3370.5	1538.83
3371	1542.12
3371.5	1552.39
3372	1559.7
3372.5	1559.38
3373	1556.78
3373.5	1557.27
3374	1557.58
3374.5	1552.83
3375	1547.45
3375.5	1549.58
3376	1557.58
3376.5	1560.98
3377	1554.95
3377.5	1546.54
3378	1543.72
3378.5	1544.75
3379	1542.91
3379.5	1537.27
3380	1533.33
3380.5	1534.51
3381	1538.21
3381.5	1540.31
3382	1539.73
3382.5	1537.53
3383	1534.95
3383.5	1533.63
3384	1534.93
3384.5	1537.51
3385	1537.23
3385.5	1531.59
3386	1524.08
3386.5	1521.37
3387	1525.3
3387.5	1529.33
3388	1525.92
3388.5	1516.51
3389	1510.11
3389.5	1512.27
3390	1518.31
3390.5	1519.64
3391	1514.28
3391.5	1508.19
3392	1507.11
3392.5	1510.63
3393	1515.13
3393.5	1519.16
3394	1523.36
3394.5	1526.64
3395	1525.92
3395.5	1520.05
3396	1512.01
3396.5	1505.96
3397	1503.11
3397.5	1501.82
3398	1501.62
3398.5	1504.5
3399	1510.49
3399.5	1514.45
3400	1511.31
3400.5	1503.86
3401	1500
3401.5	1502.1
3402	1503.44
3402.5	1497.84
3403	1488.96
3403.5	1485.52
3404	1489.41
3404.5	1493.72
3405	1492.49
3405.5	1487.22
3406	1482.08
3406.5	1477.81
3407	1474.41
3407.5	1474.96
3408	1482.07
3408.5	1491.83
3409	1496.17
3409.5	1492.15
3410	1485.58
3410.5	1483.02
3411	1482.71
3411.5	1477.92
3412	1468.25
3412.5	1461.52
3413	1463.43
3413.5	1469.27
3414	1470.2
3414.5	1465.41
3415	1462.51
3415.5	1465.81
3416	1470.05
3416.5	1469.3
3417	1466.2
3417.5	1466.33
3418	1468.81
3418.5	1468.34
3419	1464.68
3419.5	1463.02
3420	1464.53
3420.5	1463.48
3421	1456.47
3421.5	1449.44
3422	1449.38
3422.5	1454.14
3423	1456.11
3423.5	1453.22
3424	1450.7
3424.5	1451.99
3425	1453.04
3425.5	1448.34
3426	1439.29
3426.5	1433.12
3427	1433.42
3427.5	1436.85
3428	1438.78
3428.5	1438.92
3429	1439.26
3429.5	1439.12
3430	1436.28
3430.5	1432.33
3431	1432.01
3431.5	1435.14
3432	1434.96
3432.5	1428.4
3433	1422.3
3433.5	1424.24
3434	1430.38
3434.5	1429.97
3435	1421.45
3435.5	1415.61
3436	1420.11
3436.5	1427.81
3437	1428.45
3437.5	1422.75
3438	1419.09
3438.5	1420.37
3439	1421.45
3439.5	1418.7
3440	1415.35
3440.5	1415.87
3441	1419.26
3441.5	1421.72
3442	1421.74
3442.5	1419.9
3443	1416.25
3443.5	1411.3
3444	1408.55
3444.5	1412.13
3445	1419.96
3445.5	1422.36
3446	1412.69
3446.5	1396.87
3447	1388.52
3447.5	1393.39
3448	1402.56
3448.5	1404.01
3449	1397.4
3449.5	1392.29
3450	1392.8
3450.5	1392.84
3451	1387.47
3451.5	1381.22
3452	1381.75
3452.5	1389.37
3453	1396.93
3453.5	1398.57
3454	1394.87
3454.5	1389.66
3455	1384.7
3455.5	1379.61
3456	1374.7
3456.5	1371.99
3457	1373.22
3457.5	1376.99
3458	1379.18
3458.5	1376.88
3459	1370.84
3459.5	1363.85
3460	1358.99
3460.5	1359.49
3461	1366.95
3461.5	1377.11
3462	1380.5
3462.5	1372.21
3463	1359.79
3463.5	1354.2
3464	1356.76
3464.5	1358.83
3465	1354.19
3465.5	1346.03
3466	1340.45
3466.5	1338.67
3467	1338.63
3467.5	1340.14
3468	1343.32
3468.5	1345.75
3469	1345.1
3469.5	1343.22
3470	1344.29
3470.5	1349.51
3471	1355.71
3471.5	1359.86
3472	1361.58
3472.5	1361.93
3473	1361.14
3473.5	1357.72
3474	1350.11
3474.5	1339.71
3475	1331.93
3475.5	1331.29
3476	1336.7
3476.5	1342.59
3477	1344.99
3477.5	1344.52
3478	1343.19
3478.5	1341.31
3479	1339.34
3479.5	1339.5
3480	1342.29
3480.5	1343.51
3481	1338.7
3481.5	1330.35
3482	1327.16
3482.5	1333.15
3483	1341.44
3483.5	1342.28
3484	1334.68
3484.5	1326.88
3485	1325.39
3485.5	1327.38
3486	1326.08
3486.5	1321.1
3487	1317.65
3487.5	1318.3
3488	1320.22
3488.5	1320.54
3489	1320.33
3489.5	1321.33
3490	1321.3
3490.5	1317.09
3491	1310.55
3491.5	1308.02
3492	1312.9
3492.5	1320.71
3493	1323.27
3493.5	1318.08
3494	1310.5
3494.5	1305.94
3495	1304.1
3495.5	1301.7
3496	1298.63
3496.5	1298.07
3497	1301.34
3497.5	1305.87
3498	1309.32
3498.5	1311.4
3499	1311.72
3499.5	1309.09
3500	1304.62
3500.5	1303.17
3501	1308.15
3501.5	1317.2
3502	1324.35
3502.5	1325.58
3503	1320.86
3503.5	1312.34
3504	1303.07
3504.5	1296.83
3505	1295.8
3505.5	1297.71
3506	1297.09
3506.5	1291.37
3507	1284.39
3507.5	1281.41
3508	1281.56
3508.5	1279.68
3509	1274.22
3509.5	1269.43
3510	1269.29
3510.5	1272.59
3511	1276.35
3511.5	1280.42
3512	1284.74
3512.5	1285.61
3513	1279.33
3513.5	1268.35
3514	1260.2
3514.5	1259.11
3515	1263.02
3515.5	1268.06
3516	1272.11
3516.5	1274.27
3517	1274.02
3517.5	1271.73
3518	1268.24
3518.5	1263.79
3519	1259.64
3519.5	1259.61
3520	1266.67
3520.5	1277.16
3521	1281.46
3521.5	1274.25
3522	1260.68
3522.5	1251.58
3523	1252.73
3523.5	1259.7
3524	1262.96
3524.5	1258.55
3525	1251.16
3525.5	1248.2
3526	1251.74
3526.5	1256.8
3527	1257.48
3527.5	1254.14
3528	1250.99
3528.5	1249.48
3529	1247.3
3529.5	1243.57
3530	1241.14
3530.5	1241.1
3531	1239.38
3531.5	1232.9
3532	1225.59
3532.5	1223.93
3533	1227.59
3533.5	1229.37
3534	1226.27
3534.5	1223.92
3535	1227.99
3535.5	1235
3536	1235.46
3536.5	1226.03
3537	1215.87
3537.5	1215.68
3538	1225.15
3538.5	1232.79
3539	1229.06
3539.5	1216.98
3540	1206.85
3540.5	1202.66
3541	1201.53
3541.5	1202.02
3542	1206.35
3542.5	1213.72
3543	1218.4
3543.5	1218.09
3544	1216.67
3544.5	1217.13
3545	1216.92
3545.5	1213.41
3546	1209.63
3546.5	1209.28
3547	1211.1
3547.5	1211.41
3548	1209.31
3548.5	1206.71
3549	1205.04
3549.5	1204.41
3550	1204.42
3550.5	1204.43
3551	1204.33
3551.5	1204.87
3552	1205.21
3552.5	1202.61
3553	1197.26
3553.5	1194.45
3554	1197.48
3554.5	1200.43
3555	1196.09
3555.5	1187.55
3556	1184.2
3556.5	1187.84
3557	1190.03
3557.5	1185.86
3558	1181.57
3558.5	1184.01
3559	1190.98
3559.5	1195.22
3560	1193.81
3560.5	1189.78
3561	1185.9
3561.5	1183.07
3562	1181.54
3562.5	1180.46
3563	1177.4
3563.5	1172.19
3564	1168.76
3564.5	1170.75
3565	1175.99
3565.5	1178.2
3566	1175.07
3566.5	1170.33
3567	1168.04
3567.5	1168.43
3568	1170.03
3568.5	1173.01
3569	1177.43
3569.5	1180.32
3570	1178.18
3570.5	1172.13
3571	1168.04
3571.5	1169.19
3572	1172.08
3572.5	1171.6
3573	1167.83
3573.5	1165.48
3574	1167.1
3574.5	1169.42
3575	1168.31
3575.5	1163.51
3576	1157.98
3576.5	1154.3
3577	1153.06
3577.5	1153.83
3578	1155.42
3578.5	1156.15
3579	1156.01
3579.5	1157.11
3580	1159.8
3580.5	1160.43
3581	1156.19
3581.5	1150.59
3582	1150.32
3582.5	1155.65
3583	1160.83
3583.5	1161.9
3584	1159.68
3584.5	1155.17
3585	1148.52
3585.5	1142.94
3586	1142.73
3586.5	1145.78
3587	1144.53
3587.5	1138.5
3588	1136.1
3588.5	1141.49
3589	1148.19
3589.5	1149.23
3590	1146.68
3590.5	1144.47
3591	1141.1
3591.5	1135.1
3592	1130.6
3592.5	1131.09
3593	1132.5
3593.5	1129.57
3594	1123.58
3594.5	1119.66
3595	1119.24
3595.5	1119.3
3596	1117.57
3596.5	1114.65
3597	1113.26
3597.5	1115.76
3598	1120.44
3598.5	1122.24
3599	1118.95
3599.5	1115.06
3600	1115.46
3600.5	1117.01
3601	1113.95
3601.5	1107.94
3602	1106.85
3602.5	1112.99
3603	1118.98
3603.5	1118.44
3604	1112.58
3604.5	1105.64
3605	1098.14
3605.5	1089.03
3606	1081.36
3606.5	1080.19
3607	1085.46
3607.5	1090.48
3608	1090.61
3608.5	1088.26
3609	1087.42
3609.5	1086.86
3610	1083.11
3610.5	1078.42
3611	1078.4
3611.5	1083.12
3612	1085.78
3612.5	1082.84
3613	1078.8
3613.5	1078.32
3614	1079.67
3614.5	1078.6
3615	1075.83
3615.5	1075.04
3616	1076.76
3616.5	1077.89
3617	1076.49
3617.5	1074.71
3618	1075.45
3618.5	1078.71
3619	1081.26
3619.5	1080.35
3620	1077.47
3620.5	1076.36
3621	1077.98
3621.5	1078.88
3622	1076.05
3622.5	1070.96
3623	1066.44
3623.5	1062.71
3624	1058.7
3624.5	1055.82
3625	1056.06
3625.5	1057.85
3626	1057.05
3626.5	1053.03
3627	1050.86
3627.5	1055.2
3628	1064.3
3628.5	1070.12
3629	1066.46
3629.5	1055.32
3630	1044.36
3630.5	1039.95
3631	1042.82
3631.5	1049.65
3632	1056.71
3632.5	1059.63
3633	1054.74
3633.5	1044.32
3634	1035.85
3634.5	1034.21
3635	1036.55
3635.5	1036.86
3636	1034.51
3636.5	1033.03
3637	1033.31
3637.5	1031.9
3638	1027.08
3638.5	1022.72
3639	1024.12
3639.5	1031.88
3640	1040.62
3640.5	1044.45
3641	1042.31
3641.5	1036.98
3642	1031.45
3642.5	1027.55
3643	1026.74
3643.5	1029.01
3644	1030.9
3644.5	1028.42
3645	1023.21
3645.5	1020.77
3646	1023.23
3646.5	1026.31
3647	1025.23
3647.5	1020.37
3648	1015.3
3648.5	1012.89
3649	1013.7
3649.5	1015.94
3650	1016.17
3650.5	1011.78
3651	1004.07
3651.5	997.356
3652	994.333
3652.5	994.78
3653	996.851
3653.5	998.303
3654	998.181
3654.5	998.055
3655	1000.04
3655.5	1001.92
3656	998.946
3656.5	991.863
3657	988.534
3657.5	993.547
3658	999.723
3658.5	998.125
3659	989.789
3659.5	984.13
3660	985.242
3660.5	988.714
3661	990.508
3661.5	993.06
3662	999.665
3662.5	1006.6
3663	1005.49
3663.5	992.902
3664	977.445
3664.5	970.276
3665	972.794
3665.5	976.563
3666	975.801
3666.5	974.469
3667	976.876
3667.5	979.958
3668	978.663
3668.5	974.807
3669	972.921
3669.5	973.093
3670	972.328
3670.5	970.81
3671	970.927
3671.5	972.697
3672	973.394
3672.5	970.99
3673	965.742
3673.5	960.154
3674	957.988
3674.5	959.891
3675	961.845
3675.5	960.102
3676	956.861
3676.5	956.836
3677	959.007
3677.5	958.247
3678	954.18
3678.5	953.327
3679	959.107
3679.5	966.532
3680	968.113
3680.5	963.75
3681	959.525
3681.5	960.126
3682	964.476
3682.5	967.134
3683	963.88
3683.5	955.316
3684	946.89
3684.5	943.515
3685	944.494
3685.5	945.863
3686	945.981
3686.5	946.787
3687	949.178
3687.5	950.959
3688	949.092
3688.5	943.349
3689	937.023
3689.5	935.286
3690	940.405
3690.5	946.818
3691	947.281
3691.5	941.172
3692	934.712
3692.5	932.009
3693	931.963
3693.5	933.341
3694	935.823
3694.5	936.253
3695	931.205
3695.5	923.269
3696	920.101
3696.5	924.302
3697	930.621
3697.5	931.757
3698	926.205
3698.5	919.772
3699	919.294
3699.5	925.558
3700	931.506
