#Imported=	16.12.2021 13:56:07
50	19.4583
50.5	19.3885
51	18.881
51.5	18.1919
52	17.5884
52.5	17.2257
53	17.1731
53.5	17.3839
54	17.694
54.5	17.9914
55	18.2645
55.5	18.5834
56	19.0343
56.5	19.6593
57	20.3265
57.5	20.7801
58	20.7339
58.5	20.1714
59	19.2028
59.5	18.1852
60	17.6352
60.5	17.9797
61	19.3432
61.5	21.3029
62	23.4278
62.5	25.1464
63	26.1404
63.5	26.322
64	25.9957
64.5	25.6632
65	25.6478
65.5	26.2277
66	27.3104
66.5	28.7614
67	30.3237
67.5	31.8069
68	33.1435
68.5	34.2967
69	35.3256
69.5	36.2631
70	37.1382
70.5	37.9994
71	38.8774
71.5	39.8211
72	40.8558
72.5	42.0054
73	43.3278
73.5	44.7816
74	46.3424
74.5	47.9626
75	49.5462
75.5	51.0022
76	52.1811
76.5	53.0892
77	53.7966
77.5	54.389
78	54.9793
78.5	55.6033
79	56.2004
79.5	56.6005
80	56.6739
80.5	56.2884
81	55.5194
81.5	54.4798
82	53.2856
82.5	52.0644
83	50.8522
83.5	49.6448
84	48.4678
84.5	47.3995
85	46.6172
85.5	46.2784
86	46.4406
86.5	47.0149
87	47.7226
87.5	48.2972
88	48.4734
88.5	48.1635
89	47.451
89.5	46.5819
90	45.8716
90.5	45.5322
91	45.7757
91.5	46.654
92	48.1101
92.5	50.1009
93	52.4074
93.5	54.841
94	57.2458
94.5	59.4728
95	61.4332
95.5	62.9799
96	64.0292
96.5	64.5682
97	64.4888
97.5	63.7708
98	62.5448
98.5	60.9557
99	59.3351
99.5	58.01
100	57.2049
100.5	56.988
101	57.1849
101.5	57.5857
102	57.8826
102.5	57.8858
103	57.5978
103.5	57.1742
104	56.8506
104.5	56.8375
105	57.2854
105.5	58.1059
106	59.0926
106.5	59.9743
107	60.5935
107.5	60.9002
108	60.9987
108.5	61.1785
109	61.7914
109.5	63.1265
110	65.1034
110.5	67.5744
111	70.2172
111.5	72.6237
112	74.4472
112.5	75.4486
113	75.9025
113.5	76.0388
114	76.1528
114.5	76.4697
115	77.0731
115.5	77.9457
116	78.8759
116.5	79.7507
117	80.518
117.5	81.2347
118	81.9651
118.5	82.7591
119	83.5444
119.5	84.1791
120	84.4485
120.5	84.3413
121	83.907
121.5	83.3026
122	82.8266
122.5	82.7003
123	83.0361
123.5	83.6294
124	84.2627
124.5	84.6294
125	84.5654
125.5	84.0014
126	82.976
126.5	81.7775
127	80.5886
127.5	79.5989
128	78.8979
128.5	78.5342
129	78.6122
129.5	79.0512
130	79.7335
130.5	80.51
131	81.1621
131.5	81.5224
132	81.4204
132.5	80.9164
133	80.224
133.5	79.6264
134	79.3462
134.5	79.4818
135	80.098
135.5	81.0781
136	82.3073
136.5	83.713
137	85.2271
137.5	86.7757
138	88.1999
138.5	89.2627
139	89.7387
139.5	89.2709
140	88.0069
140.5	86.322
141	84.7034
141.5	83.7003
142	83.6203
142.5	84.6703
143	86.5894
143.5	88.7446
144	90.5737
144.5	91.6497
145	91.8675
145.5	91.2082
146	89.9349
146.5	88.4629
147	87.1772
147.5	86.3553
148	86.0591
148.5	86.293
149	86.8829
149.5	87.5395
150	87.9499
150.5	87.9362
151	87.5828
151.5	87.0576
152	86.6262
152.5	86.4622
153	86.6109
153.5	86.8918
154	86.9821
154.5	86.673
155	85.9226
155.5	84.9531
156	84.0168
156.5	83.3791
157	83.0761
157.5	82.9507
158	82.7503
158.5	82.3608
159	81.8235
159.5	81.3547
160	81.1954
160.5	81.5293
161	82.3034
161.5	83.1638
162	83.8273
162.5	84.0195
163	83.7556
163.5	83.1222
164	82.3087
164.5	81.585
165	81.1137
165.5	81.0769
166	81.4744
166.5	82.2981
167	83.46
167.5	84.6196
168	85.4066
168.5	85.4178
169	84.7607
169.5	83.669
170	82.6246
170.5	82.1188
171	82.423
171.5	83.6765
172	85.2145
172.5	86.58
173	87.3055
173.5	87.3759
174	86.9205
174.5	86.1572
175	85.3774
175.5	84.6734
176	84.051
176.5	83.5129
177	83.1342
177.5	83.1011
178	83.4743
178.5	84.2109
179	85.0473
179.5	85.6045
180	85.6811
180.5	85.1959
181	84.4443
181.5	83.7907
182	83.7159
182.5	84.4909
183	86.0559
183.5	88.3535
184	91.131
184.5	94.2116
185	97.5041
185.5	100.901
186	104.314
186.5	107.65
187	110.879
187.5	114.065
188	117.388
188.5	121.114
189	125.486
189.5	130.852
190	137.278
190.5	144.358
191	151.523
191.5	157.86
192	162.529
192.5	164.457
193	163.158
193.5	158.87
194	152.305
194.5	144.796
195	137.434
195.5	130.918
196	125.404
196.5	120.495
197	115.703
197.5	110.63
198	105.422
198.5	100.525
199	96.4717
199.5	93.4184
200	91.3126
200.5	89.6866
201	87.8936
201.5	85.5569
202	82.745
202.5	79.8844
203	77.4461
203.5	75.8529
204	75.1056
204.5	75.0887
205	75.4795
205.5	75.8716
206	76.0794
206.5	75.9756
207	75.5527
207.5	74.771
208	73.6005
208.5	72.1676
209	70.6827
209.5	69.4952
210	68.8311
210.5	68.8424
211	69.5728
211.5	70.7277
212	72.0556
212.5	73.2497
213	74.1666
213.5	74.7607
214	74.9563
214.5	74.7593
215	74.0787
215.5	72.7335
216	70.8148
216.5	68.4772
217	66.1386
217.5	64.2482
218	63.131
218.5	63.1295
219	63.9649
219.5	65.34
220	66.7645
220.5	67.7258
221	68.0472
221.5	67.6869
222	67.0366
222.5	66.431
223	66.2655
223.5	66.6291
224	67.4486
224.5	68.4168
225	69.157
225.5	69.4889
226	69.3365
226.5	68.9514
227	68.5997
227.5	68.595
228	69.0221
228.5	69.7388
229	70.4432
229.5	70.844
230	70.8029
230.5	70.2806
231	69.5305
231.5	68.8305
232	68.5182
232.5	68.6506
233	69.0948
233.5	69.6238
234	69.9499
234.5	69.8969
235	69.3381
235.5	68.3909
236	67.264
236.5	66.2132
237	65.4204
237.5	64.9499
238	64.8511
238.5	65.0707
239	65.5505
239.5	66.305
240	67.3394
240.5	68.612
241	70.0579
241.5	71.5181
242	72.8244
242.5	73.8124
243	74.4612
243.5	74.9384
244	75.6235
244.5	77.0244
245	79.421
245.5	83.0545
246	87.7847
246.5	93.1314
247	98.5698
247.5	103.472
248	107.393
248.5	110.057
249	111.478
249.5	111.889
250	111.317
250.5	109.787
251	107.434
251.5	104.279
252	100.51
252.5	96.5899
253	92.9664
253.5	90.014
254	87.7408
254.5	86.012
255	84.4708
255.5	82.7341
256	80.603
256.5	78.1932
257	75.9353
257.5	74.1916
258	73.1959
258.5	72.7155
259	72.4106
259.5	71.8057
260	70.6788
260.5	69.1056
261	67.5785
261.5	66.5872
262	66.4248
262.5	67.1846
263	68.4287
263.5	69.7646
264	70.7796
264.5	71.3858
265	71.7277
265.5	72.0521
266	72.4909
266.5	73.005
267	73.4055
267.5	73.5409
268	73.3833
268.5	73.1118
269	73.147
269.5	73.7849
270	75.2828
270.5	77.3343
271	79.5955
271.5	81.532
272	82.7961
272.5	83.2492
273	82.8888
273.5	82.3012
274	81.891
274.5	82.0437
275	82.7345
275.5	83.7653
276	84.7412
276.5	85.2514
277	85.0501
277.5	84.0653
278	82.7444
278.5	81.4626
279	80.582
279.5	80.1587
280	80.0446
280.5	79.9226
281	79.4192
281.5	78.2804
282	76.3928
282.5	73.9928
283	71.3396
283.5	68.7265
284	66.4466
284.5	64.7047
285	63.7567
285.5	63.6096
286	64.0948
286.5	64.8849
287	65.5167
287.5	65.6531
288	65.0206
288.5	63.7037
289	61.9997
289.5	60.287
290	58.9741
290.5	58.2294
291	58.0587
291.5	58.2672
292	58.6231
292.5	58.9426
293	59.0865
293.5	59.0028
294	58.6459
294.5	58.0333
295	57.2673
295.5	56.461
296	55.7537
296.5	55.2365
297	54.9797
297.5	54.9856
298	55.1929
298.5	55.5832
299	56.1619
299.5	56.9163
300	57.8616
300.5	58.9765
301	60.1903
301.5	61.4474
302	62.6886
302.5	63.8666
303	64.9071
303.5	65.6432
304	65.9702
304.5	65.7594
305	64.9835
305.5	63.8748
306	62.6944
306.5	61.7785
307	61.2845
307.5	61.2258
308	61.4118
308.5	61.5271
309	61.4428
309.5	61.2083
310	61.0646
310.5	61.2649
311	62.0491
311.5	63.3219
312	64.9166
312.5	66.5388
313	67.9616
313.5	69.1162
314	69.9859
314.5	70.6504
315	71.0992
315.5	71.2266
316	71.0243
316.5	70.5085
317	69.8223
317.5	69.2734
318	69.041
318.5	69.2095
319	69.5103
319.5	69.6297
320	69.1046
320.5	67.8743
321	66.0795
321.5	64.2596
322	63.1656
322.5	63.2699
323	64.9887
323.5	67.7947
324	71.0913
324.5	74.0268
325	75.9763
325.5	76.6935
326	76.1469
326.5	75.1186
327	74.246
327.5	74.0921
328	74.7211
328.5	75.952
329	77.4501
329.5	78.7728
330	79.6768
330.5	80.0295
331	80.0456
331.5	80.0228
332	80.2485
332.5	80.8734
333	81.9151
333.5	83.3404
334	84.9462
334.5	86.5385
335	87.9206
335.5	88.9984
336	89.832
336.5	90.5772
337	91.4792
337.5	92.7348
338	94.5337
338.5	96.8392
339	99.4488
339.5	102.047
340	104.196
340.5	105.568
341	105.929
341.5	105.388
342	104.277
342.5	102.948
343	101.799
343.5	101.024
344	100.642
344.5	100.396
345	99.9066
345.5	98.8374
346	97.1223
346.5	94.9929
347	92.753
347.5	90.7538
348	89.1447
348.5	87.9212
349	86.8794
349.5	85.7768
350	84.5104
350.5	83.2381
351	82.2369
351.5	81.7822
352	81.9941
352.5	82.6465
353	83.4324
353.5	83.9519
354	84.0168
354.5	83.6273
355	83.0523
355.5	82.6366
356	82.5268
356.5	82.6375
357	82.6479
357.5	82.2215
358	81.0722
358.5	79.3424
359	77.3155
359.5	75.5223
360	74.386
360.5	74.0534
361	74.4608
361.5	75.1633
362	75.8098
362.5	76.0656
363	75.9037
363.5	75.42
364	74.8362
364.5	74.4159
365	74.308
365.5	74.6052
366	75.2235
366.5	76.1347
367	77.3411
367.5	78.713
368	80.1006
368.5	81.1623
369	81.5943
369.5	81.1082
370	79.4372
370.5	77.1271
371	74.6978
371.5	72.9222
372	72.1953
372.5	72.6148
373	74.0391
373.5	75.7313
374	77.1364
374.5	77.7415
375	77.6474
375.5	77.2251
376	76.8975
376.5	76.8907
377	77.1581
377.5	77.4387
378	77.4054
378.5	76.8954
379	75.886
379.5	74.6932
380	73.6465
380.5	73.0344
381	72.8454
381.5	72.9452
382	73.1529
382.5	73.2686
383	73.185
383.5	72.8147
384	72.1807
384.5	71.341
385	70.3838
385.5	69.4974
386	68.8434
386.5	68.5712
387	68.6383
387.5	68.8672
388	68.9902
388.5	68.744
389	68.0263
389.5	66.831
390	65.3858
390.5	63.9643
391	62.7845
391.5	61.9214
392	61.3447
392.5	61.0592
393	61.057
393.5	61.3143
394	61.8017
394.5	62.3552
395	62.7383
395.5	62.6664
396	61.9997
396.5	60.9272
397	59.7068
397.5	58.6569
398	57.9121
398.5	57.4416
399	57.0341
399.5	56.4876
400	55.7484
400.5	55.0006
401	54.5778
401.5	54.7738
402	55.642
402.5	56.8998
403	58.2576
403.5	59.4467
404	60.4274
404.5	61.3147
405	62.3329
405.5	63.613
406	65.1767
406.5	66.9209
407	68.6634
407.5	70.2911
408	71.6669
408.5	72.6599
409	73.0163
409.5	72.3476
410	70.64
410.5	67.9557
411	64.6323
411.5	61.3423
412	58.6244
412.5	56.8303
413	55.676
413.5	54.8549
414	54.0348
414.5	53.081
415	52.0735
415.5	51.2452
416	50.7278
416.5	50.5263
417	50.519
417.5	50.4776
418	50.3209
418.5	50.1227
419	50.0581
419.5	50.2538
420	50.8084
420.5	51.586
421	52.4571
421.5	53.2635
422	53.912
422.5	54.3621
423	54.5618
423.5	54.5537
424	54.3822
424.5	54.0845
425	53.7372
425.5	53.3701
426	52.9643
426.5	52.4813
427	51.9019
427.5	51.273
428	50.7548
428.5	50.5302
429	50.8537
429.5	51.6525
430	52.7289
430.5	53.7899
431	54.5627
431.5	54.9492
432	54.9738
432.5	54.8827
433	54.8911
433.5	55.1432
434	55.5588
434.5	55.9325
435	55.9728
435.5	55.5912
436	54.8995
436.5	54.1311
437	53.5752
437.5	53.3582
438	53.453
438.5	53.5899
439	53.4916
439.5	52.9543
440	52.0813
440.5	51.2203
441	50.8628
441.5	51.307
442	52.4959
442.5	54.2226
443	56.0449
443.5	57.5904
444	58.5829
444.5	58.939
445	58.7511
445.5	58.0577
446	56.9775
446.5	55.724
447	54.6157
447.5	54.0832
448	54.3794
448.5	55.661
449	57.7047
449.5	59.9269
450	61.6912
450.5	62.3856
451	61.9021
451.5	60.3198
452	58.1017
452.5	55.9377
453	54.4035
453.5	53.8731
454	54.2254
454.5	55.2659
455	56.6185
455.5	57.8691
456	58.76
456.5	59.1565
457	59.1842
457.5	58.9491
458	58.5197
458.5	57.9064
459	57.0236
459.5	55.8573
460	54.6393
460.5	53.7068
461	53.5432
461.5	54.2488
462	55.7447
462.5	57.6488
463	59.3269
463.5	60.3361
464	60.3663
464.5	59.7638
465	58.9546
465.5	58.553
466	58.8305
466.5	59.8477
467	61.5454
467.5	63.5225
468	65.501
468.5	67.1571
469	68.3741
469.5	69.1211
470	69.4408
470.5	69.6423
471	69.9878
471.5	70.8265
472	72.1719
472.5	73.929
473	75.9253
473.5	77.9022
474	79.7214
474.5	81.2561
475	82.4747
475.5	83.2792
476	83.3753
476.5	82.6419
477	81.0154
477.5	78.5012
478	75.6023
478.5	72.8394
479	70.7546
479.5	69.4868
480	68.9185
480.5	68.7962
481	68.6947
481.5	68.3699
482	67.7135
482.5	66.8595
483	65.9741
483.5	65.1756
484	64.438
484.5	63.6266
485	62.5562
485.5	61.1745
486	59.5528
486.5	57.8215
487	56.1607
487.5	54.6856
488	53.5004
488.5	52.6453
489	52.1454
489.5	52.1001
490	52.5078
490.5	53.2501
491	54.1187
491.5	54.7571
492	54.931
492.5	54.5135
493	53.6762
493.5	52.7677
494	52.1627
494.5	52.128
495	52.6445
495.5	53.573
496	54.5946
496.5	55.4278
497	55.8995
497.5	56.0169
498	55.9627
498.5	55.9368
499	56.1003
499.5	56.4674
500	56.9845
500.5	57.5279
501	57.9891
501.5	58.3102
502	58.4909
502.5	58.5835
503	58.6068
503.5	58.5468
504	58.3952
504.5	58.1755
505	58.0331
505.5	58.1793
506	58.8142
506.5	60.0293
507	61.5672
507.5	63.0827
508	64.0963
508.5	64.4032
509	63.9761
509.5	63.0395
510	62.0863
510.5	61.4953
511	61.6007
511.5	62.3417
512	63.6193
512.5	65.246
513	66.9166
513.5	68.4136
514	69.4475
514.5	69.9342
515	69.8475
515.5	69.2634
516	68.5271
516.5	67.877
517	67.487
517.5	67.2455
518	66.962
518.5	66.384
519	65.528
519.5	64.5686
520	63.8537
520.5	63.5224
521	63.5038
521.5	63.5047
522	63.187
522.5	62.4174
523	61.2833
523.5	60.2204
524	59.5981
524.5	59.7523
525	60.4819
525.5	61.4384
526	62.1098
526.5	62.165
527	61.5318
527.5	60.3598
528	59.0918
528.5	58.0653
529	57.6069
529.5	57.7416
530	58.3638
530.5	59.3015
531	60.2537
531.5	61.0132
532	61.4192
532.5	61.5096
533	61.3929
533.5	61.1629
534	60.8656
534.5	60.433
535	59.7035
535.5	58.6287
536	57.3086
536.5	55.9845
537	54.993
537.5	54.5499
538	54.7917
538.5	55.5278
539	56.4311
539.5	57.1554
540	57.4544
540.5	57.3078
541	56.8056
541.5	56.2133
542	55.7876
542.5	55.7625
543	56.2001
543.5	56.9983
544	58.0103
544.5	58.9758
545	59.6543
545.5	59.8014
546	59.2883
546.5	58.2028
547	56.6743
547.5	55.0032
548	53.5205
548.5	52.528
549	52.214
549.5	52.4825
550	53.1668
550.5	53.9226
551	54.4219
551.5	54.4634
552	54.0234
552.5	53.3345
553	52.6592
553.5	52.2941
554	52.3422
554.5	52.7962
555	53.4898
555.5	54.1505
556	54.5696
556.5	54.6083
557	54.3603
557.5	53.975
558	53.6905
558.5	53.6814
559	54.0228
559.5	54.6596
560	55.3645
560.5	55.929
561	56.1171
561.5	55.8922
562	55.2679
562.5	54.3305
563	53.3085
563.5	52.3836
564	51.7961
564.5	51.6479
565	52.0248
565.5	53.0103
566	54.3837
566.5	55.9328
567	57.3019
567.5	58.1936
568	58.4375
568.5	57.8586
569	56.7129
569.5	55.2036
570	53.6056
570.5	52.2267
571	51.2886
571.5	51.0886
572	51.5754
572.5	52.6427
573	54.0424
573.5	55.2923
574	56.0139
574.5	55.8163
575	54.859
575.5	53.4618
576	52.1429
576.5	51.3233
577	51.0931
577.5	51.3083
578	51.519
578.5	51.4071
579	50.7934
579.5	49.9095
580	49.0988
580.5	48.7809
581	49.0986
581.5	49.9616
582	51.155
582.5	52.3257
583	53.256
583.5	53.8012
584	53.9955
584.5	53.9014
585	53.5074
585.5	52.8453
586	51.9691
586.5	50.9635
587	50.0049
587.5	49.2536
588	48.8693
588.5	48.8717
589	49.1711
589.5	49.6559
590	50.1586
590.5	50.5641
591	50.8092
591.5	50.9318
592	51.0389
592.5	51.2707
593	51.7428
593.5	52.464
594	53.389
594.5	54.3814
595	55.3275
595.5	56.2073
596	57.1086
596.5	58.1447
597	59.3975
597.5	60.8355
598	62.328
598.5	63.7694
599	65.1503
599.5	66.5953
600	68.2944
600.5	70.3838
601	72.7521
601.5	75.1444
602	77.1439
602.5	78.4855
603	79.0031
603.5	78.7306
604	77.9842
604.5	76.987
605	75.9418
605.5	74.9627
606	74.1033
606.5	73.3917
607	72.7728
607.5	72.1526
608	71.3642
608.5	70.3158
609	69.004
609.5	67.5956
610	66.3946
610.5	65.6756
611	65.6692
611.5	66.1948
612	67.0177
612.5	67.7875
613	68.2431
613.5	68.2708
614	67.833
614.5	67.1151
615	66.248
615.5	65.3806
616	64.6489
616.5	64.1631
617	64.0701
617.5	64.3166
618	64.8301
618.5	65.4739
619	66.0453
619.5	66.422
620	66.5001
620.5	66.3727
621	66.1573
621.5	66.0514
622	66.2117
622.5	66.7214
623	67.6117
623.5	68.6772
624	69.7315
624.5	70.6147
625	71.3977
625.5	72.3189
626	73.8012
626.5	75.9906
627	78.7903
627.5	81.8466
628	84.5922
628.5	86.6719
629	87.8875
629.5	88.5704
630	89.0935
630.5	89.748
631	90.5411
631.5	91.2676
632	91.6168
632.5	91.4977
633	91.0431
633.5	90.4997
634	90.0923
634.5	89.8171
635	89.4619
635.5	88.7658
636	87.6573
636.5	86.268
637	84.9787
637.5	84.0547
638	83.5641
638.5	83.2183
639	82.6407
639.5	81.4926
640	79.7497
640.5	77.6642
641	75.5541
641.5	73.6977
642	72.1461
642.5	70.8266
643	69.5709
643.5	68.2782
644	66.95
644.5	65.6558
645	64.4398
645.5	63.2966
646	62.1753
646.5	61.0551
647	59.9998
647.5	59.1479
648	58.5849
648.5	58.3346
649	58.2494
649.5	58.075
650	57.5897
650.5	56.6765
651	55.4555
651.5	54.1208
652	52.9739
652.5	52.2336
653	52.0542
653.5	52.4418
654	53.122
654.5	53.7742
655	53.9808
655.5	53.5624
656	52.5057
656.5	51.0756
657	49.7555
657.5	48.9065
658	48.7073
658.5	48.8606
659	49.0008
659.5	48.7541
660	48.1533
660.5	47.4895
661	47.3001
661.5	47.8312
662	49.0138
662.5	50.3814
663	51.3279
663.5	51.5133
664	50.8391
664.5	49.7808
665	48.7193
665.5	47.9676
666	47.482
666.5	47.119
667	46.7366
667.5	46.3492
668	46.0779
668.5	46.0844
669	46.2801
669.5	46.4785
670	46.3885
670.5	45.9649
671	45.352
671.5	44.9141
672	44.9324
672.5	45.4634
673	46.3354
673.5	47.1137
674	47.5252
674.5	47.4508
675	47.1717
675.5	46.9746
676	47.0665
676.5	47.2965
677	47.3703
677.5	46.8883
678	45.781
678.5	44.2145
679	42.5494
679.5	41.2299
680	40.5093
680.5	40.5624
681	41.2011
681.5	42.1947
682	43.3233
682.5	44.3536
683	45.1268
683.5	45.448
684	45.2504
684.5	44.5575
685	43.4328
685.5	42.1449
686	40.9768
686.5	40.2323
687	40.0497
687.5	40.3798
688	41.1025
688.5	41.9337
689	42.6257
689.5	42.9742
690	42.9245
690.5	42.5554
691	41.9591
691.5	41.2783
692	40.6029
692.5	39.9649
693	39.3615
693.5	38.7924
694	38.309
694.5	38.0159
695	38.0076
695.5	38.3925
696	39.1653
696.5	40.1659
697	41.1913
697.5	41.9953
698	42.466
698.5	42.5927
699	42.5305
699.5	42.503
700	42.6543
700.5	42.9782
701	43.2924
701.5	43.3756
702	43.072
702.5	42.4958
703	41.8863
703.5	41.5908
704	41.7587
704.5	42.3765
705	43.23
705.5	44.038
706	44.6915
706.5	45.2793
707	46.0047
707.5	46.9739
708	48.0528
708.5	48.8532
709	48.9879
709.5	48.1811
710	46.7606
710.5	45.1644
711	43.9919
711.5	43.5082
712	43.7257
712.5	44.451
713	45.2876
713.5	46.0432
714	46.6375
714.5	47.1335
715	47.5578
715.5	47.8623
716	48.0044
716.5	47.9599
717	47.7487
717.5	47.4911
718	47.2598
718.5	47.1071
719	47.0308
719.5	47.0482
720	47.2209
720.5	47.5305
721	47.8992
721.5	48.1125
722	47.984
722.5	47.4409
723	46.5532
723.5	45.6537
724	44.9864
724.5	44.6844
725	44.5337
725.5	44.2691
726	43.6452
726.5	42.7577
727	41.8703
727.5	41.3731
728	41.4281
728.5	41.9955
729	42.9537
729.5	44.0887
730	45.3064
730.5	46.5343
731	47.6152
731.5	48.3349
732	48.4076
732.5	47.8839
733	47.063
733.5	46.427
734	46.3638
734.5	46.9051
735	47.8186
735.5	48.6399
736	49.1065
736.5	49.1806
737	49.0886
737.5	48.9865
738	48.781
738.5	48.1885
739	47.0395
739.5	45.4151
740	43.8806
740.5	43.0609
741	43.4691
741.5	44.9599
742	46.8493
742.5	48.3303
743	48.8072
743.5	48.3229
744	47.2313
744.5	46.1699
745	45.5574
745.5	45.5423
746	45.9628
746.5	46.5449
747	47.1566
747.5	47.797
748	48.5215
748.5	49.3279
749	50.0545
749.5	50.4638
750	50.3006
750.5	49.4563
751	48.1666
751.5	46.7563
752	45.6582
752.5	45.087
753	45.0804
753.5	45.4593
754	45.9268
754.5	46.3594
755	46.8034
755.5	47.3681
756	48.0494
756.5	48.5797
757	48.5925
757.5	47.8058
758	46.2499
758.5	44.56
759	43.4154
759.5	43.4643
760	44.4975
760.5	45.9882
761	47.0543
761.5	47.1797
762	46.2938
762.5	44.7318
763	43.1766
763.5	41.998
764	41.3694
764.5	41.0887
765	41.0578
765.5	41.3518
766	42.0261
766.5	43.097
767	44.3952
767.5	45.5107
768	46.1412
768.5	46.0441
769	45.4838
769.5	44.7146
770	43.9818
770.5	43.371
771	42.8683
771.5	42.515
772	42.4156
772.5	42.7193
773	43.5622
773.5	44.6844
774	45.7305
774.5	46.2146
775	46.0174
775.5	45.2886
776	44.3955
776.5	43.7648
777	43.5433
777.5	43.6353
778	43.6746
778.5	43.4109
779	42.7652
779.5	42.0236
780	41.5275
780.5	41.6131
781	42.2307
781.5	43.0999
782	43.7837
782.5	43.9222
783	43.4177
783.5	42.3394
784	41.0806
784.5	40.0246
785	39.548
785.5	39.7642
786	40.5562
786.5	41.6971
787	42.7765
787.5	43.4764
788	43.5691
788.5	43.1576
789	42.5567
789.5	42.1352
790	42.1358
790.5	42.4906
791	42.9188
791.5	43.0111
792	42.5703
792.5	41.6123
793	40.4911
793.5	39.6168
794	39.3099
794.5	39.6347
795	40.3922
795.5	41.3934
796	42.4357
796.5	43.3689
797	44.016
797.5	44.1484
798	43.6587
798.5	42.4991
799	40.9073
799.5	39.3446
800	38.2348
800.5	37.8314
801	37.9548
801.5	38.3153
802	38.5587
802.5	38.5481
803	38.3403
803.5	38.1238
804	38.0307
804.5	38.0588
805	38.0961
805.5	38.0473
806	37.9208
806.5	37.8445
807	37.9547
807.5	38.3309
808	38.9733
808.5	39.7484
809	40.5545
809.5	41.2812
810	41.8496
810.5	42.168
811	42.1091
811.5	41.716
812	41.0682
812.5	40.3389
813	39.7251
813.5	39.3176
814	39.129
814.5	39.0429
815	39.0129
815.5	39.0938
816	39.3639
816.5	39.8746
817	40.5853
817.5	41.2622
818	41.6994
818.5	41.6749
819	41.2691
819.5	40.5907
820	39.7602
820.5	38.9038
821	38.0822
821.5	37.4258
822	37.0841
822.5	37.2099
823	37.9377
823.5	38.9911
824	40.006
824.5	40.4833
825	40.2789
825.5	39.5388
826	38.666
826.5	38.1438
827	38.1676
827.5	38.6827
828	39.2683
828.5	39.6019
829	39.5103
829.5	39.1945
830	38.9335
830.5	38.979
831	39.3053
831.5	39.7126
832	39.9104
832.5	39.7254
833	39.165
833.5	38.3296
834	37.4521
834.5	36.7236
835	36.3386
835.5	36.3798
836	36.8297
836.5	37.6281
837	38.5469
837.5	39.3538
838	39.8484
838.5	40.0098
839	39.975
839.5	39.9173
840	39.9639
840.5	40.0805
841	40.0963
841.5	39.7933
842	39.0845
842.5	37.9798
843	36.6967
843.5	35.5183
844	34.7229
844.5	34.4867
845	34.7772
845.5	35.52
846	36.4936
846.5	37.4376
847	38.137
847.5	38.4569
848	38.4378
848.5	38.1522
849	37.7407
849.5	37.3447
850	37.0662
850.5	36.9944
851	37.1542
851.5	37.5675
852	38.1804
852.5	38.8292
853	39.3338
853.5	39.5186
854	39.396
854.5	39.0574
855	38.6841
855.5	38.4131
856	38.257
856.5	38.1126
857	37.8657
857.5	37.5006
858	37.1496
858.5	37.0057
859	37.198
859.5	37.7249
860	38.3408
860.5	38.8246
861	39.0045
861.5	38.977
862	38.903
862.5	38.9578
863	39.1286
863.5	39.2753
864	39.1511
864.5	38.6994
865	38.0015
865.5	37.2936
866	36.8018
866.5	36.5836
867	36.5358
867.5	36.4136
868	36.1066
868.5	35.6887
869	35.4596
869.5	35.6837
870	36.5777
870.5	37.848
871	39.1143
871.5	39.8409
872	39.8573
872.5	39.2535
873	38.3573
873.5	37.6707
874	37.4638
874.5	37.8331
875	38.4443
875.5	38.9574
876	39.0402
876.5	38.7007
877	38.1317
877.5	37.6572
878	37.5289
878.5	37.7926
879	38.3387
879.5	38.8657
880	39.1546
880.5	39.0677
881	38.7242
881.5	38.3214
882	38.0773
882.5	38.0831
883	38.2748
883.5	38.4632
884	38.3856
884.5	37.8635
885	36.7579
885.5	35.2015
886	33.4532
886.5	31.8346
887	30.641
887.5	30.004
888	30.0241
888.5	30.6064
889	31.5892
889.5	32.8448
890	34.1513
890.5	35.2706
891	35.9192
891.5	35.9385
892	35.4242
892.5	34.6031
893	33.8729
893.5	33.4936
894	33.5243
894.5	33.7281
895	33.7876
895.5	33.5137
896	33.0024
896.5	32.5736
897	32.5573
897.5	33.1035
898	34.0211
898.5	35.0357
899	35.8442
899.5	36.3385
900	36.5141
900.5	36.4452
901	36.2459
901.5	36.0046
902	35.8846
902.5	36.0495
903	36.6261
903.5	37.5549
904	38.4868
904.5	39.0197
905	38.7977
905.5	37.9574
906	36.8246
906.5	35.9166
907	35.5089
907.5	35.5795
908	35.803
908.5	35.7789
909	35.3471
909.5	34.6536
910	34.1389
910.5	34.1651
911	34.95
911.5	36.1486
912	37.3317
912.5	37.9462
913	37.8613
913.5	37.1943
914	36.3237
914.5	35.7167
915	35.581
915.5	35.9088
916	36.3223
916.5	36.5478
917	36.4208
917.5	36.1561
918	36.0105
918.5	36.2449
919	36.7421
919.5	37.2398
920	37.3183
920.5	36.8499
921	35.917
921.5	34.7914
922	33.8447
922.5	33.2653
923	33.1619
923.5	33.3922
924	33.8593
924.5	34.5172
925	35.2715
925.5	36.0268
926	36.6232
926.5	36.9578
927	37.0169
927.5	36.8446
928	36.5841
928.5	36.3064
929	35.9963
929.5	35.5952
930	35.0823
930.5	34.5249
931	34.1012
931.5	33.9741
932	34.2914
932.5	34.9629
933	35.7909
933.5	36.5215
934	36.9573
934.5	37.0556
935	36.8545
935.5	36.5207
936	36.1758
936.5	35.8495
937	35.485
937.5	35.0261
938	34.4864
938.5	34.0167
939	33.8022
939.5	34.0269
940	34.6755
940.5	35.5554
941	36.4329
941.5	37.0969
942	37.4868
942.5	37.589
943	37.4361
943.5	37.062
944	36.4816
944.5	35.8465
945	35.4286
945.5	35.5711
946	36.4494
946.5	37.7881
947	39.0414
947.5	39.4681
948	38.7351
948.5	36.8335
949	34.3388
949.5	32.1017
950	30.7991
950.5	30.7548
951	31.6079
951.5	32.9265
952	34.229
952.5	35.3072
953	36.2107
953.5	37.1291
954	38.1596
954.5	39.2044
955	39.9503
955.5	40.1534
956	39.6932
956.5	38.7122
957	37.7004
957.5	37.1094
958	37.3291
958.5	38.1972
959	39.3588
959.5	40.1963
960	40.3037
960.5	39.5717
961	38.2609
961.5	37.0665
962	36.5397
962.5	37.1264
963	38.4828
963.5	40.0996
964	41.2326
964.5	41.5073
965	40.8652
965.5	39.506
966	38.0434
966.5	36.8828
967	36.4146
967.5	36.5774
968	37.2729
968.5	38.3827
969	39.6431
969.5	40.895
970	41.9451
970.5	42.6944
971	43.083
971.5	43.0527
972	42.7492
972.5	42.3029
973	41.8751
973.5	41.6012
974	41.5526
974.5	41.7973
975	42.2797
975.5	42.9537
976	43.7889
976.5	44.7013
977	45.6095
977.5	46.3799
978	46.904
978.5	47.1418
979	47.1202
979.5	47.045
980	47.1258
980.5	47.5793
981	48.42
981.5	49.5412
982	50.7805
982.5	51.9212
983	52.7955
983.5	53.1701
984	52.913
984.5	52.0069
985	50.5329
985.5	48.9395
986	47.7489
986.5	47.5115
987	48.3242
987.5	49.83
988	51.4742
988.5	52.6723
989	53.2604
989.5	53.4216
990	53.6854
990.5	54.4574
991	55.9107
991.5	57.7645
992	59.5152
992.5	60.6757
993	60.9812
993.5	60.5393
994	59.5511
994.5	58.3973
995	57.397
995.5	56.7152
996	56.2915
996.5	55.883
997	55.2392
997.5	54.229
998	52.9916
998.5	51.7818
999	50.9095
999.5	50.4827
1000	50.5139
1000.5	50.9225
1001	51.5867
1001.5	52.4816
1002	53.524
1002.5	54.4766
1003	54.9996
1003.5	54.7282
1004	53.7407
1004.5	52.3661
1005	51.2309
1005.5	50.7926
1006	51.2226
1006.5	52.3503
1007	53.652
1007.5	54.7868
1008	55.5828
1008.5	56.181
1009	56.742
1009.5	57.3905
1010	58.1151
1010.5	58.8632
1011	59.5809
1011.5	60.2404
1012	60.777
1012.5	60.9866
1013	60.7121
1013.5	59.8229
1014	58.2894
1014.5	56.5144
1015	54.8845
1015.5	53.8883
1016	53.5564
1016.5	53.7483
1017	54.1742
1017.5	54.4698
1018	54.4727
1018.5	54.1023
1019	53.508
1019.5	52.7982
1020	52.0911
1020.5	51.5102
1021	51.1716
1021.5	51.2396
1022	51.6498
1022.5	52.2512
1023	52.7715
1023.5	53.0157
1024	52.9976
1024.5	52.9541
1025	53.1991
1025.5	53.8305
1026	54.6445
1026.5	55.129
1027	54.9426
1027.5	54.0289
1028	52.9636
1028.5	52.3587
1029	52.7553
1029.5	53.975
1030	55.5075
1030.5	56.7269
1031	57.3389
1031.5	57.4848
1032	57.5376
1032.5	57.8698
1033	58.5549
1033.5	59.4699
1034	60.3832
1034.5	61.2205
1035	62.083
1035.5	63.1561
1036	64.5462
1036.5	66.3265
1037	68.4717
1037.5	70.9457
1038	73.7896
1038.5	76.9462
1039	80.2944
1039.5	83.7712
1040	87.4476
1040.5	91.5522
1041	96.4904
1041.5	102.476
1042	109.324
1042.5	116.711
1043	124.178
1043.5	131.544
1044	139.03
1044.5	147.168
1045	156.298
1045.5	166.496
1046	177.161
1046.5	187.243
1047	195.527
1047.5	201.034
1048	203.755
1048.5	203.7
1049	201.334
1049.5	197.544
1050	192.754
1050.5	187.258
1051	181.271
1051.5	174.818
1052	167.951
1052.5	160.831
1053	153.527
1053.5	146.024
1054	138.266
1054.5	130.199
1055	121.957
1055.5	113.955
1056	106.752
1056.5	100.953
1057	96.4624
1057.5	93.0426
1058	90.2189
1058.5	87.4344
1059	84.496
1059.5	81.4818
1060	78.6418
1060.5	76.1598
1061	74.1166
1061.5	72.3158
1062	70.6034
1062.5	68.8808
1063	67.178
1063.5	65.6011
1064	64.3237
1064.5	63.3753
1065	62.7626
1065.5	62.4579
1066	62.2897
1066.5	62.1406
1067	61.871
1067.5	61.4336
1068	60.8348
1068.5	60.1264
1069	59.4136
1069.5	58.7404
1070	58.0966
1070.5	57.4221
1071	56.6889
1071.5	55.9508
1072	55.3539
1072.5	55.0422
1073	55.1538
1073.5	55.5503
1074	56.021
1074.5	56.2932
1075	56.259
1075.5	55.9529
1076	55.4699
1076.5	54.9332
1077	54.3666
1077.5	53.7705
1078	53.2564
1078.5	53.0658
1079	53.6335
1079.5	55.0811
1080	57.2018
1080.5	59.4478
1081	61.0725
1081.5	61.6758
1082	61.1819
1082.5	60.2719
1083	59.6513
1083.5	59.8676
1084	60.9013
1084.5	62.4088
1085	64.0237
1085.5	65.4936
1086	66.8019
1086.5	68.0068
1087	69.1445
1087.5	70.1716
1088	71.0051
1088.5	71.6653
1089	72.2748
1089.5	72.9891
1090	73.9106
1090.5	75.0303
1091	76.332
1091.5	77.8163
1092	79.4923
1092.5	81.3291
1093	83.0784
1093.5	84.3339
1094	84.5219
1094.5	83.2501
1095	80.7171
1095.5	77.3958
1096	74.2532
1096.5	72.1359
1097	71.606
1097.5	72.5396
1098	74.025
1098.5	75.039
1099	74.6896
1099.5	72.9283
1100	70.055
1100.5	66.8062
1101	63.9202
1101.5	61.8485
1102	60.7853
1102.5	60.4948
1103	60.8046
1103.5	61.495
1104	62.2818
1104.5	62.9451
1105	63.239
1105.5	63.0688
1106	62.3719
1106.5	61.1422
1107	59.5528
1107.5	57.7467
1108	55.9599
1108.5	54.4329
1109	53.3344
1109.5	52.7563
1110	52.5207
1110.5	52.5203
1111	52.7659
1111.5	53.3162
1112	54.2449
1112.5	55.4479
1113	56.4676
1113.5	56.865
1114	56.3086
1114.5	55.2163
1115	54.1096
1115.5	53.6282
1116	53.8183
1116.5	54.4189
1117	54.9472
1117.5	55.1346
1118	55.062
1118.5	55.069
1119	55.4013
1119.5	56.0212
1120	56.607
1120.5	56.7935
1121	56.4662
1121.5	55.6762
1122	54.7436
1122.5	53.879
1123	53.2631
1123.5	52.9438
1124	52.9546
1124.5	53.357
1125	54.0357
1125.5	54.8576
1126	55.6734
1126.5	56.3898
1127	56.994
1127.5	57.4721
1128	57.8191
1128.5	58.0305
1129	58.1912
1129.5	58.5451
1130	59.3336
1130.5	60.7349
1131	62.4683
1131.5	64.035
1132	64.7704
1132.5	64.4147
1133	63.1928
1133.5	61.6758
1134	60.7105
1134.5	60.8031
1135	62.1282
1135.5	64.183
1136	66.2624
1136.5	67.6266
1137	67.8587
1137.5	67.0114
1138	65.289
1138.5	63.1813
1139	61.0726
1139.5	59.1805
1140	57.5947
1140.5	56.3643
1141	55.677
1141.5	55.6237
1142	56.0734
1142.5	56.7517
1143	57.2142
1143.5	57.2006
1144	56.6739
1144.5	55.9196
1145	55.3002
1145.5	55.0531
1146	55.2043
1146.5	55.5873
1147	56.058
1147.5	56.4543
1148	56.6243
1148.5	56.368
1149	55.5473
1149.5	54.3315
1150	53.0391
1150.5	52.1016
1151	51.6303
1151.5	51.4138
1152	50.9328
1152.5	49.8814
1153	48.3605
1153.5	47.0246
1154	46.5856
1154.5	47.3662
1155	49.1262
1155.5	51.0377
1156	52.4689
1156.5	53.015
1157	52.8863
1157.5	52.3231
1158	51.5442
1158.5	50.7177
1159	49.9706
1159.5	49.576
1160	49.7203
1160.5	50.4067
1161	51.2493
1161.5	51.6073
1162	51.0161
1162.5	49.2572
1163	46.9778
1163.5	44.8454
1164	43.6315
1164.5	43.3908
1165	43.8887
1165.5	44.6316
1166	45.0667
1166.5	44.9397
1167	44.139
1167.5	42.9541
1168	41.6278
1168.5	40.5176
1169	39.8921
1169.5	39.9066
1170	40.6427
1170.5	41.7404
1171	42.8723
1171.5	43.7076
1172	44.2143
1172.5	44.5314
1173	44.8581
1173.5	45.24
1174	45.5404
1174.5	45.48
1175	44.9836
1175.5	44.1772
1176	43.4009
1176.5	43.0479
1177	43.3229
1177.5	44.2996
1178	45.6296
1178.5	46.8956
1179	47.593
1179.5	47.4769
1180	46.5585
1180.5	45.0375
1181	43.4879
1181.5	42.4064
1182	42.2056
1182.5	42.7752
1183	43.7338
1183.5	44.6327
1184	45.1558
1184.5	45.2926
1185	45.1268
1185.5	44.7449
1186	44.1334
1186.5	43.2398
1187	42.2158
1187.5	41.3687
1188	41.0817
1188.5	41.4711
1189	42.2829
1189.5	43.0875
1190	43.446
1190.5	43.3146
1191	42.8588
1191.5	42.3928
1192	42.1005
1192.5	42.0317
1193	42.1461
1193.5	42.4104
1194	42.8499
1194.5	43.4183
1195	43.948
1195.5	44.189
1196	43.996
1196.5	43.488
1197	42.8657
1197.5	42.3429
1198	41.9542
1198.5	41.6166
1199	41.2472
1199.5	40.9174
1200	40.8413
1200.5	41.2487
1201	42.0732
1201.5	43.0606
1202	43.8414
1202.5	44.274
1203	44.4275
1203.5	44.5331
1204	44.7411
1204.5	44.9732
1205	44.9399
1205.5	44.4732
1206	43.628
1206.5	42.8402
1207	42.645
1207.5	43.3645
1208	45.0322
1208.5	47.0879
1209	49.0084
1209.5	50.2212
1210	50.5906
1210.5	50.089
1211	48.7393
1211.5	46.8937
1212	44.8562
1212.5	43.1517
1213	42.1904
1213.5	42.2193
1214	43.2893
1214.5	44.7428
1215	45.9844
1215.5	46.3365
1216	45.8146
1216.5	44.6861
1217	43.4737
1217.5	42.648
1218	42.3105
1218.5	42.3718
1219	42.5099
1219.5	42.5423
1220	42.3239
1220.5	41.8357
1221	41.0325
1221.5	39.8191
1222	38.3346
1222.5	36.8374
1223	35.8133
1223.5	35.5489
1224	36.0948
1224.5	37.294
1225	38.5988
1225.5	39.5989
1226	39.9622
1226.5	39.7568
1227	39.1541
1227.5	38.3255
1228	37.4901
1228.5	36.8027
1229	36.4641
1229.5	36.5245
1230	36.8629
1230.5	37.1462
1231	36.9702
1231.5	36.1937
1232	35.0219
1232.5	34.1403
1233	34.0937
1233.5	35.0248
1234	36.2658
1234.5	36.969
1235	36.4052
1235.5	34.715
1236	32.6661
1236.5	31.2188
1237	30.9265
1237.5	31.5953
1238	32.6298
1238.5	33.3826
1239	33.7145
1239.5	33.8283
1240	34.0747
1240.5	34.5632
1241	35.1529
1241.5	35.5522
1242	35.6106
1242.5	35.2976
1243	34.7165
1243.5	33.937
1244	32.9109
1244.5	31.6472
1245	30.3153
1245.5	29.1866
1246	28.5296
1246.5	28.3538
1247	28.5461
1247.5	28.8816
1248	29.2346
1248.5	29.6838
1249	30.4009
1249.5	31.4186
1250	32.6449
1250.5	33.8326
1251	34.7757
1251.5	35.3911
1252	35.7429
1252.5	35.9969
1253	36.1945
1253.5	36.2143
1254	35.9015
1254.5	35.1273
1255	33.918
1255.5	32.5983
1256	31.5222
1256.5	31.0657
1257	31.2219
1257.5	31.7865
1258	32.3716
1258.5	32.6924
1259	32.6964
1259.5	32.5407
1260	32.4958
1260.5	32.6928
1261	33.1114
1261.5	33.5481
1262	33.8793
1262.5	34.115
1263	34.3981
1263.5	34.8224
1264	35.3964
1264.5	35.9789
1265	36.4539
1265.5	36.708
1266	36.7395
1266.5	36.4872
1267	35.8173
1267.5	34.8314
1268	33.7486
1268.5	33.0843
1269	33.2052
1269.5	34.2034
1270	35.8022
1270.5	37.193
1271	37.733
1271.5	37.0235
1272	35.6192
1272.5	34.1423
1273	33.2658
1273.5	33.1222
1274	33.4848
1274.5	33.8943
1275	33.9236
1275.5	33.4695
1276	32.7888
1276.5	32.4456
1277	32.8502
1277.5	34.2612
1278	36.2269
1278.5	38.0673
1279	38.9095
1279.5	38.4335
1280	36.9012
1280.5	35.1235
1281	34.173
1281.5	34.6906
1282	37.1799
1282.5	41.3261
1283	46.5195
1283.5	51.9402
1284	56.4129
1284.5	58.8438
1285	58.1614
1285.5	54.6519
1286	49.4365
1286.5	43.9293
1287	39.5453
1287.5	36.7739
1288	35.545
1288.5	35.1156
1289	34.8704
1289.5	34.6461
1290	34.5436
1290.5	34.5918
1291	34.6371
1291.5	34.4505
1292	34.0301
1292.5	33.6259
1293	33.6166
1293.5	34.0844
1294	34.7489
1294.5	35.0952
1295	34.8786
1295.5	34.1939
1296	33.5447
1296.5	33.4202
1297	34.0817
1297.5	35.3632
1298	36.7187
1298.5	37.6489
1299	37.8361
1299.5	37.3934
1300	36.5529
1300.5	35.7022
1301	35.1336
1301.5	34.9468
1302	35.0043
1302.5	34.9993
1303	34.7657
1303.5	34.3486
1304	33.9921
1304.5	33.8765
1305	33.968
1305.5	33.9416
1306	33.463
1306.5	32.4081
1307	31.268
1307.5	30.6254
1308	31.0746
1308.5	32.4358
1309	34.225
1309.5	35.5922
1310	36.0034
1310.5	35.3171
1311	33.9199
1311.5	32.5641
1312	31.6949
1312.5	31.5807
1313	31.9338
1313.5	32.4574
1314	32.8339
1314.5	32.9844
1315	33.0374
1315.5	33.3004
1316	33.9432
1316.5	34.9559
1317	36.0731
1317.5	36.8311
1318	36.8987
1318.5	36.0466
1319	34.7275
1319.5	33.4525
1320	32.7287
1320.5	32.5899
1321	32.8571
1321.5	33.2679
1322	33.6371
1322.5	33.9816
1323	34.3602
1323.5	34.6609
1324	34.6598
1324.5	34.1037
1325	33.1845
1325.5	32.3204
1326	32.1065
1326.5	32.6936
1327	33.7864
1327.5	34.7562
1328	35.1814
1328.5	35.1193
1329	34.9462
1329.5	35.0559
1330	35.4472
1330.5	35.7526
1331	35.5656
1331.5	34.9551
1332	34.4269
1332.5	34.5667
1333	35.4957
1333.5	36.8442
1334	37.7934
1334.5	37.8136
1335	36.751
1335.5	35.2774
1336	34.0144
1336.5	33.3047
1337	33.0185
1337.5	32.8504
1338	32.646
1338.5	32.517
1339	32.6843
1339.5	33.2405
1340	33.9521
1340.5	34.4688
1341	34.5105
1341.5	34.0911
1342	33.4865
1342.5	32.9816
1343	32.7257
1343.5	32.5969
1344	32.4378
1344.5	32.1986
1345	32.0407
1345.5	32.2647
1346	33.0998
1346.5	34.3752
1347	35.5793
1347.5	35.956
1348	35.1711
1348.5	33.2505
1349	30.8542
1349.5	28.916
1350	28.1297
1350.5	28.7038
1351	29.9288
1351.5	31.1484
1352	31.945
1352.5	32.4859
1353	33.1637
1353.5	34.3335
1354	35.8158
1354.5	37.089
1355	37.4962
1355.5	36.998
1356	35.8785
1356.5	34.7487
1357	34.0934
1357.5	34.0281
1358	34.3266
1358.5	34.5324
1359	34.4453
1359.5	34.0879
1360	33.693
1360.5	33.3918
1361	33.2036
1361.5	33.052
1362	32.9845
1362.5	33.2901
1363	34.1664
1363.5	35.644
1364	37.4119
1364.5	38.7971
1365	39.2984
1365.5	38.5273
1366	37.0925
1366.5	35.608
1367	34.6859
1367.5	34.3956
1368	34.5967
1368.5	35.1051
1369	35.7495
1369.5	36.5158
1370	37.3238
1370.5	37.9289
1371	38.0778
1371.5	37.5434
1372	36.5881
1372.5	35.5785
1373	34.984
1373.5	34.8807
1374	35.0787
1374.5	35.2557
1375	35.1617
1375.5	34.7638
1376	34.1753
1376.5	33.6414
1377	33.3175
1377.5	33.3007
1378	33.575
1378.5	34.1545
1379	35.1447
1379.5	36.499
1380	38.0084
1380.5	39.1628
1381	39.5193
1381.5	39.0494
1382	38.1938
1382.5	37.8529
1383	38.567
1383.5	40.2906
1384	42.0383
1384.5	43.1281
1385	44.0842
1385.5	46.8205
1386	53.0464
1386.5	63.4872
1387	75.4809
1387.5	84.4212
1388	85.5658
1388.5	78.0805
1389	65.1577
1389.5	51.2907
1390	41.058
1390.5	35.8209
1391	35.0033
1391.5	35.8025
1392	36.3302
1392.5	36.2363
1393	36.0767
1393.5	36.2956
1394	36.7846
1394.5	36.9888
1395	36.626
1395.5	35.8303
1396	34.9903
1396.5	34.3664
1397	34.0507
1397.5	34.118
1398	34.6898
1398.5	35.875
1399	37.3995
1399.5	38.624
1400	38.9074
1400.5	37.964
1401	36.3589
1401.5	34.8904
1402	34.3318
1402.5	34.6443
1403	35.4693
1403.5	36.214
1404	36.4876
1404.5	36.1633
1405	35.3375
1405.5	34.435
1406	33.865
1406.5	34.1115
1407	35.2189
1407.5	37.0099
1408	38.9228
1408.5	40.2589
1409	40.6491
1409.5	40.0055
1410	38.7831
1410.5	37.2899
1411	35.7879
1411.5	34.4553
1412	33.438
1412.5	32.8746
1413	32.611
1413.5	32.4366
1414	32.102
1414.5	31.6543
1415	31.3975
1415.5	31.895
1416	33.0483
1416.5	34.4517
1417	35.3239
1417.5	35.3143
1418	34.5737
1418.5	33.7681
1419	33.5622
1419.5	33.9585
1420	34.4046
1420.5	34.2191
1421	33.2184
1421.5	31.8211
1422	31.0173
1422.5	31.3687
1423	32.8994
1423.5	34.6776
1424	35.8506
1424.5	35.6964
1425	34.493
1425.5	32.9456
1426	31.9885
1426.5	32.0556
1427	33.0719
1427.5	34.6517
1428	36.1042
1428.5	36.9625
1429	37.0006
1429.5	36.5196
1430	35.8677
1430.5	35.3215
1431	34.9322
1431.5	34.5473
1432	33.8831
1432.5	32.8387
1433	31.5259
1433.5	30.2082
1434	29.2322
1434.5	28.8202
1435	29.1689
1435.5	30.1362
1436	31.3715
1436.5	32.4773
1437	33.0796
1437.5	33.0705
1438	32.5404
1438.5	31.9075
1439	31.5411
1439.5	31.5739
1440	31.8397
1440.5	32.1161
1441	32.3749
1441.5	32.8482
1442	33.735
1442.5	34.9333
1443	35.9293
1443.5	36.2402
1444	35.6857
1444.5	34.7559
1445	34.2741
1445.5	34.6947
1446	35.6529
1446.5	36.2131
1447	35.5138
1447.5	33.3277
1448	30.4953
1448.5	28.1171
1449	27.0548
1449.5	27.2081
1450	28.1746
1450.5	29.3599
1451	30.3899
1451.5	31.2226
1452	31.9529
1452.5	32.6237
1453	33.1659
1453.5	33.454
1454	33.4551
1454.5	33.1505
1455	32.6319
1455.5	32.1227
1456	31.8682
1456.5	32.1333
1457	32.8303
1457.5	33.661
1458	34.0516
1458.5	33.7509
1459	32.8129
1459.5	31.6409
1460	30.783
1460.5	30.5405
1461	30.9425
1461.5	31.5911
1462	32.267
1462.5	32.8552
1463	33.3734
1463.5	33.8127
1464	34.0381
1464.5	33.9752
1465	33.598
1465.5	32.9678
1466	32.3298
1466.5	31.8863
1467	31.9454
1467.5	32.5148
1468	33.571
1468.5	34.9848
1469	36.3599
1469.5	37.3325
1470	37.3775
1470.5	36.5804
1471	35.1573
1471.5	33.4767
1472	32.0181
1472.5	31.0662
1473	30.9093
1473.5	31.389
1474	32.3445
1474.5	33.6266
1475	34.9755
1475.5	36.1949
1476	37.0407
1476.5	37.454
1477	37.4556
1477.5	37.0338
1478	36.2805
1478.5	35.2606
1479	34.0593
1479.5	32.9411
1480	32.1786
1480.5	32.057
1481	32.4956
1481.5	33.1567
1482	33.5067
1482.5	33.2227
1483	32.4495
1483.5	31.6151
1484	31.2326
1484.5	31.4662
1485	32.1574
1485.5	32.7675
1486	32.9692
1486.5	32.6995
1487	32.2349
1487.5	31.8787
1488	31.8211
1488.5	31.9927
1489	32.2282
1489.5	32.4186
1490	32.5279
1490.5	32.5734
1491	32.5511
1491.5	32.4488
1492	32.2726
1492.5	32.0562
1493	31.8899
1493.5	31.869
1494	32.0916
1494.5	32.5008
1495	32.8868
1495.5	32.9482
1496	32.3894
1496.5	31.2147
1497	29.6097
1497.5	28.0569
1498	26.9131
1498.5	26.3584
1499	26.3884
1499.5	26.857
1500	27.8114
1500.5	29.3283
1501	31.2519
1501.5	33.2386
1502	34.6177
1502.5	34.8857
1503	33.8355
1503.5	31.8857
1504	29.9268
1504.5	28.6689
1505	28.6176
1505.5	29.4924
1506	30.7958
1506.5	31.9451
1507	32.7433
1507.5	33.2908
1508	33.834
1508.5	34.4407
1509	34.858
1509.5	34.6132
1510	33.6759
1510.5	32.3341
1511	31.3027
1511.5	31.1259
1512	31.797
1512.5	32.903
1513	33.8739
1513.5	34.573
1514	35.2181
1514.5	36.0415
1515	36.817
1515.5	36.7654
1516	35.5052
1516.5	33.1575
1517	30.6445
1517.5	29.2223
1518	29.3479
1518.5	30.8387
1519	32.4857
1519.5	33.4644
1520	33.2578
1520.5	32.5508
1521	31.936
1521.5	31.8572
1522	32.1698
1522.5	32.5327
1523	32.5558
1523.5	32.24
1524	31.7931
1524.5	31.5649
1525	31.779
1525.5	32.4543
1526	33.3499
1526.5	33.8393
1527	33.6796
1527.5	32.8281
1528	31.6746
1528.5	30.6884
1529	30.3084
1529.5	30.7208
1530	31.6929
1530.5	32.7376
1531	33.2036
1531.5	32.7953
1532	31.5169
1532.5	29.9372
1533	28.687
1533.5	28.2163
1534	28.4071
1534.5	28.9538
1535	29.7798
1535.5	30.4065
1536	30.5467
1536.5	30.0245
1537	28.8959
1537.5	27.3347
1538	25.8648
1538.5	24.969
1539	25.0829
1539.5	26.0877
1540	27.7393
1540.5	29.4449
1541	30.5822
1541.5	30.7794
1542	30.1393
1542.5	29.0804
1543	28.2212
1543.5	28.1141
1544	28.7843
1544.5	29.8456
1545	30.6631
1545.5	30.7462
1546	29.9886
1546.5	28.9821
1547	28.4718
1547.5	28.8914
1548	30.1617
1548.5	31.7923
1549	32.9828
1549.5	33.4238
1550	33.2649
1550.5	32.9776
1551	32.9023
1551.5	33.0009
1552	32.8764
1552.5	32.1447
1553	30.9003
1553.5	29.5129
1554	28.637
1554.5	28.5746
1555	29.1854
1555.5	30.0009
1556	30.5769
1556.5	30.63
1557	30.2711
1557.5	29.8725
1558	29.8389
1558.5	30.315
1559	31.2492
1559.5	32.2921
1560	32.9556
1560.5	32.9729
1561	32.4975
1561.5	31.9802
1562	31.9613
1562.5	32.5657
1563	33.2825
1563.5	33.2452
1564	32.0883
1564.5	29.9402
1565	27.7629
1565.5	26.6582
1566	27.1192
1566.5	28.6082
1567	30.2124
1567.5	30.9499
1568	30.5684
1568.5	29.5532
1569	28.6076
1569.5	28.1053
1570	28.086
1570.5	28.2939
1571	28.507
1571.5	28.6957
1572	28.8889
1572.5	29.0238
1573	28.8955
1573.5	28.4152
1574	27.7731
1574.5	27.4578
1575	27.7832
1575.5	28.8236
1576	30.1026
1576.5	30.9489
1577	30.8852
1577.5	30.2114
1578	29.4657
1578.5	29.3297
1579	29.9431
1579.5	30.9237
1580	31.4841
1580.5	31.2537
1581	30.1872
1581.5	28.7974
1582	27.6119
1582.5	26.9525
1583	26.6401
1583.5	26.5264
1584	26.6083
1584.5	27.0432
1585	28.0595
1585.5	29.4314
1586	30.6888
1586.5	31.2733
1587	31.01
1587.5	30.0831
1588	28.9853
1588.5	28.0855
1589	27.4074
1589.5	26.8078
1590	26.2483
1590.5	26.014
1591	26.5738
1591.5	28.0112
1592	30.0748
1592.5	31.9638
1593	32.9911
1593.5	32.585
1594	31.2669
1594.5	29.6963
1595	28.6202
1595.5	28.3467
1596	28.9351
1596.5	29.9272
1597	30.84
1597.5	31.2598
1598	31.124
1598.5	30.4936
1599	29.6297
1599.5	28.8801
1600	28.4898
1600.5	28.5051
1601	28.822
1601.5	29.2987
1602	29.7384
1602.5	29.9941
1603	29.9356
1603.5	29.5719
1604	28.9684
1604.5	28.3586
1605	28.0151
1605.5	28.1452
1606	28.5563
1606.5	28.9383
1607	28.9403
1607.5	28.5666
1608	28.0783
1608.5	27.9822
1609	28.3946
1609.5	29.1343
1610	29.7078
1610.5	29.777
1611	29.2255
1611.5	28.5189
1612	28.087
1612.5	28.2196
1613	28.7672
1613.5	29.4938
1614	30.0902
1614.5	30.4335
1615	30.4927
1615.5	30.2872
1616	29.8353
1616.5	29.1479
1617	28.3699
1617.5	27.6685
1618	27.2026
1618.5	26.9949
1619	27.0498
1619.5	27.3209
1620	27.7301
1620.5	28.136
1621	28.3298
1621.5	28.1819
1622	27.654
1622.5	27.0092
1623	26.5668
1623.5	26.6091
1624	27.0236
1624.5	27.6119
1625	28.1663
1625.5	28.6862
1626	29.3552
1626.5	30.2757
1627	31.256
1627.5	31.811
1628	31.6064
1628.5	30.5237
1629	28.9556
1629.5	27.6008
1630	27.0411
1630.5	27.3056
1631	28.0942
1631.5	28.9768
1632	29.6249
1632.5	29.9768
1633	30.1521
1633.5	30.1884
1634	29.9426
1634.5	29.2516
1635	28.195
1635.5	27.2661
1636	27.29
1636.5	28.7601
1637	31.8353
1637.5	35.6686
1638	39.3304
1638.5	41.8069
1639	43.0725
1639.5	43.6265
1640	44.2124
1640.5	45.0681
1641	45.811
1641.5	45.5542
1642	43.5397
1642.5	39.7926
1643	35.3411
1643.5	31.3297
1644	28.8508
1644.5	28.1333
1645	29.0152
1645.5	30.4027
1646	31.6724
1646.5	32.4545
1647	32.854
1647.5	33.0174
1648	32.9882
1648.5	32.6226
1649	31.6863
1649.5	30.1799
1650	28.3726
1650.5	26.7386
1651	25.7297
1651.5	25.52
1652	25.8736
1652.5	26.312
1653	26.4958
1653.5	26.3274
1654	26.0589
1654.5	26.183
1655	27.0239
1655.5	28.5024
1656	30.2213
1656.5	31.5369
1657	31.9903
1657.5	31.4149
1658	30.3225
1658.5	29.3138
1659	28.8239
1659.5	28.8782
1660	29.3284
1660.5	29.8866
1661	30.4547
1661.5	31.0517
1662	31.6339
1662.5	32.0466
1663	32.0917
1663.5	31.7834
1664	31.3123
1664.5	31.0261
1665	31.0055
1665.5	31.1138
1666	31.1271
1666.5	31.0262
1667	31.0718
1667.5	31.5353
1668	32.319
1668.5	32.7882
1669	32.3737
1669.5	30.7373
1670	28.4934
1670.5	26.5897
1671	26.2269
1671.5	27.2403
1672	28.9916
1672.5	30.358
1673	30.7091
1673.5	29.9469
1674	28.821
1674.5	28.1019
1675	28.1673
1675.5	28.6374
1676	29.0303
1676.5	28.9155
1677	28.3818
1677.5	27.747
1678	27.3303
1678.5	27.0722
1679	26.7681
1679.5	26.3484
1680	26.0356
1680.5	26.3763
1681	27.5412
1681.5	29.1849
1682	30.5135
1682.5	31.0137
1683	30.5969
1683.5	29.8792
1684	29.5414
1684.5	29.9526
1685	30.6276
1685.5	31.0703
1686	30.9806
1686.5	30.6518
1687	30.5155
1687.5	30.8779
1688	31.47
1688.5	31.7972
1689	31.549
1689.5	30.7882
1690	29.7795
1690.5	28.8691
1691	28.2041
1691.5	27.7869
1692	27.5584
1692.5	27.5408
1693	27.7387
1693.5	28.1061
1694	28.6017
1694.5	29.192
1695	29.8645
1695.5	30.5195
1696	30.9427
1696.5	30.9025
1697	30.3105
1697.5	29.4291
1698	28.6965
1698.5	28.47
1699	28.6831
1699.5	29.0167
1700	29.0493
1700.5	28.5755
1701	27.6101
1701.5	26.4633
1702	25.436
1702.5	24.768
1703	24.5368
1703.5	24.7862
1704	25.331
1704.5	25.9361
1705	26.3267
1705.5	26.531
1706	26.7876
1706.5	27.415
1707	28.3915
1707.5	29.3579
1708	29.6258
1708.5	28.754
1709	26.7775
1709.5	24.6548
1710	23.2426
1710.5	23.2933
1711	24.5831
1711.5	26.595
1712	28.4383
1712.5	29.5979
1713	30.0042
1713.5	30.0284
1714	29.9849
1714.5	30.0147
1715	29.978
1715.5	29.6488
1716	28.895
1716.5	28.0161
1717	27.4444
1717.5	27.5498
1718	28.2635
1718.5	29.1487
1719	29.4494
1719.5	28.676
1720	26.9066
1720.5	25.0005
1721	23.7273
1721.5	23.5613
1722	24.1726
1722.5	24.8878
1723	24.8919
1723.5	24.0198
1724	22.6522
1724.5	21.5515
1725	21.2281
1725.5	21.9368
1726	23.3243
1726.5	24.9429
1727	26.1834
1727.5	26.7873
1728	26.6927
1728.5	26.2674
1729	25.9118
1729.5	26.0082
1730	26.4763
1730.5	26.9553
1731	26.9216
1731.5	26.379
1732	25.7363
1732.5	25.7077
1733	26.6066
1733.5	28.2664
1734	29.6945
1734.5	29.9376
1735	28.5504
1735.5	26.2462
1736	23.9298
1736.5	22.5784
1737	22.4385
1737.5	23.37
1738	24.6742
1738.5	25.8426
1739	26.6258
1739.5	27.1255
1740	27.4285
1740.5	27.5572
1741	27.474
1741.5	27.0879
1742	26.372
1742.5	25.4105
1743	24.268
1743.5	23.0706
1744	21.9592
1744.5	21.2004
1745	20.9845
1745.5	21.4513
1746	22.425
1746.5	23.4375
1747	24.0893
1747.5	24.321
1748	24.4256
1748.5	24.9125
1749	25.9793
1749.5	27.3962
1750	28.3972
1750.5	28.5141
1751	27.7246
1751.5	26.6773
1752	26.0695
1752.5	26.3584
1753	27.2128
1753.5	27.985
1754	27.9741
1754.5	27.2699
1755	26.243
1755.5	25.4404
1756	25.0691
1756.5	25.0602
1757	25.101
1757.5	25.0285
1758	24.9558
1758.5	25.1653
1759	25.8286
1759.5	26.9306
1760	28.1322
1760.5	29.0337
1761	29.2103
1761.5	28.4796
1762	26.7985
1762.5	24.5589
1763	22.2389
1763.5	20.5645
1764	20.0277
1764.5	20.9203
1765	23.077
1765.5	25.6477
1766	27.6149
1766.5	28.2198
1767	27.4594
1767.5	25.7219
1768	23.9504
1768.5	22.7852
1769	22.6135
1769.5	23.1127
1770	23.8411
1770.5	24.3546
1771	24.5336
1771.5	24.392
1772	24.089
1772.5	23.7605
1773	23.5511
1773.5	23.5587
1774	23.8356
1774.5	24.2935
1775	24.7348
1775.5	24.9889
1776	25.0266
1776.5	25.0058
1777	25.1819
1777.5	25.6891
1778	26.4121
1778.5	26.9131
1779	26.7925
1779.5	25.8163
1780	24.102
1780.5	22.1645
1781	20.6263
1781.5	20.0332
1782	20.5324
1782.5	21.9726
1783	23.6643
1783.5	25.1207
1784	25.9842
1784.5	26.359
1785	26.4671
1785.5	26.5978
1786	26.8254
1786.5	26.9996
1787	26.871
1787.5	26.3348
1788	25.3959
1788.5	24.3242
1789	23.3894
1789.5	22.9243
1790	23.0653
1790.5	23.8611
1791	24.9475
1791.5	25.809
1792	25.8863
1792.5	25.1006
1793	23.7109
1793.5	22.2913
1794	21.3367
1794.5	21.0389
1795	21.2363
1795.5	21.6467
1796	22.2344
1796.5	23.0789
1797	24.1385
1797.5	25.0822
1798	25.4494
1798.5	24.9834
1799	23.8855
1799.5	22.8757
1800	22.5401
1800.5	22.8801
1801	23.4022
1801.5	23.5281
1802	23.1172
1802.5	22.4634
1803	22.1165
1803.5	22.2853
1804	22.7844
1804.5	23.1029
1805	23.0451
1805.5	22.7286
1806	22.5197
1806.5	22.5757
1807	22.7565
1807.5	22.669
1808	22.09
1808.5	21.1945
1809	20.5897
1809.5	20.8034
1810	21.9655
1810.5	23.6507
1811	25.1879
1811.5	25.9233
1812	25.633
1812.5	24.3933
1813	22.9049
1813.5	21.7733
1814	21.451
1814.5	21.8551
1815	22.6918
1815.5	23.3976
1816	23.6052
1816.5	23.1367
1817	22.3504
1817.5	21.7385
1818	21.8422
1818.5	22.6175
1819	23.7157
1819.5	24.4189
1820	24.2595
1820.5	23.0739
1821	21.459
1821.5	20.1621
1822	19.9606
1822.5	20.6509
1823	21.5846
1823.5	21.9437
1824	21.5713
1824.5	20.8391
1825	20.5487
1825.5	21.0845
1826	22.3509
1826.5	23.6061
1827	24.3382
1827.5	24.5495
1828	24.7673
1828.5	25.2862
1829	25.8745
1829.5	25.9398
1830	24.9058
1830.5	22.9097
1831	20.63
1831.5	19.0633
1832	18.6727
1832.5	19.325
1833	20.5272
1833.5	21.7244
1834	22.6285
1834.5	23.1765
1835	23.4606
1835.5	23.5542
1836	23.5537
1836.5	23.527
1837	23.5758
1837.5	23.785
1838	24.1999
1838.5	24.7048
1839	24.9863
1839.5	24.593
1840	23.278
1840.5	21.2899
1841	19.3628
1841.5	18.49
1842	19.0841
1842.5	20.8564
1843	22.7758
1843.5	24.0277
1844	24.2692
1844.5	23.8406
1845	23.1917
1845.5	22.6684
1846	22.3027
1846.5	22.0794
1847	22.0526
1847.5	22.3108
1848	22.7698
1848.5	23.1478
1849	23.2179
1849.5	23.068
1850	23.0278
1850.5	23.448
1851	24.2405
1851.5	25.0455
1852	25.4471
1852.5	25.5468
1853	25.6604
1853.5	26.0612
1854	26.5745
1854.5	26.7136
1855	26.0756
1855.5	24.7551
1856	23.2807
1856.5	22.3468
1857	22.2335
1857.5	22.6267
1858	22.9175
1858.5	22.7097
1859	22.0488
1859.5	21.3407
1860	21.0873
1860.5	21.4895
1861	22.4024
1861.5	23.4105
1862	24.0365
1862.5	24.0586
1863	23.5778
1863.5	22.9445
1864	22.4793
1864.5	22.341
1865	22.4505
1865.5	22.6196
1866	22.66
1866.5	22.5169
1867	22.2147
1867.5	21.8073
1868	21.2818
1868.5	20.6653
1869	20.1205
1869.5	19.9589
1870	20.3763
1870.5	21.2645
1871	22.1684
1871.5	22.5404
1872	22.1704
1872.5	21.4296
1873	21.0656
1873.5	21.5381
1874	22.4994
1874.5	23.1907
1875	22.8743
1875.5	21.7382
1876	20.4953
1876.5	20.1428
1877	20.8575
1877.5	22.2189
1878	23.2891
1878.5	23.6017
1879	23.3146
1879.5	23.0454
1880	23.0513
1880.5	23.0964
1881	22.6451
1881.5	21.4314
1882	19.7419
1882.5	18.364
1883	18.0392
1883.5	18.9713
1884	20.6321
1884.5	22.157
1885	22.8786
1885.5	22.6986
1886	21.9064
1886.5	21.1043
1887	20.6302
1887.5	20.5241
1888	20.5504
1888.5	20.5272
1889	20.4989
1889.5	20.6814
1890	21.3362
1890.5	22.3143
1891	23.3201
1891.5	23.9659
1892	24.1538
1892.5	23.9483
1893	23.5717
1893.5	23.1748
1894	22.7924
1894.5	22.4019
1895	22.0167
1895.5	21.7195
1896	21.5608
1896.5	21.5286
1897	21.545
1897.5	21.5273
1898	21.4216
1898.5	21.2167
1899	20.9423
1899.5	20.6741
1900	20.5417
1900.5	20.6544
1901	21.0609
1901.5	21.5825
1902	21.9795
1902.5	22.0632
1903	21.8982
1903.5	21.6641
1904	21.5375
1904.5	21.4864
1905	21.2795
1905.5	20.7425
1906	19.9163
1906.5	19.1691
1907	18.9046
1907.5	19.351
1908	20.2467
1908.5	21.0897
1909	21.4697
1909.5	21.4184
1910	21.1842
1910.5	21.0294
1911	20.9387
1911.5	20.7208
1912	20.2327
1912.5	19.6862
1913	19.5551
1913.5	20.2244
1914	21.5691
1914.5	22.9176
1915	23.4399
1915.5	22.7736
1916	21.1498
1916.5	19.4586
1917	18.5199
1917.5	18.7855
1918	19.9678
1918.5	21.4242
1919	22.2498
1919.5	21.923
1920	20.1867
1920.5	17.7633
1921	15.551
1921.5	14.5682
1922	15.0122
1922.5	16.6215
1923	18.4759
1923.5	19.9018
1924	20.6071
1924.5	20.9696
1925	21.3398
1925.5	21.7858
1926	22.0046
1926.5	21.734
1927	21.1923
1927.5	21.014
1928	21.7578
1928.5	23.1595
1929	24.4701
1929.5	24.7182
1930	23.8124
1930.5	22.1736
1931	20.6477
1931.5	19.7296
1932	19.4899
1932.5	19.5976
1933	19.7887
1933.5	19.9905
1934	20.1861
1934.5	20.2362
1935	19.8213
1935.5	18.8551
1936	17.463
1936.5	16.141
1937	15.4095
1937.5	15.7383
1938	17.1119
1938.5	19.1242
1939	21.0775
1939.5	22.2921
1940	22.4927
1940.5	21.9056
1941	21.2403
1941.5	21.0108
1942	21.2209
1942.5	21.4939
1943	21.4864
1943.5	21.2315
1944	20.9468
1944.5	20.7748
1945	20.5705
1945.5	20.177
1946	19.7206
1946.5	19.5886
1947	20.0733
1947.5	20.8091
1948	21.0575
1948.5	20.0653
1949	18.3177
1949.5	16.817
1950	16.7269
1950.5	17.9687
1951	19.7748
1951.5	20.9005
1952	20.8979
1952.5	20.042
1953	19.3412
1953.5	19.418
1954	20.4176
1954.5	21.6279
1955	22.4177
1955.5	22.4178
1956	21.9554
1956.5	21.5763
1957	21.6973
1957.5	22.1873
1958	22.4955
1958.5	22.0192
1959	20.593
1959.5	18.5822
1960	16.8499
1960.5	16.0837
1961	16.5538
1961.5	17.8643
1962	19.5181
1962.5	20.9887
1963	22.0571
1963.5	22.5814
1964	22.639
1964.5	22.2819
1965	21.5619
1965.5	20.5617
1966	19.288
1966.5	17.8628
1967	16.5857
1967.5	15.9984
1968	16.4692
1968.5	17.9772
1969	20.0928
1969.5	22.0339
1970	23.3368
1970.5	23.9323
1971	24.1082
1971.5	23.952
1972	23.2808
1972.5	21.954
1973	20.122
1973.5	18.5251
1974	17.794
1974.5	18.1896
1975	19.0371
1975.5	19.5137
1976	19.0252
1976.5	17.8094
1977	16.5177
1977.5	15.8267
1978	15.8392
1978.5	16.246
1979	16.5306
1979.5	16.5249
1980	16.3979
1980.5	16.4146
1981	16.6702
1981.5	17.0541
1982	17.4825
1982.5	17.994
1983	18.612
1983.5	19.206
1984	19.4246
1984.5	19.1073
1985	18.3668
1985.5	17.7279
1986	17.6172
1986.5	18.1496
1987	18.8471
1987.5	19.2126
1988	18.9496
1988.5	18.4236
1989	18.0993
1989.5	18.362
1990	19.0517
1990.5	19.8887
1991	20.6015
1991.5	21.13
1992	21.4437
1992.5	21.4868
1993	21.1668
1993.5	20.4385
1994	19.5514
1994.5	18.7875
1995	18.3915
1995.5	18.3385
1996	18.5415
1996.5	18.9289
1997	19.5617
1997.5	20.5792
1998	21.8319
1998.5	22.9763
1999	23.4431
1999.5	23.0728
2000	21.9744
2000.5	20.6689
2001	19.6363
2001.5	19.1971
2002	19.2899
2002.5	19.7301
2003	20.3334
2003.5	20.9252
2004	21.3834
2004.5	21.5611
2005	21.4254
2005.5	21.0271
2006	20.6167
2006.5	20.4362
2007	20.6681
2007.5	21.1768
2008	21.7197
2008.5	21.9926
2009	21.9419
2009.5	21.6956
2010	21.5156
2010.5	21.5036
2011	21.5335
2011.5	21.2694
2012	20.5157
2012.5	19.313
2013	18.1738
2013.5	17.5848
2014	17.855
2014.5	18.6801
2015	19.5874
2015.5	20.0897
2016	20.1161
2016.5	19.8424
2017	19.6038
2017.5	19.5301
2018	19.5728
2018.5	19.5671
2019	19.4079
2019.5	19.0489
2020	18.4929
2020.5	17.6828
2021	16.6084
2021.5	15.3641
2022	14.2264
2022.5	13.6001
2023	13.8374
2023.5	15.124
2024	16.987
2024.5	18.7072
2025	19.382
2025.5	18.7438
2026	17.0555
2026.5	15.4544
2027	14.8811
2027.5	16.0013
2028	18.1642
2028.5	20.4776
2029	21.9023
2029.5	22.2007
2030	21.5966
2030.5	20.7864
2031	20.2054
2031.5	19.9641
2032	19.8094
2032.5	19.5616
2033	19.1789
2033.5	18.7681
2034	18.4074
2034.5	18.1425
2035	18.0394
2035.5	18.2774
2036	18.9356
2036.5	19.8463
2037	20.5198
2037.5	20.5381
2038	19.8528
2038.5	18.9676
2039	18.5187
2039.5	18.7917
2040	19.39
2040.5	19.731
2041	19.4463
2041.5	18.8283
2042	18.2836
2042.5	18.0546
2043	17.9746
2043.5	17.9378
2044	18.1623
2044.5	18.925
2045	20.2253
2045.5	21.4059
2046	21.8432
2046.5	21.2389
2047	20.2682
2047.5	19.6149
2048	19.6418
2048.5	19.9286
2049	19.9301
2049.5	19.4147
2050	18.6975
2050.5	18.2607
2051	18.294
2051.5	18.6273
2052	18.9282
2052.5	19.0239
2053	18.9618
2053.5	18.9438
2054	19.0968
2054.5	19.389
2055	19.5117
2055.5	19.1082
2056	17.8409
2056.5	16.0553
2057	14.4389
2057.5	13.9969
2058	14.9481
2058.5	16.9491
2059	18.9512
2059.5	20.232
2060	20.5258
2060.5	20.2417
2061	19.7921
2061.5	19.4878
2062	19.4762
2062.5	19.8834
2063	20.7127
2063.5	21.599
2064	21.9799
2064.5	21.4667
2065	20.3314
2065.5	19.3621
2066	19.3609
2066.5	20.4904
2067	22.2557
2067.5	23.7247
2068	24.288
2068.5	23.797
2069	22.6112
2069.5	21.1151
2070	19.8
2070.5	19.0164
2071	19.0981
2071.5	19.7947
2072	20.6413
2072.5	20.9883
2073	20.7163
2073.5	20.1842
2074	20.1463
2074.5	20.9167
2075	22.2739
2075.5	23.344
2076	23.5252
2076.5	22.5915
2077	21.1426
2077.5	19.7341
2078	18.8206
2078.5	18.4678
2079	18.6996
2079.5	19.4086
2080	20.3823
2080.5	21.1861
2081	21.328
2081.5	20.5954
2082	19.2729
2082.5	18.183
2083	18.0582
2083.5	19.0921
2084	20.6785
2084.5	21.8828
2085	21.9612
2085.5	20.8614
2086	19.0552
2086.5	17.5196
2087	16.9258
2087.5	17.5316
2088	18.8102
2088.5	20.0543
2089	20.5891
2089.5	20.3296
2090	19.5501
2090.5	18.7908
2091	18.2458
2091.5	17.7841
2092	17.1936
2092.5	16.5368
2093	16.2402
2093.5	16.6091
2094	17.6533
2094.5	18.8015
2095	19.534
2095.5	19.5493
2096	19.1993
2096.5	18.8752
2097	18.8592
2097.5	19.044
2098	19.2035
2098.5	19.1202
2099	18.7516
2099.5	18.1294
2100	17.4517
2100.5	16.9499
2101	16.9434
2101.5	17.4603
2102	18.3352
2102.5	19.0897
2103	19.3145
2103.5	18.7741
2104	17.719
2104.5	16.6109
2105	16.0086
2105.5	16.1126
2106	16.8065
2106.5	17.6254
2107	18.0646
2107.5	17.8714
2108	17.2498
2108.5	16.6381
2109	16.3827
2109.5	16.4311
2110	16.5573
2110.5	16.6598
2111	16.9918
2111.5	17.9026
2112	19.4503
2112.5	21.0595
2113	21.9194
2113.5	21.5236
2114	20.1247
2114.5	18.3941
2115	17.1328
2115.5	16.6708
2116	17.0542
2116.5	17.9844
2117	19.2965
2117.5	20.7309
2118	21.9363
2118.5	22.4588
2119	22.1167
2119.5	21.096
2120	19.8143
2120.5	18.7293
2121	17.9836
2121.5	17.497
2122	17.1367
2122.5	16.9572
2123	17.1185
2123.5	17.6397
2124	18.3564
2124.5	18.902
2125	19.0607
2125.5	18.8123
2126	18.4613
2126.5	18.284
2127	18.4565
2127.5	18.8853
2128	19.3435
2128.5	19.4894
2129	19.1239
2129.5	18.1979
2130	17.156
2130.5	16.5163
2131	16.7471
2131.5	17.597
2132	18.4516
2132.5	18.534
2133	17.7281
2133.5	16.4624
2134	15.5921
2134.5	15.524
2135	16.2208
2135.5	17.1211
2136	17.916
2136.5	18.5415
2137	19.0483
2137.5	19.3173
2138	19.1729
2138.5	18.707
2139	18.37
2139.5	18.6605
2140	19.6344
2140.5	20.7379
2141	21.1955
2141.5	20.5739
2142	19.1238
2142.5	17.5055
2143	16.2596
2143.5	15.5102
2144	15.125
2144.5	15.0466
2145	15.2908
2145.5	15.9263
2146	16.8374
2146.5	17.681
2147	18.1127
2147.5	18.0052
2148	17.5472
2148.5	17.0781
2149	16.9449
2149.5	17.2866
2150	18.0878
2150.5	19.0782
2151	20.0361
2151.5	20.7802
2152	21.2788
2152.5	21.5111
2153	21.4878
2153.5	21.2153
2154	20.7007
2154.5	20.0775
2155	19.4531
2155.5	18.8994
2156	18.4207
2156.5	18.0798
2157	18.0634
2157.5	18.5025
2158	19.351
2158.5	20.0621
2159	20.0581
2159.5	18.932
2160	17.3256
2160.5	16.1991
2161	16.5106
2161.5	18.0543
2162	19.9373
2162.5	20.9205
2163	20.6763
2163.5	19.6834
2164	19.0548
2164.5	19.3079
2165	20.2093
2165.5	20.8975
2166	20.7436
2166.5	19.7077
2167	18.3225
2167.5	17.2215
2168	16.8534
2168.5	17.3067
2169	18.493
2169.5	19.8672
2170	20.9312
2170.5	21.243
2171	20.8953
2171.5	20.1904
2172	19.5371
2172.5	19.0201
2173	18.4867
2173.5	17.8263
2174	17.1863
2174.5	16.9204
2175	17.0676
2175.5	17.3365
2176	17.1717
2176.5	16.4341
2177	15.4713
2177.5	15.0485
2178	15.532
2178.5	16.7705
2179	17.8849
2179.5	18.2487
2180	17.7612
2180.5	17.1158
2181	17.0399
2181.5	17.8076
2182	18.9816
2182.5	19.8512
2183	19.9849
2183.5	19.474
2184	18.7266
2184.5	18.1668
2185	17.9399
2185.5	17.9637
2186	18.0157
2186.5	17.8356
2187	17.2143
2187.5	16.215
2188	15.3054
2188.5	15.2353
2189	16.456
2189.5	18.7485
2190	20.961
2190.5	22.0165
2191	21.5787
2191.5	20.4181
2192	19.5904
2192.5	19.6354
2193	20.2516
2193.5	20.7381
2194	20.7609
2194.5	20.4757
2195	20.2371
2195.5	20.0668
2196	19.7114
2196.5	19.0485
2197	18.3646
2197.5	18.1582
2198	18.4691
2198.5	18.8832
2199	18.7812
2199.5	18.2097
2200	17.7429
2200.5	18.1383
2201	19.3378
2201.5	20.625
2202	21.0465
2202.5	20.4412
2203	19.3988
2203.5	18.9016
2204	19.3235
2204.5	20.3183
2205	21.1823
2205.5	21.5785
2206	21.7327
2206.5	21.9946
2207	22.4228
2207.5	22.6121
2208	22.1818
2208.5	20.9763
2209	19.4576
2209.5	18.0946
2210	17.2436
2210.5	16.8669
2211	16.8615
2211.5	17.111
2212	17.6026
2212.5	18.3514
2213	19.1726
2213.5	19.8216
2214	20.0204
2214.5	19.7537
2215	19.0604
2215.5	18.0283
2216	16.722
2216.5	15.2503
2217	14.0328
2217.5	13.5755
2218	14.4503
2218.5	16.3236
2219	18.5664
2219.5	20.271
2220	21.0945
2220.5	21.0772
2221	20.5995
2221.5	19.8799
2222	19.0101
2222.5	18.2965
2223	18.1927
2223.5	19.1222
2224	20.6155
2224.5	21.7811
2225	21.6692
2225.5	20.3948
2226	18.8216
2226.5	18.1635
2227	18.7675
2227.5	20.1813
2228	21.2602
2228.5	21.3508
2229	20.4167
2229.5	19.1017
2230	17.9562
2230.5	17.247
2231	16.8689
2231.5	16.6603
2232	16.5163
2232.5	16.4589
2233	16.5066
2233.5	16.5265
2234	16.3332
2234.5	15.845
2235	15.2888
2235.5	15.0485
2236	15.3595
2236.5	16.0898
2237	16.9021
2237.5	17.5446
2238	18.0752
2238.5	18.6944
2239	19.3333
2239.5	19.5869
2240	18.9725
2240.5	17.5573
2241	15.8645
2241.5	14.7038
2242	14.3892
2242.5	14.7572
2243	15.1819
2243.5	15.3876
2244	15.583
2244.5	16.1986
2245	17.48
2245.5	19.038
2246	20.2245
2246.5	20.3968
2247	19.7117
2247.5	18.6901
2248	18.0303
2248.5	17.9165
2249	18.1353
2249.5	18.2262
2250	18.0079
2250.5	17.563
2251	17.1499
2251.5	16.8902
2252	16.8642
2252.5	17.1654
2253	18.0244
2253.5	19.7166
2254	22.1738
2254.5	25.2108
2255	28.2688
2255.5	30.6581
2256	31.3246
2256.5	29.769
2257	26.174
2257.5	21.691
2258	18.0989
2258.5	16.4935
2259	16.6924
2259.5	17.3933
2260	17.4992
2260.5	16.9287
2261	16.3566
2261.5	16.4765
2262	17.0369
2262.5	17.4265
2263	17.1909
2263.5	16.7141
2264	16.6329
2264.5	17.2656
2265	18.238
2265.5	18.941
2266	19.1379
2266.5	19.0544
2267	19.0789
2267.5	19.2972
2268	19.5205
2268.5	19.475
2269	19.1616
2269.5	18.7315
2270	18.325
2270.5	17.8599
2271	17.1131
2271.5	16.1498
2272	15.3823
2272.5	15.5874
2273	16.9722
2273.5	19.1898
2274	21.0879
2274.5	21.7789
2275	20.901
2275.5	19.2448
2276	17.6841
2276.5	16.8615
2277	16.5853
2277.5	16.5279
2278	16.467
2278.5	16.4731
2279	16.685
2279.5	17.1028
2280	17.6151
2280.5	18.1025
2281	18.4552
2281.5	18.5626
2282	18.3012
2282.5	17.7954
2283	17.2831
2283.5	17.0586
2284	17.1508
2284.5	17.4212
2285	17.6661
2285.5	17.862
2286	18.0946
2286.5	18.3587
2287	18.5141
2287.5	18.3945
2288	18.1286
2288.5	18.0614
2289	18.5847
2289.5	19.6481
2290	20.8241
2290.5	21.4426
2291	21.1945
2291.5	20.2272
2292	19.3121
2292.5	19.0398
2293	19.5099
2293.5	20.1738
2294	20.4948
2294.5	20.5114
2295	20.7695
2295.5	21.8525
2296	23.3663
2296.5	24.4101
2297	24.0061
2297.5	22.5113
2298	20.9786
2298.5	20.6654
2299	21.6121
2299.5	22.902
2300	23.1645
2300.5	21.9566
2301	19.6562
2301.5	17.5105
2302	16.3725
2302.5	16.5438
2303	17.4233
2303.5	18.2733
2304	18.5233
2304.5	18.2726
2305	18.0672
2305.5	18.4336
2306	19.3301
2306.5	20.0754
2307	19.993
2307.5	18.9436
2308	17.6646
2308.5	17.0473
2309	17.5821
2309.5	18.6714
2310	19.4941
2310.5	19.4197
2311	18.786
2311.5	18.1654
2312	18.0542
2312.5	18.3004
2313	18.5078
2313.5	18.3942
2314	18.1275
2314.5	18.0727
2315	18.3062
2315.5	18.5117
2316	18.1417
2316.5	17.1739
2317	15.9901
2317.5	15.2284
2318	15.0347
2318.5	15.1202
2319	15.0666
2319.5	14.9182
2320	15.128
2320.5	15.9302
2321	17.0914
2321.5	17.9626
2322	18.2369
2322.5	18.0919
2323	18.0703
2323.5	18.3258
2324	18.4835
2324.5	17.9634
2325	16.6682
2325.5	15.096
2326	14.1288
2326.5	14.381
2327	16.0187
2327.5	18.5409
2328	21.3585
2328.5	23.6142
2329	24.7155
2329.5	24.2209
2330	22.6529
2330.5	20.6717
2331	18.909
2331.5	17.4762
2332	16.3092
2332.5	15.5535
2333	15.5425
2333.5	16.5229
2334	17.8376
2334.5	18.5193
2335	17.7146
2335.5	16.1215
2336	14.7983
2336.5	14.6391
2337	15.2478
2337.5	15.7529
2338	15.5206
2338.5	14.859
2339	14.5201
2339.5	14.891
2340	15.765
2340.5	16.7346
2341	17.7077
2341.5	18.8632
2342	20.1421
2342.5	20.9744
2343	20.623
2343.5	19.1312
2344	17.2841
2344.5	16.237
2345	16.4203
2345.5	17.563
2346	18.8928
2346.5	19.8511
2347	20.3293
2347.5	20.5229
2348	20.5222
2348.5	20.1615
2349	19.3397
2349.5	18.2031
2350	17.1831
2350.5	16.6138
2351	16.546
2351.5	16.8181
2352	17.3283
2352.5	18.2224
2353	19.5465
2353.5	20.9456
2354	21.5877
2354.5	20.9388
2355	19.14
2355.5	17.1473
2356	15.9925
2356.5	16.0494
2357	16.7306
2357.5	17.1929
2358	17.0271
2358.5	16.5446
2359	16.1296
2359.5	15.9331
2360	15.7451
2360.5	15.4182
2361	14.9865
2361.5	14.5639
2362	14.15
2362.5	13.7102
2363	13.4066
2363.5	13.711
2364	14.8901
2364.5	16.6983
2365	18.2975
2365.5	18.9629
2366	18.4902
2366.5	17.4496
2367	16.6549
2367.5	16.6405
2368	17.2353
2368.5	17.9282
2369	18.1586
2369.5	17.8359
2370	17.1436
2370.5	16.4424
2371	15.9965
2371.5	15.965
2372	16.4285
2372.5	17.3288
2373	18.4627
2373.5	19.3578
2374	19.6964
2374.5	19.4686
2375	19.2345
2375.5	19.4421
2376	20.064
2376.5	20.5271
2377	20.3023
2377.5	19.5819
2378	19.0079
2378.5	19.0764
2379	19.4294
2379.5	19.4881
2380	18.9381
2380.5	18.2722
2381	18.1067
2381.5	18.6415
2382	19.4349
2382.5	19.9499
2383	20.0129
2383.5	19.758
2384	19.2822
2384.5	18.6415
2385	17.9783
2385.5	17.6857
2386	17.9227
2386.5	18.4586
2387	18.6478
2387.5	18.1976
2388	17.282
2388.5	16.4734
2389	15.9764
2389.5	15.6096
2390	15.195
2390.5	14.9593
2391	15.3154
2391.5	16.182
2392	17.0733
2392.5	17.492
2393	17.5333
2393.5	17.6958
2394	18.1963
2394.5	18.7033
2395	18.5971
2395.5	17.9245
2396	17.313
2396.5	17.453
2397	18.2071
2397.5	18.8748
2398	18.8398
2398.5	18.1849
2399	17.4649
2399.5	17.0181
2400	16.6138
2400.5	15.7045
2401	14.2874
2401.5	12.9725
2402	12.5886
2402.5	13.2123
2403	14.2796
2403.5	14.9313
2404	14.966
2404.5	14.9251
2405	15.5002
2405.5	16.8437
2406	18.1906
2406.5	18.6457
2407	17.684
2407.5	16.0622
2408	14.7817
2408.5	14.6721
2409	15.3632
2409.5	16.1073
2410	16.0474
2410.5	15.1229
2411	13.7579
2411.5	12.7625
2412	12.5973
2412.5	13.4836
2413	14.9596
2413.5	16.4906
2414	17.4204
2414.5	17.5097
2415	16.8514
2415.5	16.0682
2416	15.779
2416.5	16.3031
2417	17.2394
2417.5	18.0188
2418	18.2056
2418.5	18.0824
2419	18.0067
2419.5	18.0546
2420	17.8388
2420.5	16.9307
2421	15.471
2421.5	14.1732
2422	13.9474
2422.5	14.8923
2423	16.3698
2423.5	17.1569
2424	16.7385
2424.5	15.3769
2425	14.1633
2425.5	13.9647
2426	15.0724
2426.5	16.7116
2427	17.9511
2427.5	18.0607
2428	17.3829
2428.5	16.6178
2429	16.5258
2429.5	17.07
2430	17.7856
2430.5	17.9733
2431	17.4025
2431.5	16.2335
2432	15.1195
2432.5	14.5519
2433	14.8417
2433.5	15.6486
2434	16.5275
2434.5	16.9931
2435	16.8843
2435.5	16.1595
2436	15.0365
2436.5	13.8572
2437	13.1509
2437.5	13.3164
2438	14.4458
2438.5	16.2098
2439	17.8891
2439.5	19.0488
2440	19.6555
2440.5	19.9687
2441	20.1313
2441.5	20.1187
2442	19.8489
2442.5	19.247
2443	18.3613
2443.5	17.1669
2444	15.7605
2444.5	14.5254
2445	14.0031
2445.5	14.4717
2446	15.5947
2446.5	16.7208
2447	17.3441
2447.5	17.5201
2448	17.7008
2448.5	18.2404
2449	19.1247
2449.5	20.034
2450	20.6163
2450.5	20.4774
2451	19.4092
2451.5	17.5623
2452	15.5343
2452.5	14.2762
2453	14.3846
2453.5	15.7328
2454	17.3872
2454.5	18.5758
2455	18.9265
2455.5	18.6126
2456	17.8675
2456.5	16.9636
2457	16.0487
2457.5	15.3361
2458	15.0444
2458.5	15.394
2459	16.4786
2459.5	17.9591
2460	19.2051
2460.5	19.4538
2461	18.5516
2461.5	16.995
2462	15.9618
2462.5	16.0901
2463	17.0835
2463.5	17.8806
2464	17.7486
2464.5	16.7261
2465	15.4587
2465.5	14.5059
2466	13.9817
2466.5	13.7745
2467	14.0064
2467.5	14.9104
2468	16.6381
2468.5	18.7603
2469	20.2833
2469.5	20.1384
2470	18.08
2470.5	15.0397
2471	12.6441
2471.5	11.9795
2472	12.7451
2472.5	13.71
2473	13.9465
2473.5	13.6004
2474	13.661
2474.5	14.5529
2475	15.8321
2475.5	16.5255
2476	16.5621
2476.5	16.7305
2477	17.6027
2477.5	18.7573
2478	18.8956
2478.5	17.5187
2479	15.1663
2479.5	13.3852
2480	12.9542
2480.5	13.5798
2481	14.1935
2481.5	14.4098
2482	14.6257
2482.5	15.4178
2483	16.7827
2483.5	17.9424
2484	18.2176
2484.5	17.5831
2485	16.8427
2485.5	16.5231
2486	16.5878
2486.5	16.5014
2487	16.1259
2487.5	15.9827
2488	16.605
2488.5	17.8648
2489	18.6579
2489.5	18.2732
2490	16.7813
2490.5	15.3041
2491	14.5733
2491.5	14.6657
2492	14.9306
2492.5	15.1858
2493	15.8054
2493.5	16.8929
2494	17.9057
2494.5	17.9009
2495	16.7667
2495.5	15.3421
2496	14.9563
2496.5	16.0424
2497	17.8191
2497.5	18.9731
2498	18.8058
2498.5	17.4664
2499	15.7099
2499.5	14.3157
2500	13.9178
2500.5	14.7166
2501	16.4071
2501.5	17.9129
2502	18.4572
2502.5	17.9463
2503	17.3174
2503.5	17.4345
2504	18.2264
2504.5	18.6906
2505	17.8644
2505.5	16.2219
2506	14.8048
2506.5	14.4364
2507	14.478
2507.5	13.9426
2508	12.5019
2508.5	11.3094
2509	11.8965
2509.5	14.4185
2510	17.5966
2510.5	19.5602
2511	19.6192
2511.5	18.2047
2512	16.398
2512.5	14.9544
2513	14.0248
2513.5	13.5838
2514	13.6613
2514.5	14.2917
2515	15.0586
2515.5	15.4672
2516	15.1236
2516.5	14.382
2517	13.7176
2517.5	13.4962
2518	13.6882
2518.5	14.2285
2519	15.0502
2519.5	16.041
2520	16.8441
2520.5	17.0422
2521	16.5636
2521.5	15.8315
2522	15.5031
2522.5	15.8906
2523	16.7202
2523.5	17.4934
2524	18.0068
2524.5	18.5356
2525	19.2681
2525.5	19.9969
2526	20.2144
2526.5	19.6387
2527	18.4877
2527.5	17.3899
2528	16.7512
2528.5	16.5481
2529	16.5907
2529.5	16.8756
2530	17.4988
2530.5	18.4317
2531	19.2835
2531.5	19.5196
2532	18.8475
2532.5	17.4205
2533	15.766
2533.5	14.4001
2534	13.6616
2534.5	13.5888
2535	14.0869
2535.5	14.7469
2536	15.2841
2536.5	15.5142
2537	15.5415
2537.5	15.5259
2538	15.5567
2538.5	15.5565
2539	15.4569
2539.5	15.4199
2540	15.6766
2540.5	16.3389
2541	17.0341
2541.5	17.3349
2542	17.1011
2542.5	16.8659
2543	17.1979
2543.5	18.042
2544	18.6823
2544.5	18.1407
2545	16.4493
2545.5	14.4956
2546	13.7836
2546.5	14.6997
2547	16.7452
2547.5	18.4955
2548	18.9975
2548.5	18.042
2549	16.7364
2549.5	16.2085
2550	17.1406
2550.5	18.7338
2551	19.8796
2551.5	19.5296
2552	17.9618
2552.5	16.1328
2553	15.1631
2553.5	15.1211
2554	15.4554
2554.5	15.4907
2555	15.1955
2555.5	15.0319
2556	15.2978
2556.5	15.8107
2557	16.1261
2557.5	16.1289
2558	16.0014
2558.5	15.9877
2559	16.0208
2559.5	15.7764
2560	15.1777
2560.5	14.4418
2561	14.0564
2561.5	14.3308
2562	15.409
2562.5	17.0731
2563	18.8184
2563.5	19.9884
2564	20.1411
2564.5	19.2663
2565	17.7625
2565.5	16.4301
2566	15.8235
2566.5	16.0727
2567	16.8106
2567.5	17.6107
2568	17.9693
2568.5	17.5895
2569	16.2709
2569.5	14.4993
2570	12.9558
2570.5	12.3979
2571	12.8514
2571.5	13.9837
2572	15.1656
2572.5	16.1255
2573	16.9797
2573.5	17.9034
2574	18.7512
2574.5	19.0414
2575	18.6091
2575.5	17.6381
2576	16.716
2576.5	16.1843
2577	16.0234
2577.5	15.9878
2578	16.0247
2578.5	16.3079
2579	16.8385
2579.5	17.2587
2580	16.9655
2580.5	15.9137
2581	14.4788
2581.5	13.3855
2582	12.9401
2582.5	13.0282
2583	13.2384
2583.5	13.4623
2584	13.809
2584.5	14.2843
2585	14.7297
2585.5	14.9517
2586	15.0473
2586.5	15.1133
2587	14.9574
2587.5	14.2402
2588	12.8195
2588.5	11.4845
2589	11.2004
2589.5	12.5767
2590	14.7108
2590.5	16.43
2591	16.7407
2591.5	15.8663
2592	14.5633
2592.5	13.6447
2593	13.2941
2593.5	13.4337
2594	13.785
2594.5	14.2343
2595	14.7812
2595.5	15.4436
2596	16.1508
2596.5	16.5956
2597	16.5177
2597.5	15.9318
2598	15.5701
2598.5	16.0472
2599	17.3616
2599.5	18.3357
2600	17.8767
2600.5	15.7541
2601	13.3275
2601.5	12.1128
2602	12.4507
2602.5	13.3734
2603	13.5979
2603.5	12.9049
2604	12.1567
2604.5	12.6589
2605	14.3709
2605.5	16.4227
2606	17.517
2606.5	17.3886
2607	16.588
2607.5	16.0921
2608	16.0162
2608.5	15.87
2609	15.3503
2609.5	14.8306
2610	15.2145
2610.5	16.434
2611	17.5827
2611.5	17.2862
2612	15.1609
2612.5	11.6304
2613	8.13981
2613.5	5.63789
2614	4.74226
2614.5	5.21391
2615	6.82881
2615.5	9.09489
2616	11.4044
2616.5	13.2611
2617	14.4395
2617.5	14.9886
2618	15.0408
2618.5	14.9486
2619	14.9572
2619.5	15.1586
2620	15.4047
2620.5	15.5409
2621	15.5455
2621.5	15.5269
2622	15.5419
2622.5	15.5269
2623	15.4673
2623.5	15.492
2624	15.6919
2624.5	15.9538
2625	15.9727
2625.5	15.7346
2626	15.5239
2626.5	15.6684
2627	16.0282
2627.5	15.981
2628	15.2148
2628.5	14.0816
2629	13.5361
2629.5	14.0878
2630	15.5645
2630.5	16.9537
2631	17.5936
2631.5	17.4463
2632	17.1304
2632.5	17.0264
2633	17.0971
2633.5	17.056
2634	16.9705
2634.5	17.2611
2635	18.0347
2635.5	18.8607
2636	18.7956
2636.5	17.6145
2637	15.827
2637.5	14.5856
2638	14.4999
2638.5	15.5224
2639	16.7146
2639.5	17.4475
2640	17.5778
2640.5	17.4104
2641	17.1873
2641.5	16.9266
2642	16.5216
2642.5	15.9779
2643	15.5631
2643.5	15.5154
2644	15.8197
2644.5	16.0197
2645	15.7067
2645.5	14.9483
2646	14.2876
2646.5	14.4
2647	15.4236
2647.5	16.8842
2648	18.0232
2648.5	18.3445
2649	17.6486
2649.5	16.1377
2650	14.5032
2650.5	13.5218
2651	13.6353
2651.5	14.5792
2652	15.6194
2652.5	15.9999
2653	15.6622
2653.5	14.9733
2654	14.2797
2654.5	13.6088
2655	13.0293
2655.5	12.9221
2656	13.7672
2656.5	15.2443
2657	16.4624
2657.5	16.3148
2658	15.1201
2658.5	13.8996
2659	13.6116
2659.5	14.0314
2660	14.4844
2660.5	14.6147
2661	14.8659
2661.5	15.6872
2662	16.6597
2662.5	17.0807
2663	16.5636
2663.5	15.8849
2664	15.7222
2664.5	16.0631
2665	16.3031
2665.5	16.0576
2666	15.7424
2666.5	15.8832
2667	16.6682
2667.5	17.6242
2668	18.3045
2668.5	18.3267
2669	17.6984
2669.5	16.5408
2670	15.4553
2670.5	15.117
2671	15.9972
2671.5	17.3547
2672	18.3745
2672.5	18.5389
2673	18.2216
2673.5	17.709
2674	16.824
2674.5	15.3534
2675	13.5778
2675.5	12.4906
2676	12.7186
2676.5	14.0241
2677	15.2144
2677.5	15.5494
2678	14.8008
2678.5	13.5289
2679	12.413
2679.5	12.2156
2680	13.1715
2680.5	14.9339
2681	16.1056
2681.5	15.7066
2682	13.9096
2682.5	12.5191
2683	12.8989
2683.5	15.0421
2684	17.081
2684.5	17.3978
2685	15.9852
2685.5	14.0943
2686	13.1015
2686.5	13.1829
2687	13.7075
2687.5	14.0221
2688	14.0546
2688.5	14.0307
2689	14.1721
2689.5	14.4551
2690	14.8402
2690.5	15.3179
2691	15.8231
2691.5	16.0616
2692	15.8067
2692.5	15.1032
2693	14.4216
2693.5	14.2316
2694	14.5484
2694.5	14.785
2695	14.5717
2695.5	14.0631
2696	13.9592
2696.5	14.5223
2697	15.2704
2697.5	15.4711
2698	14.9617
2698.5	14.4234
2699	14.5096
2699.5	15.1153
2700	15.3107
2700.5	14.5247
2701	13.0106
2701.5	12.1621
2702	12.8666
2702.5	15.0958
2703	17.5224
2703.5	18.8554
2704	18.7695
2704.5	18.023
2705	17.4271
2705.5	17.2002
2706	16.9696
2706.5	16.3556
2707	15.5827
2707.5	14.9683
2708	14.5974
2708.5	14.2704
2709	14.0437
2709.5	14.3364
2710	15.297
2710.5	16.4631
2711	16.8689
2711.5	16.2351
2712	15.1355
2712.5	14.5625
2713	14.9863
2713.5	15.9199
2714	16.6146
2714.5	16.6022
2715	15.9571
2715.5	14.9687
2716	14.0611
2716.5	13.3844
2717	12.9412
2717.5	12.8557
2718	13.2648
2718.5	14.1291
2719	15.0571
2719.5	15.5535
2720	15.4455
2720.5	15.0802
2721	14.6997
2721.5	14.2832
2722	13.7491
2722.5	13.4382
2723	13.8219
2723.5	14.9274
2724	16.0965
2724.5	16.6946
2725	16.6875
2725.5	16.4574
2726	15.885
2726.5	14.0247
2727	10.2781
2727.5	5.29987
2728	1.03465
2728.5	0
2729	2.7581
2729.5	7.83179
2730	12.7259
2730.5	15.3285
2731	15.4645
2731.5	14.7237
2732	14.6112
2732.5	15.5637
2733	16.7022
2733.5	16.9363
2734	16.1571
2734.5	15.1287
2735	14.8283
2735.5	15.5541
2736	16.8004
2736.5	17.8853
2737	18.268
2737.5	17.6921
2738	16.4494
2738.5	15.2254
2739	14.8133
2739.5	15.5594
2740	16.737
2740.5	17.1602
2741	16.2989
2741.5	14.7101
2742	13.6659
2742.5	13.8113
2743	14.7517
2743.5	15.7313
2744	16.3264
2744.5	16.6316
2745	16.7341
2745.5	16.4436
2746	15.6239
2746.5	14.576
2747	13.9001
2747.5	13.8512
2748	14.2605
2748.5	14.8443
2749	15.5035
2749.5	16.1644
2750	16.5058
2750.5	16.1193
2751	14.9696
2751.5	13.757
2752	13.2587
2752.5	13.7375
2753	14.8831
2753.5	16.1388
2754	17.1128
2754.5	17.6047
2755	17.4837
2755.5	16.8076
2756	16.05
2756.5	15.7828
2757	16.1544
2757.5	16.7889
2758	17.0867
2758.5	16.8402
2759	16.3188
2759.5	15.8755
2760	15.7244
2760.5	15.9442
2761	16.4187
2761.5	16.8329
2762	16.7087
2762.5	15.7123
2763	14.1114
2763.5	12.6596
2764	11.8847
2764.5	11.835
2765	12.2679
2765.5	13.0135
2766	13.9652
2766.5	14.7283
2767	14.6202
2767.5	13.1757
2768	11.0683
2768.5	9.56501
2769	9.59799
2769.5	11.1629
2770	13.3683
2770.5	15.2081
2771	16.2142
2771.5	16.2902
2772	15.5051
2772.5	14.1323
2773	12.7698
2773.5	12.0659
2774	12.4144
2774.5	13.728
2775	15.408
2775.5	16.7309
2776	17.1703
2776.5	16.4988
2777	14.8862
2777.5	13.0245
2778	11.7205
2778.5	11.4296
2779	12.015
2779.5	12.8248
2780	13.2341
2780.5	13.2277
2781	13.2441
2781.5	13.6888
2782	14.4521
2782.5	14.913
2783	14.6927
2783.5	14.0607
2784	13.757
2784.5	14.3804
2785	15.6929
2785.5	17.0406
2786	17.9939
2786.5	18.5764
2787	18.9593
2787.5	19.0079
2788	18.4299
2788.5	17.29
2789	16.183
2789.5	15.8318
2790	16.1902
2790.5	16.5836
2791	16.4419
2791.5	15.9041
2792	15.8351
2792.5	16.8265
2793	18.5142
2793.5	19.8453
2794	19.8493
2794.5	18.3958
2795	16.5571
2795.5	15.4228
2796	15.3964
2796.5	16.0001
2797	16.2949
2797.5	15.8764
2798	15.1095
2798.5	14.6249
2799	14.7544
2799.5	15.2802
2800	15.6889
2800.5	15.7774
2801	15.7329
2801.5	15.9005
2802	16.3982
2802.5	16.7936
2803	16.4635
2803.5	15.1655
2804	13.4161
2804.5	12.3647
2805	12.7606
2805.5	14.1269
2806	15.2672
2806.5	15.2909
2807	14.4078
2807.5	13.7244
2808	13.8514
2808.5	14.4272
2809	14.7363
2809.5	14.5986
2810	14.6399
2810.5	15.3429
2811	16.3376
2811.5	16.7271
2812	15.9531
2812.5	14.4767
2813	13.399
2813.5	13.2962
2814	13.8536
2814.5	14.2423
2815	13.938
2815.5	13.4046
2816	13.5085
2816.5	14.6181
2817	16.156
2817.5	16.8939
2818	16.0836
2818.5	14.1451
2819	12.0953
2819.5	10.8009
2820	10.5935
2820.5	11.4133
2821	13.0321
2821.5	15.0512
2822	16.7085
2822.5	17.1818
2823	16.2682
2823.5	14.8714
2824	14.0321
2824.5	14.1236
2825	14.722
2825.5	15.166
2826	15.2674
2826.5	15.2559
2827	15.2486
2827.5	15.1142
2828	14.7302
2828.5	14.2999
2829	14.2467
2829.5	14.8564
2830	16.1441
2830.5	17.8332
2831	19.2958
2831.5	19.6954
2832	18.5703
2832.5	16.3036
2833	14.1015
2833.5	13.2716
2834	14.0841
2834.5	15.4429
2835	16.1918
2835.5	16.01
2836	15.5387
2836.5	15.6982
2837	16.6304
2837.5	17.7188
2838	18.2193
2838.5	17.7511
2839	16.4337
2839.5	14.8084
2840	13.5542
2840.5	13.1652
2841	13.7143
2841.5	14.7579
2842	15.5597
2842.5	15.6965
2843	15.3104
2843.5	14.74
2844	14.1323
2844.5	13.4024
2845	12.6152
2845.5	12.2441
2846	12.7757
2846.5	14.2007
2847	15.9002
2847.5	17.029
2848	17.1553
2848.5	16.4499
2849	15.2798
2849.5	13.9994
2850	12.9506
2850.5	12.5282
2851	12.9092
2851.5	13.8959
2852	15.0615
2852.5	16.0872
2853	16.975
2853.5	17.9067
2854	18.8831
2854.5	19.694
2855	20.1615
2855.5	20.2714
2856	20.0316
2856.5	19.288
2857	17.9431
2857.5	16.2833
2858	14.9683
2858.5	14.5253
2859	14.8052
2859.5	15.032
2860	14.7929
2860.5	14.5184
2861	14.975
2861.5	16.3028
2862	17.5283
2862.5	17.4296
2863	15.9912
2863.5	14.4135
2864	13.9937
2864.5	14.8874
2865	15.8939
2865.5	15.7865
2866	14.7175
2866.5	13.8637
2867	14.2044
2867.5	15.5583
2868	16.716
2868.5	16.7715
2869	15.9555
2869.5	15.1003
2870	14.7583
2870.5	14.7947
2871	14.7673
2871.5	14.6364
2872	14.6947
2872.5	15.0184
2873	15.272
2873.5	15.1105
2874	14.7611
2874.5	14.9479
2875	15.9894
2875.5	17.3837
2876	18.184
2876.5	17.8161
2877	16.5912
2877.5	15.4866
2878	15.1992
2878.5	15.8011
2879	16.7927
2879.5	17.3954
2880	16.9126
2880.5	15.3654
2881	13.5721
2881.5	12.658
2882	13.256
2882.5	14.9543
2883	16.4914
2883.5	16.7898
2884	15.8544
2884.5	14.4745
2885	13.506
2885.5	13.3126
2886	13.7293
2886.5	14.3911
2887	15.0828
2887.5	15.7537
2888	16.3486
2888.5	16.7113
2889	16.6335
2889.5	16.0535
2890	15.2768
2890.5	14.798
2891	14.9643
2891.5	15.6697
2892	16.3688
2892.5	16.4249
2893	15.6665
2893.5	14.4546
2894	13.4069
2894.5	13.1038
2895	13.8444
2895.5	15.4502
2896	17.1284
2896.5	17.9355
2897	17.5092
2897.5	16.4322
2898	15.8353
2898.5	16.4231
2899	17.7557
2899.5	18.6776
2900	18.6348
2900.5	17.9518
2901	17.1647
2901.5	16.2657
2902	14.83
2902.5	13.0725
2903	12.1539
2903.5	13.031
2904	15.2827
2904.5	17.1953
2905	17.2045
2905.5	15.3759
2906	13.4963
2906.5	12.9814
2907	13.8445
2907.5	14.9975
2908	15.4083
2908.5	14.9409
2909	14.1923
2909.5	13.603
2910	13.1473
2910.5	12.7056
2911	12.4431
2911.5	12.7456
2912	13.771
2912.5	15.011
2913	15.6595
2913.5	15.1962
2914	13.7455
2914.5	12.0263
2915	10.9778
2915.5	11.2813
2916	12.733
2916.5	14.4002
2917	15.1827
2917.5	14.6377
2918	13.3935
2918.5	12.6569
2919	13.0473
2919.5	13.9136
2920	14.2959
2920.5	14.027
2921	13.9115
2921.5	14.803
2922	16.543
2922.5	17.8721
2923	17.7178
2923.5	16.1365
2924	14.1504
2924.5	12.9029
2925	12.851
2925.5	13.5361
2926	13.9945
2926.5	13.6445
2927	12.6951
2927.5	11.9063
2928	11.9718
2928.5	13.0136
2929	14.5667
2929.5	15.9537
2930	16.717
2930.5	16.6747
2931	15.8911
2931.5	14.6873
2932	13.5484
2932.5	12.8715
2933	12.7203
2933.5	12.872
2934	13.1136
2934.5	13.3123
2935	13.3661
2935.5	13.1987
2936	12.8113
2936.5	12.2291
2937	11.4112
2937.5	10.4083
2938	9.67976
2938.5	9.96435
2939	11.5398
2939.5	13.5757
2940	14.5017
2940.5	13.7106
2941	12.2841
2941.5	11.9002
2942	13.1848
2942.5	15.1488
2943	16.2612
2943.5	15.9965
2944	15.3247
2944.5	15.271
2945	15.6741
2945.5	15.3709
2946	13.4768
2946.5	10.5259
2947	8.39246
2947.5	8.86962
2948	11.6979
2948.5	14.9299
2949	16.5568
2949.5	16.0988
2950	14.707
2950.5	13.8052
2951	13.7408
2951.5	13.7793
2952	13.4172
2952.5	12.9101
2953	12.7047
2953.5	12.7614
2954	12.6104
2954.5	11.9426
2955	10.9226
2955.5	9.91552
2956	9.21973
2956.5	9.22161
2957	10.3323
2957.5	12.4358
2958	14.4817
2958.5	15.0484
2959	13.8078
2959.5	12.1329
2960	11.5846
2960.5	12.3561
2961	13.1961
2961.5	12.9246
2962	11.822
2962.5	11.3274
2963	12.2527
2963.5	13.866
2964	14.9965
2964.5	15.2373
2965	14.9522
2965.5	14.3989
2966	13.3581
2966.5	11.8217
2967	10.6579
2967.5	10.7665
2968	11.9367
2968.5	13.0005
2969	13.1789
2969.5	12.9797
2970	13.4761
2970.5	14.7884
2971	15.7014
2971.5	15.2686
2972	13.9296
2972.5	12.8866
2973	12.7142
2973.5	12.9179
2974	12.8541
2974.5	12.7126
2975	13.2019
2975.5	14.3475
2976	15.3968
2976.5	15.7696
2977	15.7121
2977.5	15.8074
2978	16.0385
2978.5	15.7237
2979	14.5586
2979.5	13.3821
2980	13.2062
2980.5	14.0032
2981	14.6603
2981.5	14.2153
2982	12.9651
2982.5	12.1656
2983	12.6412
2983.5	13.7515
2984	14.2434
2984.5	13.4938
2985	11.9817
2985.5	10.8047
2986	10.8405
2986.5	12.1845
2987	14.0773
2987.5	15.2786
2988	14.9839
2988.5	13.4267
2989	11.7427
2989.5	11.084
2990	11.6887
2990.5	12.7695
2991	13.3298
2991.5	13.0993
2992	12.7213
2992.5	12.9073
2993	13.7604
2993.5	14.8153
2994	15.5388
2994.5	15.7422
2995	15.5889
2995.5	15.3146
2996	14.9775
2996.5	14.4645
2997	13.7292
2997.5	13.0058
2998	12.7835
2998.5	13.471
2999	14.9377
2999.5	16.3467
3000	16.5954
3000.5	15.1919
3001	12.9653
3001.5	11.3885
3002	11.3548
3002.5	12.4835
3003	13.6126
3003.5	13.9746
3004	13.8125
3004.5	13.8218
3005	14.1467
3005.5	14.2076
3006	13.6606
3006.5	12.9735
3007	12.9045
3007.5	13.5964
3008	14.4243
3008.5	14.7585
3009	14.6833
3009.5	14.8175
3010	15.4746
3010.5	16.2166
3011	16.3302
3011.5	15.4271
3012	13.692
3012.5	11.7559
3013	10.3862
3013.5	10.0918
3014	10.7891
3014.5	11.8216
3015	12.5017
3015.5	12.713
3016	12.8249
3016.5	13.2172
3017	13.9674
3017.5	14.9226
3018	15.8333
3018.5	16.2965
3019	15.7724
3019.5	14.0833
3020	12.028
3020.5	10.9087
3021	11.4364
3021.5	12.9894
3022	14.116
3022.5	13.8811
3023	12.7533
3023.5	12.1515
3024	13.0758
3024.5	15.0441
3025	16.5334
3025.5	16.5426
3026	15.5021
3026.5	14.8116
3027	15.4026
3027.5	16.7454
3028	17.3643
3028.5	16.3934
3029	14.5426
3029.5	13.3868
3030	13.5452
3030.5	14.134
3031	13.8865
3031.5	12.5284
3032	10.9977
3032.5	10.479
3033	11.4007
3033.5	13.3046
3034	15.3982
3034.5	17.0219
3035	17.7887
3035.5	17.5816
3036	16.6367
3036.5	15.5216
3037	14.8102
3037.5	14.6699
3038	14.7372
3038.5	14.4358
3039	13.5361
3039.5	12.5358
3040	12.4773
3040.5	13.9935
3041	16.544
3041.5	18.6555
3042	19.1497
3042.5	18.2197
3043	17.1288
3043.5	16.7423
3044	16.5399
3044.5	15.3614
3045	13.094
3045.5	11.2283
3046	11.2061
3046.5	12.7164
3047	14.1144
3047.5	14.2818
3048	13.7147
3048.5	13.667
3049	14.5511
3049.5	15.5468
3050	15.7233
3050.5	15.1086
3051	14.3805
3051.5	13.7322
3052	12.7014
3052.5	11.183
3053	10.0501
3053.5	10.414
3054	12.3115
3054.5	14.4162
3055	15.2099
3055.5	14.3411
3056	12.7207
3056.5	11.4298
3057	10.7952
3057.5	10.5897
3058	10.7121
3058.5	11.2233
3059	12.0192
3059.5	12.8231
3060	13.51
3060.5	14.1563
3061	14.662
3061.5	14.5837
3062	13.6138
3062.5	12.1406
3063	11.0437
3063.5	10.8136
3064	11.2478
3064.5	11.8977
3065	12.4699
3065.5	12.7267
3066	12.3449
3066.5	11.2162
3067	9.79793
3067.5	8.8418
3068	8.7023
3068.5	9.15059
3069	9.95883
3069.5	11.3017
3070	13.2527
3070.5	15.1764
3071	16.0938
3071.5	15.7027
3072	14.7544
3072.5	14.2486
3073	14.4159
3073.5	14.7112
3074	14.7356
3074.5	14.8265
3075	15.5067
3075.5	16.4736
3076	16.6059
3076.5	15.2592
3077	13.1916
3077.5	11.951
3078	12.2765
3078.5	13.334
3079	13.7241
3079.5	13.0905
3080	12.3721
3080.5	12.4103
3081	12.7417
3081.5	12.2331
3082	10.813
3082.5	9.98664
3083	11.1025
3083.5	13.7352
3084	16.0624
3084.5	16.6662
3085	15.7022
3085.5	14.3959
3086	13.7462
3086.5	13.8425
3087	14.1639
3087.5	14.2333
3088	13.9941
3088.5	13.7575
3089	13.8583
3089.5	14.2486
3090	14.5017
3090.5	14.2951
3091	13.8455
3091.5	13.7329
3092	14.2518
3092.5	15.0564
3093	15.5257
3093.5	15.4014
3094	14.9729
3094.5	14.7299
3095	14.9835
3095.5	15.7433
3096	16.7074
3096.5	17.2928
3097	17.0123
3097.5	16.0016
3098	15.0596
3098.5	14.9051
3099	15.3815
3099.5	15.6263
3100	15.1257
3100.5	14.3887
3101	14.3372
3101.5	15.0971
3102	15.6945
3102.5	15.1049
3103	13.4499
3103.5	11.945
3104	11.6965
3104.5	12.6572
3105	13.9477
3105.5	14.8995
3106	15.5507
3106.5	16.2556
3107	17.0046
3107.5	17.2607
3108	16.481
3108.5	14.7734
3109	12.9914
3109.5	12.1188
3110	12.519
3110.5	13.7815
3111	15.2582
3111.5	16.6127
3112	17.7327
3112.5	18.2351
3113	17.4945
3113.5	15.4025
3114	12.9817
3114.5	11.9089
3115	13.1825
3115.5	16.1859
3116	19.0743
3116.5	20.1311
3117	18.8974
3117.5	16.2521
3118	13.6116
3118.5	12.0081
3119	11.6476
3119.5	12.0698
3120	12.6607
3120.5	13.1145
3121	13.5105
3121.5	14.007
3122	14.5624
3122.5	15.0422
3123	15.4628
3123.5	15.9468
3124	16.4469
3124.5	16.7306
3125	16.7338
3125.5	16.7041
3126	16.7634
3126.5	16.5062
3127	15.4534
3127.5	13.9747
3128	13.317
3128.5	14.3384
3129	16.3911
3129.5	17.854
3130	17.7524
3130.5	16.5435
3131	15.3262
3131.5	14.7123
3132	14.7327
3132.5	15.1842
3133	15.6826
3133.5	15.695
3134	15.001
3134.5	14.0827
3135	13.7273
3135.5	14.2391
3136	15.3003
3136.5	16.5283
3137	17.7544
3137.5	18.6687
3138	18.676
3138.5	17.4976
3139	15.7023
3139.5	14.267
3140	13.7061
3140.5	13.9603
3141	15.0127
3141.5	17.0045
3142	19.5767
3142.5	21.5346
3143	21.6291
3143.5	19.7142
3144	17.0206
3144.5	15.238
3145	15.2129
3145.5	16.3319
3146	17.1317
3146.5	16.6872
3147	15.4903
3147.5	14.8482
3148	15.4209
3148.5	16.6133
3149	17.4696
3149.5	17.7403
3150	17.7118
3150.5	17.3715
3151	16.472
3151.5	15.4551
3152	15.546
3152.5	17.4085
3153	20.0304
3153.5	21.5893
3154	21.2856
3154.5	19.8919
3155	18.6902
3155.5	18.264
3156	18.3299
3156.5	18.3509
3157	18.1048
3157.5	17.8149
3158	17.8708
3158.5	18.3643
3159	18.8985
3159.5	18.9836
3160	18.6187
3160.5	18.282
3161	18.3169
3161.5	18.5776
3162	18.7955
3162.5	19.0006
3163	19.3066
3163.5	19.4917
3164	19.1881
3164.5	18.4472
3165	17.7285
3165.5	17.2524
3166	16.7523
3166.5	16.0891
3167	15.764
3167.5	16.3551
3168	17.6433
3168.5	18.759
3169	19.2244
3169.5	19.4743
3170	20.1138
3170.5	20.9042
3171	20.8863
3171.5	19.573
3172	17.7197
3172.5	16.6617
3173	16.9797
3173.5	18.0647
3174	19.0071
3174.5	19.6194
3175	20.3667
3175.5	21.4711
3176	22.4713
3176.5	22.7924
3177	22.4819
3177.5	22.0924
3178	21.8862
3178.5	21.4522
3179	20.2564
3179.5	18.4005
3180	16.5959
3180.5	15.4187
3181	14.8748
3181.5	14.836
3182	15.5939
3182.5	17.5171
3183	20.1375
3183.5	22.0904
3184	22.3941
3184.5	21.5013
3185	20.6181
3185.5	20.1953
3186	19.6443
3186.5	18.5594
3187	17.5296
3187.5	17.3307
3188	17.8189
3188.5	18.2683
3189	18.5732
3189.5	19.363
3190	20.8393
3190.5	22.2062
3191	22.6339
3191.5	22.2717
3192	21.7872
3192.5	21.2664
3193	20.2715
3193.5	18.9173
3194	18.1478
3194.5	18.6562
3195	20.0558
3195.5	21.5339
3196	22.9097
3196.5	24.4405
3197	25.7721
3197.5	25.8909
3198	24.4545
3198.5	22.6452
3199	22.1253
3199.5	23.266
3200	24.8779
3200.5	25.6919
3201	25.6187
3201.5	25.3351
3202	25.0625
3202.5	24.2754
3203	22.5859
3203.5	20.4987
3204	19.0737
3204.5	18.9585
3205	19.8554
3205.5	20.9063
3206	21.493
3206.5	21.6823
3207	21.8885
3207.5	22.1835
3208	22.2025
3208.5	21.8731
3209	21.8793
3209.5	22.8805
3210	24.3727
3210.5	25.0189
3211	24.3713
3211.5	23.6422
3212	24.1647
3212.5	25.5828
3213	26.3083
3213.5	25.6082
3214	24.4067
3214.5	23.8302
3215	23.6928
3215.5	22.9322
3216	21.1516
3216.5	19.1824
3217	18.2146
3217.5	18.7165
3218	20.1337
3218.5	21.3779
3219	21.701
3219.5	21.3649
3220	21.3951
3220.5	22.4463
3221	23.995
3221.5	24.8939
3222	24.5871
3222.5	23.4494
3223	22.0677
3223.5	20.7278
3224	19.7122
3224.5	19.531
3225	20.4319
3225.5	21.9458
3226	23.3372
3226.5	24.3819
3227	25.3177
3227.5	26.0961
3228	26.1837
3228.5	25.3438
3229	24.2803
3229.5	24.0453
3230	24.7691
3230.5	25.3489
3231	24.7058
3231.5	23.1989
3232	22.3433
3232.5	22.9806
3233	24.1815
3233.5	24.4576
3234	23.8207
3234.5	23.8783
3235	25.6512
3235.5	27.9754
3236	28.7017
3236.5	27.1921
3237	24.955
3237.5	23.8364
3238	24.1961
3238.5	25.0198
3239	25.2585
3239.5	24.6892
3240	23.85
3240.5	23.6051
3241	24.5806
3241.5	26.5108
3242	28.1063
3242.5	28.0116
3243	26.0976
3243.5	23.6875
3244	22.3669
3244.5	22.615
3245	23.6006
3245.5	24.1559
3246	23.8534
3246.5	23.246
3247	23.2068
3247.5	24.0264
3248	25.0892
3248.5	25.4691
3249	24.912
3249.5	24.1638
3250	24.1779
3250.5	25.0089
3251	25.6896
3251.5	25.3094
3252	24.0437
3252.5	22.9247
3253	22.7159
3253.5	23.2938
3254	24.0961
3254.5	24.7729
3255	25.1998
3255.5	25.2218
3256	24.8543
3256.5	24.6641
3257	25.459
3257.5	27.3569
3258	29.384
3258.5	30.2633
3259	29.5502
3259.5	27.9324
3260	26.5075
3260.5	25.8614
3261	25.7599
3261.5	25.5742
3262	24.9409
3262.5	24.0478
3263	23.3694
3263.5	23.233
3264	23.6329
3264.5	24.2789
3265	24.7044
3265.5	24.5331
3266	23.9126
3266.5	23.5684
3267	24.0753
3267.5	25.094
3268	25.6975
3268.5	25.4771
3269	24.8826
3269.5	24.3773
3270	23.8722
3270.5	23.3846
3271	23.6321
3271.5	25.1381
3272	26.9448
3272.5	27.1785
3273	25.2398
3273.5	22.8151
3274	22.2039
3274.5	23.9208
3275	26.3664
3275.5	27.6712
3276	27.3842
3276.5	26.3382
3277	25.3857
3277.5	24.7161
3278	24.2994
3278.5	24.399
3279	25.1382
3279.5	25.8056
3280	25.3734
3280.5	24.0538
3281	23.7146
3281.5	26.0043
3282	30.2832
3282.5	34.1741
3283	36.1364
3283.5	36.6662
3284	36.759
3284.5	36.1552
3285	33.9399
3285.5	30.3404
3286	26.9711
3286.5	25.278
3287	25.2562
3287.5	25.761
3288	25.7408
3288.5	25.1383
3289	24.8198
3289.5	25.6056
3290	27.2295
3290.5	28.4148
3291	28.174
3291.5	26.7902
3292	25.2468
3292.5	24.0668
3293	23.2726
3293.5	23.2035
3294	24.4581
3294.5	26.7843
3295	28.7567
3295.5	29.1178
3296	28.1414
3296.5	27.2384
3297	27.3807
3297.5	28.2336
3298	28.7026
3298.5	28.041
3299	26.5085
3299.5	25.1518
3300	24.8167
3300.5	25.2037
3301	25.1166
3301.5	23.9327
3302	22.5955
3302.5	22.6104
3303	24.2668
3303.5	26.2977
3304	27.3285
3304.5	27.1868
3305	26.5998
3305.5	26.0825
3306	25.6243
3306.5	25.2771
3307	25.4157
3307.5	26.1627
3308	26.97
3308.5	27.2584
3309	27.3624
3309.5	28.2434
3310	29.9869
3310.5	31.0677
3311	29.8023
3311.5	26.5631
3312	23.911
3312.5	24.0856
3313	26.6251
3313.5	28.9069
3314	28.9445
3314.5	27.1832
3315	25.4857
3315.5	24.83
3316	24.6898
3316.5	24.3983
3317	24.2438
3317.5	24.8447
3318	25.9025
3318.5	26.3394
3319	25.7838
3319.5	25.2598
3320	25.9011
3320.5	27.3411
3321	28.0332
3321.5	27.1633
3322	25.6773
3322.5	25.1995
3323	26.2843
3323.5	27.938
3324	28.6145
3324.5	27.5629
3325	25.5314
3325.5	24.3296
3326	25.3302
3326.5	27.922
3327	29.8368
3327.5	29.3195
3328	26.9184
3328.5	24.9393
3329	25.1536
3329.5	27.2252
3330	29.3501
3330.5	30.1903
3331	29.9895
3331.5	29.7843
3332	29.7814
3332.5	29.0446
3333	27.0826
3333.5	25.2086
3334	25.3993
3334.5	27.7394
3335	29.9531
3335.5	29.9942
3336	28.366
3336.5	27.1458
3337	27.2547
3337.5	27.9358
3338	28.4465
3338.5	28.9793
3339	29.7737
3339.5	30.3553
3340	30.177
3340.5	29.4084
3341	28.6134
3341.5	28.0641
3342	27.7845
3342.5	27.8969
3343	28.4367
3343.5	29.0364
3344	29.2673
3344.5	29.2436
3345	29.5091
3345.5	30.28
3346	31.0752
3346.5	31.2936
3347	30.9196
3347.5	30.5452
3348	30.6614
3348.5	31.0105
3349	30.8695
3349.5	30.1154
3350	29.7472
3350.5	30.9097
3351	33.3999
3351.5	35.6199
3352	36.2562
3352.5	35.6676
3353	35.2659
3353.5	35.7131
3354	36.2465
3354.5	35.8667
3355	34.6981
3355.5	33.7935
3356	33.8263
3356.5	34.3929
3357	34.7878
3357.5	35.1101
3358	36.0643
3358.5	37.6819
3359	38.899
3359.5	38.8288
3360	38.0474
3360.5	38.0243
3361	39.4258
3361.5	41.5536
3362	43.4193
3362.5	44.729
3363	45.5176
3363.5	45.5551
3364	44.6447
3364.5	43.2869
3365	42.6083
3365.5	43.519
3366	46.0002
3366.5	49.1783
3367	52.0583
3367.5	54.2287
3368	55.8597
3368.5	57.0483
3369	57.4512
3369.5	56.9105
3370	56.1573
3370.5	56.2248
3371	57.1318
3371.5	57.6722
3372	56.8747
3372.5	55.3334
3373	54.604
3373.5	55.3507
3374	56.5376
3374.5	56.6016
3375	55.1036
3375.5	52.9217
3376	51.0059
3376.5	49.4188
3377	47.839
3377.5	46.4689
3378	45.8164
3378.5	45.7719
3379	45.5894
3379.5	45.0228
3380	44.8891
3380.5	45.9282
3381	47.3781
3381.5	47.4061
3382	45.1516
3382.5	41.9084
3383	39.9599
3383.5	40.1925
3384	41.4279
3384.5	41.8868
3385	41.0573
3385.5	39.9714
3386	39.7287
3386.5	40.1528
3387	40.27
3387.5	39.8533
3388	39.7576
3388.5	40.51
3389	41.258
3389.5	40.7606
3390	39.1094
3390.5	37.4894
3391	36.7359
3391.5	36.8009
3392	37.4855
3392.5	38.8815
3393	40.8161
3393.5	42.394
3394	42.5595
3394.5	41.0721
3395	38.8438
3395.5	37.3973
3396	37.6683
3396.5	39.1145
3397	39.9948
3397.5	39.0178
3398	36.8347
3398.5	35.4221
3399	35.8122
3399.5	36.997
3400	37.4747
3400.5	37.2899
3401	37.7165
3401.5	39.0871
3402	40.1118
3402.5	39.7455
3403	38.5706
3403.5	37.7781
3404	37.4149
3404.5	36.5706
3405	35.1268
3405.5	34.3004
3406	35.05
3406.5	36.6366
3407	37.4376
3407.5	36.9695
3408	36.1199
3408.5	35.6177
3409	35.1504
3409.5	34.2497
3410	33.4106
3410.5	33.6569
3411	35.1091
3411.5	36.5479
3412	36.5591
3412.5	34.8299
3413	32.3214
3413.5	30.404
3414	30.2322
3414.5	32.2126
3415	35.507
3415.5	38.2978
3416	39.1703
3416.5	38.3409
3417	37.1948
3417.5	36.615
3418	36.0903
3418.5	34.6164
3419	32.024
3419.5	29.3669
3420	28.2808
3420.5	29.6488
3421	32.4023
3421.5	33.9674
3422	32.7757
3422.5	30.3583
3423	30.0474
3423.5	32.8974
3424	36.4905
3424.5	37.8264
3425	36.5079
3425.5	34.5549
3426	33.7917
3426.5	34.2
3427	34.514
3427.5	33.7708
3428	32.2622
3428.5	31.2711
3429	31.6685
3429.5	32.9539
3430	33.8105
3430.5	33.5823
3431	32.7655
3431.5	32.0928
3432	31.7843
3432.5	31.8437
3433	32.3668
3433.5	33.1556
3434	33.6754
3434.5	33.72
3435	33.7116
3435.5	34.0718
3436	34.6348
3436.5	34.8636
3437	34.3781
3437.5	33.2771
3438	32.3483
3438.5	32.6417
3439	34.3264
3439.5	36.0266
3440	36.0147
3440.5	34.1302
3441	31.9019
3441.5	30.7768
3442	30.9534
3442.5	31.9394
3443	33.3494
3443.5	34.7213
3444	35.4467
3444.5	35.3975
3445	35.077
3445.5	34.8382
3446	34.4711
3446.5	33.8946
3447	33.7334
3447.5	34.5887
3448	36.1074
3448.5	37.1472
3449	36.793
3449.5	35.1576
3450	33.2825
3450.5	32.2157
3451	32.101
3451.5	32.2997
3452	32.5019
3452.5	32.9843
3453	33.6157
3453.5	33.4622
3454	32.0857
3454.5	30.6606
3455	30.7806
3455.5	32.2769
3456	33.2247
3456.5	32.5083
3457	31.0315
3457.5	30.4081
3458	31.1736
3458.5	32.6017
3459	33.759
3459.5	34.2667
3460	34.2228
3460.5	33.7898
3461	33.1058
3461.5	32.6167
3462	33.1129
3462.5	34.9336
3463	37.0444
3463.5	37.4964
3464	35.3556
3464.5	32.2277
3465	30.5589
3465.5	31.2952
3466	33.1632
3466.5	34.1936
3467	33.6343
3467.5	32.3451
3468	31.6231
3468.5	31.7839
3469	32.1771
3469.5	32.2241
3470	31.9802
3470.5	31.6744
3471	31.2029
3471.5	30.505
3472	30.1265
3472.5	30.6622
3473	31.7894
3473.5	32.5978
3474	32.7687
3474.5	32.769
3475	32.7794
3475.5	32.2394
3476	30.9318
3476.5	29.8324
3477	29.7862
3477.5	30.1324
3478	29.5783
3478.5	28.2818
3479	27.9398
3479.5	29.4032
3480	31.1496
3480.5	31.3029
3481	30.3304
3481.5	30.275
3482	31.8309
3482.5	33.4398
3483	33.5978
3483.5	32.903
3484	32.9108
3484.5	33.6345
3485	33.7593
3485.5	32.7644
3486	31.7304
3486.5	31.908
3487	33.2101
3487.5	34.3998
3488	34.4245
3488.5	33.1826
3489	31.2982
3489.5	29.5796
3490	28.5208
3490.5	28.1297
3491	28.1845
3491.5	28.5392
3492	29.1253
3492.5	29.8564
3493	30.6845
3493.5	31.4852
3494	31.7092
3494.5	30.6151
3495	28.4502
3495.5	26.9861
3496	27.8234
3496.5	30.534
3497	32.9374
3497.5	33.3156
3498	31.8503
3498.5	29.8992
3499	28.4872
3499.5	27.8367
3500	27.7414
3500.5	27.7654
3501	27.4694
3501.5	26.7722
3502	25.9333
3502.5	25.2041
3503	24.8904
3503.5	25.5903
3504	27.6008
3504.5	30.0438
3505	31.3276
3505.5	30.7703
3506	29.3365
3506.5	28.1168
3507	27.401
3507.5	27.1205
3508	27.2276
3508.5	27.1446
3509	25.7779
3509.5	23.2024
3510	21.327
3510.5	22.183
3511	25.735
3511.5	29.8501
3512	32.1603
3512.5	31.757
3513	29.5702
3513.5	27.3805
3514	26.6386
3514.5	27.4196
3515	28.537
3515.5	28.7795
3516	27.9894
3516.5	26.8034
3517	25.9338
3517.5	25.8397
3518	26.5153
3518.5	27.4768
3519	28.2948
3519.5	29.0346
3520	29.639
3520.5	29.4208
3521	27.9733
3521.5	26.2417
3522	25.702
3522.5	26.4263
3523	27.1715
3523.5	27.214
3524	26.7238
3524.5	25.8167
3525	24.5947
3525.5	24.097
3526	25.3707
3526.5	27.4699
3527	28.0682
3527.5	26.3673
3528	24.1123
3528.5	23.2442
3529	23.6339
3529.5	24.178
3530	24.5196
3530.5	24.74
3531	24.6332
3531.5	24.2423
3532	24.4039
3532.5	25.6549
3533	27.3675
3533.5	28.5913
3534	29.1429
3534.5	29.2511
3535	28.6736
3535.5	27.2124
3536	25.5654
3536.5	24.7582
3537	24.7511
3537.5	24.4206
3538	23.1752
3538.5	21.9848
3539	21.8539
3539.5	22.4443
3540	22.8325
3540.5	23.1996
3541	24.6568
3541.5	26.9721
3542	28.2257
3542.5	27.2166
3543	25.097
3543.5	23.8342
3544	23.7712
3544.5	23.7181
3545	23.1826
3545.5	22.7358
3546	22.7134
3546.5	22.73
3547	22.4666
3547.5	22.0477
3548	21.5072
3548.5	20.8121
3549	20.3196
3549.5	20.4862
3550	21.1854
3550.5	21.9579
3551	22.8335
3551.5	23.9603
3552	24.8216
3552.5	24.7242
3553	24.055
3553.5	23.9827
3554	24.595
3554.5	24.5705
3555	22.9562
3555.5	20.6947
3556	19.7654
3556.5	20.6785
3557	21.9838
3557.5	22.166
3558	21.6068
3558.5	22.1329
3559	24.3009
3559.5	26.1422
3560	25.667
3560.5	23.5247
3561	22.2641
3561.5	23.0275
3562	24.1045
3562.5	23.7421
3563	22.3044
3563.5	21.1671
3564	20.7246
3564.5	20.4555
3565	20.2257
3565.5	20.2254
3566	20.1963
3566.5	19.879
3567	19.8742
3567.5	20.8905
3568	22.2919
3568.5	22.7379
3569	22.0011
3569.5	21.255
3570	21.3892
3570.5	21.7926
3571	21.6237
3571.5	21.0678
3572	20.9872
3572.5	21.7883
3573	22.946
3573.5	23.4878
3574	22.5351
3574.5	19.8366
3575	16.2677
3575.5	13.4577
3576	12.1883
3576.5	12.0128
3577	12.5619
3577.5	14.4826
3578	18.2479
3578.5	22.191
3579	23.7317
3579.5	22.2567
3580	19.8296
3580.5	18.8023
3581	19.3909
3581.5	20.3435
3582	21.1221
3582.5	22.0745
3583	23.2495
3583.5	23.8389
3584	22.9884
3584.5	20.5848
3585	17.4843
3585.5	15.2493
3586	15.2484
3586.5	17.1686
3587	19.3492
3587.5	20.3666
3588	20.0394
3588.5	18.97
3589	17.8331
3589.5	17.2668
3590	17.6592
3590.5	18.5496
3591	18.9641
3591.5	18.7968
3592	18.8641
3592.5	19.2468
3593	19.0221
3593.5	17.9974
3594	17.4888
3594.5	18.2197
3595	19.1033
3595.5	19.06
3596	18.7538
3596.5	19.3188
3597	20.1474
3597.5	19.907
3598	18.6591
3598.5	17.7462
3599	17.9057
3599.5	18.5004
3600	18.8144
3600.5	18.7917
3601	18.7953
3601.5	19.1383
3602	19.6653
3602.5	19.7324
3603	18.7885
3603.5	17.0559
3604	15.2916
3604.5	13.9807
3605	13.4925
3605.5	14.5562
3606	17.438
3606.5	20.6329
3607	21.7747
3607.5	20.0852
3608	16.8554
3608.5	13.884
3609	12.119
3609.5	11.742
3610	12.7712
3610.5	14.75
3611	16.5156
3611.5	16.9188
3612	16.0851
3612.5	15.3174
3613	15.7037
3613.5	16.7696
3614	17.1094
3614.5	16.6854
3615	16.931
3615.5	18.4602
3616	19.7183
3616.5	19.0461
3617	16.8885
3617.5	14.7228
3618	13.3497
3618.5	13.1536
3619	14.5137
3619.5	16.7251
3620	17.6858
3620.5	16.3571
3621	14.7416
3621.5	15.1774
3622	16.9218
3622.5	17.3595
3623	15.566
3623.5	13.3385
3624	12.5476
3624.5	13.7008
3625	16.512
3625.5	19.9358
3626	21.7767
3626.5	20.3166
3627	16.4028
3627.5	13.0323
3628	12.3048
3628.5	13.4462
3629	14.8712
3629.5	16.0343
3630	16.9569
3630.5	17.105
3631	16.1439
3631.5	15.0026
3632	14.8531
3632.5	15.1966
3633	14.4694
3633.5	12.7694
3634	12.1212
3634.5	13.8671
3635	16.5843
3635.5	17.9128
3636	17.2957
3636.5	16.0607
3637	15.7165
3637.5	16.5146
3638	17.6974
3638.5	18.3528
3639	18.1849
3639.5	17.7977
3640	17.897
3640.5	18.4702
3641	18.981
3641.5	18.8929
3642	17.7792
3642.5	15.4629
3643	12.8398
3643.5	11.8408
3644	13.23
3644.5	15.2313
3645	15.6987
3645.5	14.5726
3646	13.4633
3646.5	12.9982
3647	12.3593
3647.5	11.0364
3648	9.69292
3648.5	9.2903
3649	10.1311
3649.5	11.8228
3650	13.3969
3650.5	13.8514
3651	13.2922
3651.5	12.7924
3652	13.1013
3652.5	13.7729
3653	13.9647
3653.5	13.6701
3654	13.5594
3654.5	14.0659
3655	14.6647
3655.5	14.386
3656	13.0139
3656.5	11.709
3657	11.863
3657.5	13.2196
3658	14.4556
3658.5	15.0275
3659	15.4833
3659.5	15.7896
3660	15.1018
3660.5	13.5228
3661	12.6512
3661.5	13.3437
3662	14.4867
3662.5	14.6026
3663	13.722
3663.5	13.2612
3664	14.1796
3664.5	16.0126
3665	17.1524
3665.5	16.331
3666	14.1702
3666.5	12.5103
3667	12.407
3667.5	13.0425
3668	13.1938
3668.5	12.8705
3669	12.7054
3669.5	12.746
3670	12.578
3670.5	12.2595
3671	12.3131
3671.5	13.0302
3672	13.9422
3672.5	14.1713
3673	13.222
3673.5	11.7827
3674	11.3013
3674.5	12.1914
3675	13.2978
3675.5	13.3156
3676	12.4468
3676.5	11.5824
3677	10.9409
3677.5	10.3821
3678	10.3429
3678.5	11.1931
3679	12.1875
3679.5	12.1427
3680	11.2404
3680.5	10.7164
3681	11.0314
3681.5	11.4227
3682	11.3191
3682.5	11.1527
3683	11.2529
3683.5	11.0276
3684	10.0074
3684.5	9.12473
3685	9.84848
3685.5	12.2707
3686	14.4795
3686.5	14.8426
3687	13.5083
3687.5	11.6669
3688	10.0957
3688.5	9.10541
3689	9.20657
3689.5	10.4818
3690	11.6114
3690.5	11.2963
3691	9.88963
3691.5	8.87447
3692	8.8166
3692.5	9.28378
3693	10.1091
3693.5	11.2825
3694	11.9998
3694.5	11.4875
3695	10.2184
3695.5	9.28241
3696	8.74667
3696.5	8.09072
3697	7.44341
3697.5	7.2527
3698	7.27151
3698.5	7.23229
3699	7.67205
3699.5	8.99231
3700	10.2776
