#Imported=	16.12.2021 13:56:05
50	18.1783
50.5	18.1528
51	18.3584
51.5	18.6805
52	18.9855
52.5	19.2212
53	19.4067
53.5	19.6491
54	20.0888
54.5	20.8703
55	21.9319
55.5	23.0498
56	23.9222
56.5	24.2126
57	23.8005
57.5	22.6877
58	21.3851
58.5	20.4667
59	20.454
59.5	21.6864
60	23.9423
60.5	26.8125
61	29.4344
61.5	31.2543
62	32.007
62.5	31.7996
63	31.237
63.5	30.9777
64	31.745
64.5	33.4867
65	35.9952
65.5	38.8136
66	41.4138
66.5	43.4604
67	44.7727
67.5	45.7456
68	46.6641
68.5	47.7976
69	49.207
69.5	50.8322
70	52.4634
70.5	53.8605
71	54.9008
71.5	55.4901
72	55.743
72.5	55.7539
73	55.6748
73.5	55.7407
74	56.1353
74.5	57.1065
75	58.6469
75.5	60.7312
76	63.2554
76.5	65.8094
77	68.0241
77.5	69.453
78	70.0548
78.5	69.8388
79	68.8769
79.5	67.6364
80	66.5134
80.5	65.9111
81	65.8873
81.5	66.3909
82	67.2647
82.5	68.1242
83	68.6224
83.5	68.4498
84	67.6834
84.5	66.4799
85	65.1005
85.5	63.9141
86	63.2239
86.5	63.264
87	63.8245
87.5	64.6523
88	65.4167
88.5	65.8278
89	65.76
89.5	65.208
90	64.5542
90.5	64.0729
91	63.9627
91.5	64.1364
92	64.3413
92.5	64.1452
93	63.3174
93.5	62.0579
94	60.8337
94.5	60.2852
95	60.8512
95.5	62.8684
96	65.9193
96.5	69.0897
97	71.5139
97.5	72.7128
98	72.7459
98.5	71.9271
99	71.0208
99.5	70.6701
100	71.1356
100.5	72.2154
101	73.5147
101.5	74.6722
102	75.463
102.5	75.9296
103	76.2845
103.5	76.7638
104	77.4745
104.5	78.474
105	79.7479
105.5	81.2439
106	82.9575
106.5	84.8197
107	86.7377
107.5	88.645
108	90.5327
108.5	92.4941
109	94.7578
109.5	97.5903
110	100.93
110.5	104.593
111	108.153
111.5	111.189
112	113.342
112.5	114.436
113	114.904
113.5	115.14
114	115.514
114.5	116.205
115	117.284
115.5	118.782
116	120.688
116.5	123.102
117	126.158
117.5	129.73
118	133.646
118.5	137.575
119	141.188
119.5	144.355
120	147.288
120.5	150.421
121	154.144
121.5	158.879
122	164.594
122.5	171.365
123	179.554
123.5	189.438
124	201.862
124.5	218.543
125	239.748
125.5	265.838
126	297.011
126.5	329.896
127	361.373
127.5	386.538
128	402.787
128.5	407.811
129	397.997
129.5	376.275
130	346.065
130.5	311.129
131	276.319
131.5	244.524
132	218.673
132.5	198.574
133	183.689
133.5	172.839
134	164.013
134.5	156.319
135	149.383
135.5	143.009
136	137.322
136.5	132.78
137	129.337
137.5	126.979
138	125.786
138.5	125.453
139	125.727
139.5	126.399
140	127.182
140.5	127.941
141	128.644
141.5	129.295
142	129.868
142.5	130.231
143	130.223
143.5	129.722
144	128.732
144.5	127.511
145	126.339
145.5	125.479
146	124.986
146.5	124.697
147	124.261
147.5	123.425
148	122.226
148.5	120.91
149	119.902
149.5	119.488
150	119.791
150.5	120.395
151	120.623
151.5	119.882
152	118.018
152.5	115.41
153	112.728
153.5	110.926
154	110.619
154.5	111.884
155	114.107
155.5	116.411
156	118.013
156.5	118.435
157	117.837
157.5	116.701
158	115.842
158.5	115.677
159	116.328
159.5	117.515
160	118.691
160.5	119.31
161	118.851
161.5	117.404
162	115.139
162.5	112.429
163	109.786
163.5	107.711
164	106.783
164.5	107.295
165	109.348
165.5	112.651
166	116.429
166.5	119.935
167	122.272
167.5	123.095
168	122.214
168.5	120.015
169	117.482
169.5	115.261
170	113.927
170.5	113.482
171	113.768
171.5	114.419
172	114.948
172.5	115.159
173	115.059
173.5	114.91
174	114.971
174.5	115.564
175	116.722
175.5	118.391
176	120.303
176.5	122.103
177	123.563
177.5	124.453
178	124.882
178.5	124.991
179	125.057
179.5	125.413
180	126.245
180.5	127.75
181	129.768
181.5	132.123
182	134.52
182.5	136.571
183	137.982
183.5	138.531
184	138.451
184.5	138.009
185	137.59
185.5	137.568
186	138.163
186.5	139.623
187	141.683
187.5	144.173
188	146.986
188.5	149.961
189	152.998
189.5	155.977
190	158.758
190.5	161.262
191	163.529
191.5	165.807
192	168.393
192.5	171.686
193	175.809
193.5	180.677
194	186.057
194.5	191.455
195	196.629
195.5	201.501
196	206.233
196.5	211.032
197	216.071
197.5	221.337
198	226.65
198.5	231.829
199	236.836
199.5	241.785
200	246.877
200.5	252.279
201	257.988
201.5	263.819
202	269.402
202.5	274.491
203	278.882
203.5	282.565
204	285.644
204.5	288.07
205	289.69
205.5	290.324
206	289.713
206.5	287.785
207	284.814
207.5	281.075
208	277.053
208.5	273.206
209	269.916
209.5	267.277
210	265.084
210.5	263.093
211	260.924
211.5	258.244
212	254.723
212.5	250.116
213	244.583
213.5	238.44
214	232.145
214.5	226.113
215	220.582
215.5	215.582
216	210.819
216.5	205.972
217	200.755
217.5	195.277
218	189.785
218.5	184.647
219	180.019
219.5	175.904
220	172.099
220.5	168.245
221	164.194
221.5	160.086
222	156.248
222.5	152.976
223	150.492
223.5	148.528
224	146.743
224.5	144.638
225	142.082
225.5	139.242
226	136.541
226.5	134.372
227	132.947
227.5	132.332
228	132.068
228.5	131.707
229	130.745
229.5	129.115
230	126.844
230.5	124.009
231	120.932
231.5	117.824
232	114.964
232.5	112.557
233	110.716
233.5	109.576
234	108.943
234.5	108.639
235	108.447
235.5	108.159
236	107.705
236.5	107.133
237	106.621
237.5	106.274
238	106.137
238.5	106.079
239	105.931
239.5	105.44
240	104.478
240.5	103.023
241	101.165
241.5	99.1704
242	97.2596
242.5	95.6676
243	94.4854
243.5	93.7075
244	93.314
244.5	93.159
245	93.1173
245.5	93.1383
246	93.1881
246.5	93.2433
247	93.2641
247.5	93.2051
248	93.0487
248.5	92.8325
249	92.7037
249.5	92.7959
250	93.227
250.5	93.9415
251	94.7537
251.5	95.3929
252	95.5997
252.5	95.2806
253	94.5308
253.5	93.663
254	92.9588
254.5	92.6141
255	92.6079
255.5	92.7128
256	92.5943
256.5	91.8766
257	90.4625
257.5	88.4548
258	86.2269
258.5	84.2525
259	83.0212
259.5	82.8985
260	83.8535
260.5	85.808
261	88.3776
261.5	91.0461
262	93.4989
262.5	95.5042
263	97.0155
263.5	97.9452
264	98.1879
264.5	97.7447
265	96.5121
265.5	94.6145
266	92.4132
266.5	90.2443
267	88.4745
267.5	87.217
268	86.4462
268.5	85.9441
269	85.3624
269.5	84.4907
270	83.295
270.5	81.9611
271	80.6686
271.5	79.5946
272	78.7568
272.5	78.1176
273	77.6033
273.5	77.142
274	76.7509
274.5	76.5123
275	76.4537
275.5	76.5765
276	76.8298
276.5	77.0798
277	77.2193
277.5	77.1307
278	76.869
278.5	76.5241
279	76.2215
279.5	76.0283
280	75.9232
280.5	75.7558
281	75.3271
281.5	74.4818
282	73.1487
282.5	71.7584
283	70.7527
283.5	70.7769
284	71.9135
284.5	74.0073
285	76.5615
285.5	78.7015
286	79.725
286.5	79.0864
287	77.3541
287.5	75.1504
288	73.2371
288.5	72.0789
289	71.7382
289.5	72.0102
290	72.315
290.5	72.2141
291	71.484
291.5	70.3676
292	69.1692
292.5	68.2231
293	67.6893
293.5	67.5642
294	67.7887
294.5	68.1877
295	68.6606
295.5	69.1938
296	69.8159
296.5	70.5544
297	71.4237
297.5	72.3576
298	73.2496
298.5	73.9249
299	74.2065
299.5	73.9807
300	73.1824
300.5	71.9578
301	70.5502
301.5	69.2539
302	68.3557
302.5	67.9865
303	68.2122
303.5	68.8553
304	69.619
304.5	70.2379
305	70.5737
305.5	70.658
306	70.5959
306.5	70.569
307	70.7057
307.5	71.0665
308	71.5779
308.5	72.0601
309	72.3141
309.5	72.1813
310	71.6345
310.5	70.6582
311	69.3444
311.5	67.8867
312	66.4941
312.5	65.4566
313	64.9764
313.5	65.1752
314	66.0112
314.5	67.166
315	68.2784
315.5	68.9008
316	68.8319
316.5	68.0263
317	66.7525
317.5	65.5888
318	65.0151
318.5	65.3327
319	66.3293
319.5	67.6801
320	68.8827
320.5	69.5801
321	69.6168
321.5	69.0571
322	68.2952
322.5	67.6354
323	67.2882
323.5	67.2403
324	67.4611
324.5	67.9488
325	68.6764
325.5	69.6758
326	70.9479
326.5	72.2702
327	73.3486
327.5	73.791
328	73.5567
328.5	72.7331
329	71.6089
329.5	70.6609
330	70.1975
330.5	70.436
331	71.0512
331.5	71.617
332	71.5674
332.5	70.7844
333	69.3661
333.5	67.6881
334	66.3719
334.5	65.876
335	66.6659
335.5	68.4384
336	70.7115
336.5	72.6949
337	73.8328
337.5	73.9097
338	72.9056
338.5	71.4312
339	70.0352
339.5	69.3175
340	69.4419
340.5	70.3238
341	71.6603
341.5	73.0126
342	74.1707
342.5	75.0296
343	75.6642
343.5	76.1453
344	76.4778
344.5	76.6506
345	76.6462
345.5	76.4744
346	76.2749
346.5	76.1623
347	76.2243
347.5	76.4446
348	76.7746
348.5	77.2108
349	77.806
349.5	78.6639
350	79.9669
350.5	81.7657
351	83.979
351.5	86.6392
352	89.8283
352.5	93.7146
353	98.635
353.5	104.615
354	111.257
354.5	117.742
355	122.71
355.5	125.091
356	124.039
356.5	119.739
357	113.273
357.5	105.737
358	98.473
358.5	92.3152
359	87.7314
359.5	84.604
360	82.3866
360.5	80.6057
361	78.8788
361.5	77.0632
362	75.1799
362.5	73.3759
363	71.8256
363.5	70.7352
364	70.2678
364.5	70.3702
365	70.9589
365.5	71.737
366	72.386
366.5	72.686
367	72.5341
367.5	72.0704
368	71.4717
368.5	70.9749
369	70.7178
369.5	70.7385
370	70.9475
370.5	71.1339
371	71.1582
371.5	70.984
372	70.7747
372.5	70.7725
373	71.3026
373.5	72.4071
374	73.9609
374.5	75.5105
375	76.4173
375.5	76.1929
376	74.6575
376.5	72.4657
377	70.3261
377.5	69.1682
378	69.2774
378.5	70.5716
379	72.5452
379.5	74.2928
380	75.2398
380.5	75.0176
381	74.2102
381.5	73.2958
382	72.7819
382.5	72.7789
383	73.2173
383.5	73.9505
384	74.7589
384.5	75.5672
385	76.3162
385.5	76.9101
386	77.2074
386.5	77.0329
387	76.5196
387.5	75.9017
388	75.5711
388.5	75.7663
389	76.5447
389.5	77.9024
390	79.6956
390.5	82.0861
391	85.8496
391.5	91.437
392	99.0007
392.5	108.261
393	117.719
393.5	125.829
394	130.659
394.5	131.723
395	129.407
395.5	124.48
396	118.706
396.5	113.241
397	108.551
397.5	104.323
398	100.082
398.5	95.4635
399	90.5366
399.5	85.682
400	81.5002
400.5	78.4024
401	76.4616
401.5	75.6933
402	75.62
402.5	75.8525
403	76.1353
403.5	76.3038
404	76.3268
404.5	76.2315
405	76.0966
405.5	75.9683
406	75.8149
406.5	75.5149
407	74.9436
407.5	74.051
408	73.0041
408.5	72.0905
409	71.6217
409.5	71.734
410	72.248
410.5	72.8456
411	73.1277
411.5	72.9467
412	72.3942
412.5	71.8698
413	71.7069
413.5	71.9763
414	72.4165
414.5	72.6429
415	72.4077
415.5	71.7921
416	71.236
416.5	71.2467
417	72.1945
417.5	73.8589
418	75.7444
418.5	77.1079
419	77.6341
419.5	77.3148
420	76.4791
420.5	75.6291
421	75.0368
421.5	74.7411
422	74.4991
422.5	74.0757
423	73.3331
423.5	72.4504
424	71.7413
424.5	71.6036
425	72.1274
425.5	73.291
426	74.8975
426.5	76.5104
427	77.7583
427.5	78.209
428	77.8446
428.5	76.7574
429	75.2624
429.5	73.9464
430	73.199
430.5	73.2926
431	73.9373
431.5	74.8182
432	75.5443
432.5	75.9505
433	76.0835
433.5	76.1532
434	76.3901
434.5	76.8502
435	77.4044
435.5	77.776
436	77.8234
436.5	77.5202
437	77.1097
437.5	76.806
438	76.839
438.5	77.2318
439	77.9634
439.5	79.0431
440	80.3816
440.5	81.9083
441	83.4514
441.5	84.7216
442	85.5018
442.5	85.6349
443	85.395
443.5	85.1643
444	85.4389
444.5	86.4129
445	87.9876
445.5	89.8635
446	91.6173
446.5	93.1059
447	94.5748
447.5	96.6275
448	99.7464
448.5	104.357
449	110.166
449.5	116.598
450	122.935
450.5	128.485
451	132.896
451.5	135.916
452	137.858
452.5	139.285
453	141.005
453.5	143.953
454	148.685
454.5	155.736
455	164.884
455.5	175.518
456	187.266
456.5	199.928
457	213.797
457.5	229.98
458	249.686
458.5	273.525
459	302.488
459.5	336.727
460	375.568
460.5	419.708
461	469.834
461.5	525.829
462	587.861
462.5	654.133
463	720.877
463.5	783.088
464	834.457
464.5	871.158
465	888.389
465.5	882.969
466	858.77
466.5	817.8
467	763.798
467.5	702.863
468	639.078
468.5	576.669
469	518.335
469.5	465.979
470	420.748
470.5	381.44
471	347.479
471.5	318.157
472	292.005
472.5	268.537
473	247.825
473.5	229.58
474	214.019
474.5	201.423
475	191.096
475.5	182.591
476	175.319
476.5	168.46
477	161.665
477.5	154.916
478	148.521
478.5	142.933
479	138.645
479.5	135.472
480	133.157
480.5	131.265
481	129.244
481.5	126.827
482	123.907
482.5	120.788
483	117.799
483.5	115.397
484	113.694
484.5	112.658
485	112.071
485.5	111.398
486	110.319
486.5	108.595
487	106.482
487.5	104.307
488	102.527
488.5	101.299
489	100.536
489.5	99.9056
490	98.9532
490.5	97.45
491	95.3853
491.5	93.2364
492	91.4741
492.5	90.5134
493	90.2247
493.5	90.3005
494	90.3435
494.5	90.098
495	89.586
495.5	89.0371
496	88.7501
496.5	88.8438
497	89.2452
497.5	89.5997
498	89.5865
498.5	88.9225
499	87.7735
499.5	86.4314
500	85.1965
500.5	84.2134
501	83.4144
501.5	82.6116
502	81.6223
502.5	80.4346
503	79.2092
503.5	78.2386
504	77.7207
504.5	77.7553
505	78.1472
505.5	78.6091
506	78.9459
506.5	79.1901
507	79.536
507.5	80.2206
508	81.293
508.5	82.5407
509	83.5872
509.5	84.033
510	83.7544
510.5	82.7871
511	81.4623
511.5	80.1483
512	79.0632
512.5	78.2189
513	77.4639
513.5	76.7148
514	76.0391
514.5	75.6119
515	75.665
515.5	76.3359
516	77.5117
516.5	79.051
517	80.7247
517.5	82.3134
518	83.619
518.5	84.3834
519	84.4295
519.5	83.5002
520	81.4573
520.5	78.747
521	75.8856
521.5	73.6095
522	72.3404
522.5	72.2557
523	73.1688
523.5	74.4309
524	75.5363
524.5	76.0627
525	76.0077
525.5	75.4666
526	74.5705
526.5	73.4568
527	72.1196
527.5	70.5684
528	69.0329
528.5	67.8416
529	67.4949
529.5	68.0848
530	69.5375
530.5	71.4904
531	73.2705
531.5	74.3955
532	74.4428
532.5	73.6766
533	72.4303
533.5	71.1903
534	70.3366
534.5	70.0013
535	70.1869
535.5	70.5441
536	70.8581
536.5	70.9404
537	70.8067
537.5	70.5368
538	70.2776
538.5	70.1657
539	70.2632
539.5	70.5741
540	70.937
540.5	71.1809
541	71.071
541.5	70.5562
542	69.682
542.5	68.592
543	67.5682
543.5	66.7933
544	66.4124
544.5	66.3654
545	66.5817
545.5	67.0503
546	67.7472
546.5	68.6777
547	69.8184
547.5	70.9661
548	71.8574
548.5	72.1256
549	71.6768
549.5	70.6621
550	69.45
550.5	68.6097
551	68.5122
551.5	69.3107
552	70.6441
552.5	72.0402
553	73.0547
553.5	73.5396
554	73.6545
554.5	73.6897
555	73.9306
555.5	74.4179
556	74.9723
556.5	75.255
557	75.0468
557.5	74.2594
558	73.1207
558.5	71.9655
559	71.0902
559.5	70.5895
560	70.3517
560.5	70.2492
561	70.1644
561.5	70.0557
562	69.9034
562.5	69.6454
563	69.1875
563.5	68.4098
564	67.3183
564.5	66.1212
565	65.144
565.5	64.7592
566	65.0813
566.5	66.0973
567	67.5466
567.5	69.0663
568	70.4407
568.5	71.5969
569	72.5755
569.5	73.3279
570	73.671
570.5	73.4566
571	72.5563
571.5	71.0775
572	69.488
572.5	68.3042
573	68.0664
573.5	68.8045
574	70.3581
574.5	72.2695
575	73.9569
575.5	75.0169
576	75.1385
576.5	74.4406
577	73.0474
577.5	71.1274
578	69.0307
578.5	67.0573
579	65.6131
579.5	64.8596
580	64.8502
580.5	65.4638
581	66.2254
581.5	66.7547
582	66.6662
582.5	66.0082
583	64.9731
583.5	63.9805
584	63.4741
584.5	63.7428
585	65.0013
585.5	66.7888
586	68.5462
586.5	69.3906
587	68.944
587.5	67.1699
588	64.4889
588.5	62.0641
589	60.819
589.5	61.6613
590	64.0754
590.5	67.1975
591	69.6671
591.5	70.5928
592	69.8249
592.5	67.8289
593	65.9047
593.5	64.9465
594	65.5306
594.5	67.0703
595	68.743
595.5	69.6696
596	69.6623
596.5	69.0054
597	68.2312
597.5	67.8441
598	67.991
598.5	68.603
599	69.3601
599.5	70.0493
600	70.5608
600.5	70.9159
601	71.14
601.5	71.1905
602	71.0455
602.5	70.7364
603	70.3619
603.5	70.0725
604	69.9225
604.5	69.8165
605	69.4887
605.5	68.7295
606	67.4139
606.5	65.7438
607	64.076
607.5	62.8255
608	62.2593
608.5	62.3775
609	63.1101
609.5	64.2012
610	65.4055
610.5	66.558
611	67.5463
611.5	68.3284
612	68.855
612.5	69.1264
613	69.1951
613.5	69.0844
614	68.8079
614.5	68.3508
615	67.6367
615.5	66.6795
616	65.6669
616.5	64.9332
617	64.9085
617.5	65.7438
618	67.3934
618.5	69.3636
619	70.9344
619.5	71.4572
620	70.592
620.5	68.7531
621	66.535
621.5	64.7367
622	63.7684
622.5	63.6826
623	64.1445
623.5	64.6352
624	64.9225
624.5	65.1147
625	65.5844
625.5	66.6749
626	68.4961
626.5	70.58
627	72.3936
627.5	73.3367
628	73.3458
628.5	72.5601
629	71.3492
629.5	70.2023
630	69.3829
630.5	69.0429
631	69.0577
631.5	69.3341
632	69.7906
632.5	70.3075
633	70.7896
633.5	71.0651
634	71.0167
634.5	70.5494
635	69.5928
635.5	68.3733
636	67.1335
636.5	66.2847
637	66.0804
637.5	66.6422
638	67.9607
638.5	69.5448
639	70.9698
639.5	71.7331
640	71.8027
640.5	71.3513
641	70.7364
641.5	70.3251
642	70.1879
642.5	70.1091
643	69.7098
643.5	68.7912
644	67.4102
644.5	66.0867
645	65.2942
645.5	65.4106
646	66.1191
646.5	66.8927
647	67.1139
647.5	66.6859
648	65.9849
648.5	65.7731
649	66.5804
649.5	68.3287
650	70.3448
650.5	71.6179
651	71.5774
651.5	70.0813
652	67.9589
652.5	66.1196
653	65.3293
653.5	65.5568
654	66.2339
654.5	66.5795
655	66.0742
655.5	64.7852
656	63.1747
656.5	61.9804
657	61.6343
657.5	62.2903
658	63.5314
658.5	64.7833
659	65.5197
659.5	65.5019
660	64.8523
660.5	63.8134
661	62.7871
661.5	62.0829
662	61.9558
662.5	62.461
663	63.4458
663.5	64.7147
664	65.9141
664.5	66.7049
665	66.7484
665.5	65.906
666	64.4109
666.5	62.6475
667	61.2442
667.5	60.6661
668	61.199
668.5	62.677
669	64.4684
669.5	65.9339
670	66.5407
670.5	66.326
671	65.5822
671.5	64.8624
672	64.5707
672.5	64.831
673	65.4663
673.5	66.1171
674	66.5539
674.5	66.68
675	66.5731
675.5	66.2386
676	65.5827
676.5	64.6069
677	63.4398
677.5	62.5169
678	62.3148
678.5	63.1826
679	65.155
679.5	67.5202
680	69.5241
680.5	70.291
681	69.7079
681.5	67.932
682	65.3876
682.5	62.7208
683	60.2233
683.5	58.0171
684	56.0103
684.5	54.193
685	52.7298
685.5	51.7631
686	51.4519
686.5	51.9879
687	53.1512
687.5	54.7898
688	56.7697
688.5	58.882
689	61.0411
689.5	63.1772
690	65.2329
690.5	67.1382
691	68.725
691.5	69.8926
692	70.5501
692.5	70.6085
693	70.325
693.5	69.9984
694	70.0639
694.5	70.7342
695	71.9939
695.5	73.6009
696	75.0393
696.5	75.9268
697	75.9407
697.5	75.2725
698	74.2362
698.5	73.215
699	72.4994
699.5	72.1508
700	72.0688
700.5	71.9349
701	71.4546
701.5	70.3102
702	68.5093
702.5	66.2786
703	64.0606
703.5	62.4323
704	61.7788
704.5	62.3796
705	63.8845
705.5	65.7037
706	67.1644
706.5	67.8212
707	67.6815
707.5	67.0201
708	66.3983
708.5	66.1909
709	66.4977
709.5	66.9759
710	67.1731
710.5	66.6939
711	65.5349
711.5	64.0667
712	62.7927
712.5	62.1357
713	62.1131
713.5	62.4925
714	62.8084
714.5	62.7738
715	62.3884
715.5	62.0103
716	62.0344
716.5	62.6859
717	63.7694
717.5	64.7769
718	65.2184
718.5	64.8988
719	64.159
719.5	63.5158
720	63.4845
720.5	64.0829
721	64.9963
721.5	65.6208
722	65.5937
722.5	64.8936
723	63.9396
723.5	63.2963
724	63.2906
724.5	63.8529
725	64.4604
725.5	64.612
726	63.979
726.5	62.8239
727	61.5844
727.5	60.8263
728	60.733
728.5	61.2183
729	61.9292
729.5	62.4655
730	62.6744
730.5	62.6187
731	62.5622
731.5	62.6769
732	63.0126
732.5	63.398
733	63.6536
733.5	63.6056
734	63.292
734.5	62.7862
735	62.1718
735.5	61.5208
736	60.8469
736.5	60.1837
737	59.6153
737.5	59.2522
738	59.2464
738.5	59.5317
739	60.001
739.5	60.4827
740	60.8513
740.5	61.1027
741	61.3261
741.5	61.6259
742	62.0037
742.5	62.3137
743	62.3569
743.5	62.0079
744	61.2491
744.5	60.4002
745	59.8051
745.5	59.8835
746	60.6414
746.5	61.8632
747	63.0886
747.5	63.7957
748	63.7064
748.5	62.7163
749	61.2833
749.5	59.897
750	59.0653
750.5	58.9074
751	59.2582
751.5	59.8034
752	60.1869
752.5	60.2846
753	60.1471
753.5	60.0014
754	60.0089
754.5	60.2375
755	60.5889
755.5	60.9421
756	61.1965
756.5	61.3156
757	61.3032
757.5	61.1681
758	60.9968
758.5	60.9394
759	61.24
759.5	62.0472
760	63.2764
760.5	64.6186
761	65.5306
761.5	65.6271
762	64.7029
762.5	63.1032
763	61.4492
763.5	60.3433
764	60.0773
764.5	60.4477
765	61.069
765.5	61.4552
766	61.3796
766.5	60.8032
767	59.8946
767.5	58.8759
768	57.9044
768.5	57.1535
769	56.79
769.5	57.0679
770	58.1635
770.5	59.9145
771	62.0207
771.5	63.9387
772	65.2394
772.5	65.6672
773	65.266
773.5	64.4377
774	63.5158
774.5	62.7938
775	62.3561
775.5	62.1963
776	62.2315
776.5	62.3039
777	62.2575
777.5	61.8984
778	61.1879
778.5	60.1986
779	59.2309
779.5	58.672
780	58.8269
780.5	59.8208
781	61.2377
781.5	62.6069
782	63.3606
782.5	63.3679
783	62.7282
783.5	61.7658
784	60.9063
784.5	60.3499
785	60.1672
785.5	60.212
786	60.4357
786.5	60.9351
787	61.796
787.5	63.0945
788	64.8067
788.5	66.578
789	68.0558
789.5	68.7551
790	68.664
790.5	67.9248
791	66.924
791.5	66.2325
792	66.1896
792.5	66.9689
793	68.0896
793.5	69.0111
794	69.0445
794.5	68.1178
795	66.5182
795.5	64.9274
796	64.0645
796.5	64.2492
797	65.4961
797.5	67.1212
798	68.5295
798.5	69.1827
799	69.0815
799.5	68.4446
800	67.5586
800.5	66.7242
801	66.0692
801.5	65.6609
802	65.4419
802.5	65.3201
803	65.1415
803.5	64.7412
804	64.0476
804.5	63.1017
805	62.1586
805.5	61.465
806	61.2112
806.5	61.3032
807	61.5243
807.5	61.6748
808	61.6995
808.5	61.6782
809	61.6822
809.5	61.6378
810	61.3585
810.5	60.6432
811	59.5979
811.5	58.6174
812	58.2718
812.5	58.9048
813	60.3441
813.5	62.1073
814	63.466
814.5	64.0172
815	63.6653
815.5	62.786
816	61.8695
816.5	61.239
817	60.9838
817.5	60.9915
818	61.1751
818.5	61.4465
819	61.6837
819.5	61.6553
820	61.0408
820.5	59.7392
821	57.8607
821.5	55.9598
822	54.7213
822.5	54.7182
823	56.0876
823.5	58.2232
824	60.4151
824.5	61.9007
825	62.4671
825.5	62.2253
826	61.6258
826.5	61.1852
827	61.183
827.5	61.6728
828	62.3957
828.5	63.0852
829	63.4378
829.5	63.3417
830	62.7742
830.5	61.8609
831	60.9299
831.5	60.2745
832	60.1665
832.5	60.5121
833	61.0863
833.5	61.4818
834	61.4154
834.5	60.8016
835	59.7619
835.5	58.6798
836	57.8088
836.5	57.3002
837	56.9981
837.5	56.7281
838	56.3236
838.5	55.8006
839	55.2678
839.5	54.9223
840	54.8584
840.5	55.1205
841	55.7752
841.5	56.7385
842	57.968
842.5	59.3621
843	60.6534
843.5	61.5638
844	61.6975
844.5	61.0829
845	59.9008
845.5	58.5525
846	57.5556
846.5	57.2015
847	57.6442
847.5	58.5344
848	59.5285
848.5	60.3079
849	60.8111
849.5	61.1391
850	61.4216
850.5	61.6662
851	61.694
851.5	61.1261
852	59.8332
852.5	57.9725
853	56.0452
853.5	54.7811
854	54.6504
854.5	55.8942
855	57.9139
855.5	59.929
856	61.1366
856.5	61.307
857	60.7691
857.5	60.1656
858	60.1791
858.5	61.0531
859	62.7465
859.5	64.8261
860	66.9559
860.5	69.0199
861	71.0487
861.5	72.9949
862	74.5033
862.5	75.0348
863	74.2601
863.5	72.0433
864	68.9776
864.5	65.9336
865	63.6653
865.5	62.3988
866	61.7163
866.5	61.0232
867	59.8471
867.5	58.2743
868	56.7867
868.5	56.0304
869	56.222
869.5	57.2459
870	58.556
870.5	59.6188
871	60.1726
871.5	60.2761
872	60.1787
872.5	59.9875
873	59.6651
873.5	59.1661
874	58.5676
874.5	58.1742
875	58.2596
875.5	58.9201
876	59.8814
876.5	60.6411
877	60.8866
877.5	60.7394
878	60.8071
878.5	61.6813
879	63.5758
879.5	65.7604
880	67.1837
880.5	66.641
881	64.1723
881.5	60.4368
882	56.8963
882.5	54.8289
883	54.8018
883.5	56.6156
884	58.9416
884.5	60.7408
885	61.1492
885.5	60.3663
886	58.8379
886.5	57.2437
887	56.1203
887.5	55.6622
888	55.8535
888.5	56.2584
889	56.5131
889.5	56.2154
890	55.3873
890.5	54.2344
891	53.2139
891.5	52.6994
892	52.7906
892.5	53.3063
893	53.7187
893.5	53.7082
894	53.1683
894.5	52.5056
895	52.1106
895.5	52.3229
896	52.9666
896.5	53.7508
897	54.3759
897.5	54.832
898	55.3097
898.5	56.0856
899	57.1516
899.5	58.2727
900	58.9983
900.5	59.0652
901	58.463
901.5	57.3528
902	56.1474
902.5	55.1147
903	54.4313
903.5	54.0524
904	53.8708
904.5	53.7512
905	53.5332
905.5	53.1233
906	52.4983
906.5	51.8334
907	51.3859
907.5	51.5089
908	52.3358
908.5	53.7593
909	55.5007
909.5	57.0423
910	57.9567
910.5	57.8499
911	56.7864
911.5	55.1782
912	53.6443
912.5	52.8642
913	53.1073
913.5	54.2857
914	55.6782
914.5	56.5213
915	56.2949
915.5	55.2294
916	54.101
916.5	53.7498
917	54.5113
917.5	55.8844
918	56.9672
918.5	56.8799
919	55.5549
919.5	53.4609
920	51.5481
920.5	50.4256
921	50.2081
921.5	50.461
922	50.6697
922.5	50.6881
923	50.7707
923.5	51.2414
924	52.2067
924.5	53.3727
925	54.2817
925.5	54.6777
926	54.6944
926.5	54.7825
927	55.2622
927.5	56.1019
928	56.8715
928.5	57.1447
929	56.7089
929.5	55.8853
930	55.0794
930.5	54.6652
931	54.6091
931.5	54.6828
932	54.5588
932.5	54.1334
933	53.4882
933.5	52.8451
934	52.3826
934.5	52.1548
935	52.1273
935.5	52.1634
936	52.1575
936.5	51.9679
937	51.5315
937.5	50.8399
938	50.0282
938.5	49.4044
939	49.2392
939.5	49.7542
940	50.6806
940.5	51.7051
941	52.4791
941.5	52.9992
942	53.4706
942.5	54.2251
943	55.2634
943.5	56.3136
944	56.7836
944.5	56.419
945	55.2864
945.5	53.7765
946	52.4841
946.5	51.666
947	51.3331
947.5	51.2052
948	51.1961
948.5	51.4558
949	52.0812
949.5	52.9634
950	53.6406
950.5	53.6222
951	52.769
951.5	51.3974
952	50.3515
952.5	50.2149
953	51.2101
953.5	52.6508
954	53.7885
954.5	54.0388
955	53.6248
955.5	53.1248
956	53.1691
956.5	53.8537
957	54.8166
957.5	55.4946
958	55.5747
958.5	55.1638
959	54.572
959.5	54.1131
960	53.8148
960.5	53.4977
961	52.9577
961.5	52.1712
962	51.2503
962.5	50.392
963	49.7121
963.5	49.3023
964	49.2219
964.5	49.5172
965	50.2278
965.5	51.1533
966	51.9439
966.5	52.2142
967	51.8377
967.5	51.0816
968	50.3945
968.5	50.2264
969	50.6396
969.5	51.4134
970	52.0588
970.5	52.2319
971	51.8227
971.5	51.0798
972	50.4245
972.5	50.2184
973	50.6349
973.5	51.5049
974	52.5588
974.5	53.4079
975	53.8105
975.5	53.6726
976	53.1441
976.5	52.5643
977	52.1871
977.5	52.0802
978	51.9987
978.5	51.592
979	50.5644
979.5	49.0606
980	47.4379
980.5	46.2826
981	45.9215
981.5	46.4435
982	47.6202
982.5	48.9055
983	49.9071
983.5	50.3471
984	50.3325
984.5	50.0265
985	49.6381
985.5	49.3196
986	49.1164
986.5	49.0498
987	49.117
987.5	49.3625
988	49.8415
988.5	50.4444
989	50.9894
989.5	51.1574
990	50.8423
990.5	50.1065
991	49.2659
991.5	48.7611
992	48.8161
992.5	49.4085
993	50.068
993.5	50.4557
994	50.3973
994.5	50.2309
995	50.3407
995.5	51.0782
996	52.1737
996.5	53.143
997	53.2792
997.5	52.4715
998	51.0009
998.5	49.5387
999	48.7512
999.5	48.8767
1000	49.8155
1000.5	50.9056
1001	51.6321
1001.5	51.5649
1002	50.8038
1002.5	49.6071
1003	48.3373
1003.5	47.393
1004	47.0559
1004.5	47.6387
1005	49.0273
1005.5	50.9421
1006	52.9088
1006.5	54.352
1007	54.9311
1007.5	54.4534
1008	53.2987
1008.5	51.9614
1009	50.9278
1009.5	50.4007
1010	50.2528
1010.5	50.1736
1011	49.8236
1011.5	49.1253
1012	48.2726
1012.5	47.7212
1013	47.8198
1013.5	48.751
1014	50.1722
1014.5	51.5089
1015	52.1604
1015.5	51.8989
1016	51.0141
1016.5	50.0453
1017	49.5628
1017.5	49.7331
1018	50.423
1018.5	51.1773
1019	51.6181
1019.5	51.5612
1020	51.1108
1020.5	50.5108
1021	49.9181
1021.5	49.3861
1022	48.8919
1022.5	48.456
1023	48.1795
1023.5	48.1506
1024	48.405
1024.5	48.8097
1025	49.1233
1025.5	49.1377
1026	48.7893
1026.5	48.2684
1027	47.846
1027.5	47.8036
1028	48.1783
1028.5	48.8753
1029	49.626
1029.5	50.152
1030	50.2852
1030.5	50.0295
1031	49.6508
1031.5	49.4427
1032	49.7092
1032.5	50.4533
1033	51.5324
1033.5	52.5962
1034	53.2856
1034.5	53.3619
1035	52.7208
1035.5	51.6527
1036	50.4537
1036.5	49.5113
1037	49.0377
1037.5	49.0798
1038	49.4994
1038.5	49.9284
1039	50.0919
1039.5	49.7885
1040	49.1973
1040.5	48.5749
1041	48.2541
1041.5	48.2816
1042	48.5151
1042.5	48.6385
1043	48.4651
1043.5	48.0511
1044	47.7273
1044.5	47.8242
1045	48.4264
1045.5	49.2834
1046	49.7988
1046.5	49.5429
1047	48.2537
1047.5	46.5545
1048	45.1287
1048.5	44.8436
1049	45.8336
1049.5	47.8581
1050	50.3229
1050.5	52.3749
1051	53.5012
1051.5	53.3533
1052	52.3682
1052.5	51.0842
1053	50.1352
1053.5	49.8318
1054	50.0944
1054.5	50.5429
1055	50.6584
1055.5	50.2371
1056	49.4504
1056.5	48.9479
1057	49.2516
1057.5	50.6369
1058	52.5693
1058.5	54.2805
1059	54.9169
1059.5	54.2699
1060	52.6932
1060.5	50.8138
1061	49.3477
1061.5	48.6172
1062	48.7559
1062.5	49.5813
1063	50.9236
1063.5	52.7331
1064	54.8021
1064.5	56.7947
1065	58.2111
1065.5	58.6576
1066	58.1439
1066.5	56.8058
1067	55.026
1067.5	53.1012
1068	51.1673
1068.5	49.3452
1069	47.8142
1069.5	46.8977
1070	46.7968
1070.5	47.3405
1071	48.1464
1071.5	48.6651
1072	48.6756
1072.5	48.3522
1073	48.2864
1073.5	48.9526
1074	50.5063
1074.5	52.4377
1075	53.9489
1075.5	54.3634
1076	53.4219
1076.5	51.5844
1077	49.4438
1077.5	47.746
1078	46.899
1078.5	47.0726
1079	48.0903
1079.5	49.4072
1080	50.5444
1080.5	51.0907
1081	51.0656
1081.5	50.6789
1082	50.3053
1082.5	50.165
1083	50.175
1083.5	49.9937
1084	49.388
1084.5	48.39
1085	47.4283
1085.5	47.0561
1086	47.6294
1086.5	49.141
1087	50.8831
1087.5	52.1473
1088	52.215
1088.5	51.1994
1089	49.4986
1089.5	47.8492
1090	46.8441
1090.5	46.682
1091	47.1468
1091.5	47.6057
1092	47.658
1092.5	47.0727
1093	46.1615
1093.5	45.2685
1094	44.7895
1094.5	44.7574
1095	45.0531
1095.5	45.4468
1096	45.7187
1096.5	45.8068
1097	45.7398
1097.5	45.6639
1098	45.6949
1098.5	45.9892
1099	46.5606
1099.5	47.3829
1100	48.3622
1100.5	49.3004
1101	50.0677
1101.5	50.5911
1102	50.9789
1102.5	51.3297
1103	51.6531
1103.5	51.826
1104	51.6867
1104.5	51.0865
1105	50.1928
1105.5	49.2621
1106	48.5675
1106.5	48.0909
1107	47.6095
1107.5	46.8224
1108	45.7225
1108.5	44.6243
1109	44.1622
1109.5	44.767
1110	46.4133
1110.5	48.6652
1111	50.6059
1111.5	51.569
1112	51.1643
1112.5	49.838
1113	48.3153
1113.5	47.3098
1114	47.0302
1114.5	47.198
1115	47.3597
1115.5	47.1359
1116	46.5053
1116.5	45.6767
1117	44.9993
1117.5	44.6596
1118	44.7026
1118.5	44.9929
1119	45.3892
1119.5	45.858
1120	46.4384
1120.5	47.1725
1121	48.0561
1121.5	48.9624
1122	49.6979
1122.5	50.0007
1123	49.6534
1123.5	48.6733
1124	47.1984
1124.5	45.6609
1125	44.55
1125.5	44.2801
1126	44.9577
1126.5	46.2
1127	47.5198
1127.5	48.3469
1128	48.4875
1128.5	48.0332
1129	47.3926
1129.5	47.0659
1130	47.4233
1130.5	48.5696
1131	50.0899
1131.5	51.4158
1132	51.8522
1132.5	51.24
1133	49.7726
1133.5	48.1188
1134	46.9903
1134.5	46.7094
1135	47.0145
1135.5	47.2503
1136	47.0574
1136.5	46.5214
1137	46.1829
1137.5	46.4424
1138	47.2801
1138.5	47.9899
1139	47.8685
1139.5	46.4402
1140	44.3407
1140.5	42.4602
1141	41.9718
1141.5	43.0206
1142	45.219
1142.5	47.8382
1143	50.127
1143.5	51.8011
1144	52.7389
1144.5	53.1508
1145	53.0608
1145.5	52.3621
1146	51.2651
1146.5	50.0618
1147	49.3276
1147.5	49.4313
1148	50.4448
1148.5	52.0583
1149	53.5017
1149.5	54.221
1150	53.788
1150.5	52.6383
1151	51.3758
1151.5	50.819
1152	51.2744
1152.5	52.6128
1153	54.3682
1153.5	55.8741
1154	56.8285
1154.5	57.2828
1155	57.7213
1155.5	58.5143
1156	59.9434
1156.5	61.9033
1157	64.2112
1157.5	66.6779
1158	69.0724
1158.5	71.2123
1159	72.8856
1159.5	74.1189
1160	75.1149
1160.5	76.2284
1161	77.6783
1161.5	79.3118
1162	80.5607
1162.5	80.7573
1163	79.5726
1163.5	76.9115
1164	73.3713
1164.5	69.5796
1165	65.9391
1165.5	62.5396
1166	59.3003
1166.5	56.2893
1167	53.7779
1167.5	52.0296
1168	51.2535
1168.5	51.1994
1169	51.3895
1169.5	51.4165
1170	51.1097
1170.5	50.5944
1171	50.0498
1171.5	49.5541
1172	49.0052
1172.5	48.2307
1173	47.2168
1173.5	46.1812
1174	45.4123
1174.5	45.1077
1175	45.2039
1175.5	45.585
1176	46.1301
1176.5	46.8066
1177	47.6413
1177.5	48.5214
1178	49.148
1178.5	49.0909
1179	48.0988
1179.5	46.4789
1180	44.7222
1180.5	43.4933
1181	43.0999
1181.5	43.5861
1182	44.6638
1182.5	45.8036
1183	46.5604
1183.5	46.4728
1184	45.4276
1184.5	43.4272
1185	40.9427
1185.5	38.8125
1186	37.7863
1186.5	38.3932
1187	40.1018
1187.5	42.1601
1188	43.6158
1188.5	44.1812
1189	44.1093
1189.5	44.0762
1190	44.5722
1190.5	45.5333
1191	46.4313
1191.5	46.8275
1192	46.6724
1192.5	46.2518
1193	45.9518
1193.5	45.8222
1194	45.6314
1194.5	45.2167
1195	44.7464
1195.5	44.8487
1196	45.874
1196.5	47.615
1197	49.2078
1197.5	49.7299
1198	48.839
1198.5	46.8225
1199	44.8831
1199.5	43.8031
1200	43.9624
1200.5	44.6469
1201	45.1729
1201.5	45.0461
1202	44.5764
1202.5	44.1434
1203	43.9145
1203.5	43.572
1204	42.7366
1204.5	41.2569
1205	39.7615
1205.5	39.0657
1206	40.0536
1206.5	42.4319
1207	45.245
1207.5	47.0392
1208	47.0416
1208.5	45.3675
1209	42.794
1209.5	40.7043
1210	39.9852
1210.5	41.1437
1211	43.5638
1211.5	46.3868
1212	48.7435
1212.5	50.2033
1213	50.8412
1213.5	50.7661
1214	50.1628
1214.5	49.0639
1215	47.3914
1215.5	45.3356
1216	43.267
1216.5	41.6487
1217	40.709
1217.5	40.3066
1218	40.1487
1218.5	40.0264
1219	40.0478
1219.5	40.5506
1220	41.6834
1220.5	43.1495
1221	44.3306
1221.5	44.5913
1222	43.8496
1222.5	42.4256
1223	41.0666
1223.5	40.2128
1224	39.8933
1224.5	39.7851
1225	39.6342
1225.5	39.5235
1226	39.8183
1226.5	40.7499
1227	42.3062
1227.5	44.0567
1228	45.4798
1228.5	46.3107
1229	46.6355
1229.5	46.7553
1230	46.7885
1230.5	46.6212
1231	46.078
1231.5	45.0952
1232	43.973
1232.5	43.2768
1233	43.5597
1233.5	44.9313
1234	46.7536
1234.5	48.2627
1235	48.6681
1235.5	47.9529
1236	46.4685
1236.5	44.9129
1237	43.7958
1237.5	43.1695
1238	42.7198
1238.5	42.1505
1239	41.6158
1239.5	41.7137
1240	42.764
1240.5	44.6338
1241	46.4552
1241.5	47.1691
1242	46.2295
1242.5	43.8614
1243	41.5589
1243.5	40.5061
1244	41.4028
1244.5	43.3027
1245	45.1064
1245.5	45.574
1246	44.6864
1246.5	42.9572
1247	41.3265
1247.5	40.477
1248	40.5453
1248.5	41.3764
1249	42.5476
1249.5	43.9349
1250	45.5191
1250.5	47.1351
1251	48.5079
1251.5	49.1151
1252	48.7753
1252.5	47.4886
1253	45.5143
1253.5	43.4793
1254	41.7956
1254.5	40.8279
1255	40.4996
1255.5	40.6158
1256	40.9098
1256.5	41.1162
1257	41.1821
1257.5	41.2689
1258	41.6282
1258.5	42.3593
1259	43.3629
1259.5	44.2609
1260	44.7379
1260.5	44.5786
1261	43.9784
1261.5	43.2152
1262	42.4902
1262.5	41.8074
1263	41.1025
1263.5	40.4843
1264	40.3014
1264.5	40.9034
1265	42.5339
1265.5	44.7638
1266	46.8662
1266.5	48.0137
1267	47.9045
1267.5	46.9396
1268	45.6168
1268.5	44.3825
1269	43.3061
1269.5	42.2836
1270	41.3176
1270.5	40.6661
1271	40.7993
1271.5	41.9126
1272	43.5658
1272.5	45.0944
1273	45.8801
1273.5	45.8601
1274	45.3007
1274.5	44.692
1275	44.2606
1275.5	43.9015
1276	43.3656
1276.5	42.6935
1277	42.2563
1277.5	42.5316
1278	43.5497
1278.5	44.9429
1279	45.9173
1279.5	45.9308
1280	44.8529
1280.5	43.2222
1281	41.9214
1281.5	41.5254
1282	42.1669
1282.5	43.3789
1283	44.7076
1283.5	45.7663
1284	46.4964
1284.5	46.9698
1285	47.256
1285.5	47.3221
1286	46.9597
1286.5	45.8942
1287	44.1922
1287.5	42.0859
1288	40.1364
1288.5	38.8986
1289	38.7211
1289.5	39.5801
1290	40.6339
1290.5	41.1424
1291	40.426
1291.5	38.7184
1292	36.5848
1292.5	35.0143
1293	34.6401
1293.5	35.6976
1294	37.981
1294.5	40.582
1295	42.9233
1295.5	44.4552
1296	45.148
1296.5	45.0484
1297	44.2546
1297.5	43.1951
1298	42.2197
1298.5	41.7744
1299	41.9351
1299.5	42.6228
1300	43.5753
1300.5	44.3727
1301	44.7706
1301.5	44.5936
1302	44.0192
1302.5	43.2188
1303	42.3673
1303.5	41.585
1304	40.9129
1304.5	40.3577
1305	39.8372
1305.5	39.2691
1306	38.6074
1306.5	37.997
1307	37.7233
1307.5	38.2254
1308	39.5272
1308.5	41.3187
1309	42.8497
1309.5	43.2924
1310	42.2377
1310.5	39.6922
1311	36.778
1311.5	34.6689
1312	34.421
1312.5	35.9702
1313	38.5987
1313.5	41.2407
1314	42.8953
1314.5	43.2273
1315	42.2971
1315.5	40.9492
1316	39.8151
1316.5	39.278
1317	39.2636
1317.5	39.4846
1318	39.673
1318.5	39.7094
1319	39.673
1319.5	39.7324
1320	39.9931
1320.5	40.4318
1321	40.978
1321.5	41.5369
1322	42.0632
1322.5	42.5359
1323	42.9221
1323.5	43.169
1324	43.1956
1324.5	42.9683
1325	42.536
1325.5	41.9698
1326	41.4208
1326.5	41.0728
1327	41.1878
1327.5	41.9634
1328	43.2448
1328.5	44.6635
1329	45.5348
1329.5	45.3605
1330	43.8948
1330.5	41.5181
1331	39.1421
1331.5	37.5922
1332	37.2151
1332.5	37.5628
1333	38.0625
1333.5	38.1933
1334	37.9606
1334.5	37.7033
1335	37.9338
1335.5	38.7813
1336	40.0421
1336.5	41.3142
1337	42.3036
1337.5	42.9429
1338	43.3299
1338.5	43.6226
1339	43.7996
1339.5	43.663
1340	43.1129
1340.5	42.1485
1341	40.9795
1341.5	40.0001
1342	39.538
1342.5	39.8629
1343	40.7707
1343.5	41.9493
1344	42.9607
1344.5	43.5408
1345	43.592
1345.5	43.1161
1346	42.3847
1346.5	41.6072
1347	41.0891
1347.5	40.9918
1348	41.3825
1348.5	42.2107
1349	43.0808
1349.5	43.6275
1350	43.4036
1350.5	42.4677
1351	41.0344
1351.5	39.5128
1352	38.2823
1352.5	37.5489
1353	37.5655
1353.5	38.2843
1354	39.6428
1354.5	41.4105
1355	42.9467
1355.5	43.72
1356	43.2516
1356.5	41.899
1357	40.2463
1357.5	39.0674
1358	38.7317
1358.5	39.1516
1359	39.9172
1359.5	40.5745
1360	40.9853
1360.5	41.1635
1361	41.1928
1361.5	41.0343
1362	40.536
1362.5	39.7616
1363	38.9925
1363.5	38.6656
1364	39.0046
1364.5	39.9007
1365	40.9747
1365.5	41.665
1366	41.6407
1366.5	40.8817
1367	39.8574
1367.5	39.0969
1368	39.1267
1368.5	40.07
1369	41.6488
1369.5	43.3363
1370	44.459
1370.5	44.7377
1371	44.1413
1371.5	43.0847
1372	42.0417
1372.5	41.374
1373	41.2315
1373.5	41.5687
1374	42.3381
1374.5	43.4123
1375	44.5789
1375.5	45.5706
1376	46.1732
1376.5	46.4641
1377	46.7994
1377.5	47.6702
1378	49.1744
1378.5	51.0323
1379	52.5388
1379.5	53.1396
1380	52.5782
1380.5	51.1847
1381	49.7251
1381.5	48.7669
1382	48.5494
1382.5	48.8375
1383	49.3211
1383.5	49.6279
1384	49.5327
1384.5	48.9234
1385	47.8612
1385.5	46.6076
1386	45.4398
1386.5	44.6874
1387	44.4657
1387.5	44.7893
1388	45.4649
1388.5	46.0675
1389	46.2266
1389.5	45.5952
1390	44.3154
1390.5	42.7693
1391	41.7547
1391.5	41.8581
1392	43.1201
1392.5	44.944
1393	46.2897
1393.5	46.5039
1394	45.4417
1394.5	43.9835
1395	42.9172
1395.5	42.6413
1396	42.6446
1396.5	42.369
1397	41.4398
1397.5	40.2535
1398	39.3358
1398.5	39.1612
1399	39.3066
1399.5	39.2837
1400	38.6953
1400.5	37.8498
1401	37.2201
1401.5	37.2868
1402	37.778
1402.5	38.1629
1403	37.9178
1403.5	37.1817
1404	36.3407
1404.5	35.8598
1405	35.7355
1405.5	35.6509
1406	35.2266
1406.5	34.5771
1407	34.1301
1407.5	34.5721
1408	36.0491
1408.5	38.2853
1409	40.5304
1409.5	41.9959
1410	42.3583
1410.5	41.5947
1411	40.3818
1411.5	39.3567
1412	39.0955
1412.5	39.505
1413	40.0797
1413.5	40.1432
1414	39.3443
1414.5	37.8057
1415	35.9873
1415.5	34.5598
1416	33.8199
1416.5	33.7644
1417	34.0737
1417.5	34.5371
1418	35.1655
1418.5	36.054
1419	37.1992
1419.5	38.3899
1420	39.2842
1420.5	39.6796
1421	39.4958
1421.5	38.9418
1422	38.3062
1422.5	37.8527
1423	37.7208
1423.5	37.8997
1424	38.3125
1424.5	38.7297
1425	38.8967
1425.5	38.5433
1426	37.6534
1426.5	36.4966
1427	35.4114
1427.5	34.7292
1428	34.523
1428.5	34.719
1429	35.0815
1429.5	35.4496
1430	35.9183
1430.5	36.7715
1431	38.1782
1431.5	40.0946
1432	41.9772
1432.5	43.0587
1433	42.7794
1433.5	41.1659
1434	39.0723
1434.5	37.4454
1435	37.0783
1435.5	37.7981
1436	38.9102
1436.5	39.5518
1437	39.456
1437.5	38.804
1438	38.0569
1438.5	37.4891
1439	36.9773
1439.5	36.2239
1440	35.242
1440.5	34.3401
1441	34.0341
1441.5	34.4301
1442	35.2989
1442.5	36.0347
1443	36.2616
1443.5	35.9488
1444	35.3385
1444.5	34.8015
1445	34.5359
1445.5	34.6943
1446	35.3001
1446.5	36.4763
1447	38.3283
1447.5	40.4834
1448	42.4548
1448.5	43.4594
1449	43.4712
1449.5	42.7288
1450	41.7313
1450.5	40.9582
1451	40.4726
1451.5	39.9978
1452	39.2189
1452.5	38.1435
1453	37.1125
1453.5	36.5507
1454	36.6575
1454.5	37.436
1455	38.4364
1455.5	39.373
1456	40.0825
1456.5	40.5423
1457	40.6518
1457.5	40.1029
1458	38.8561
1458.5	37.2099
1459	35.8246
1459.5	35.3287
1460	35.9276
1460.5	37.3797
1461	38.7371
1461.5	39.3128
1462	38.8083
1462.5	37.7673
1463	36.8668
1463.5	36.8
1464	37.7038
1464.5	39.2385
1465	40.8304
1465.5	41.9082
1466	42.1987
1466.5	41.619
1467	40.5963
1467.5	39.6508
1468	39.18
1468.5	39.1325
1469	39.1624
1469.5	38.8298
1470	37.9698
1470.5	36.8492
1471	35.9911
1471.5	35.7856
1472	36.2357
1472.5	37.1089
1473	37.9239
1473.5	38.34
1474	38.2622
1474.5	37.944
1475	37.7936
1475.5	38.2538
1476	39.4923
1476.5	41.1463
1477	42.4657
1477.5	42.6882
1478	41.6924
1478.5	39.8702
1479	38.2762
1479.5	37.789
1480	38.6237
1480.5	40.1491
1481	41.4426
1481.5	41.8857
1482	41.4407
1482.5	40.6888
1483	40.1931
1483.5	40.2265
1484	40.6096
1484.5	41.0347
1485	41.1151
1485.5	40.656
1486	39.6477
1486.5	38.3356
1487	37.1974
1487.5	36.7369
1488	37.3761
1488.5	38.8763
1489	40.6638
1489.5	41.9367
1490	42.2578
1490.5	41.5156
1491	39.9754
1491.5	38.2906
1492	36.8992
1492.5	36.0558
1493	35.6475
1493.5	35.544
1494	35.6303
1494.5	35.8403
1495	36.1899
1495.5	36.6512
1496	37.0249
1496.5	37.0466
1497	36.3967
1497.5	35.2636
1498	34.0732
1498.5	33.4614
1499	33.6696
1499.5	34.6344
1500	35.9803
1500.5	37.1137
1501	37.777
1501.5	37.8168
1502	37.4055
1502.5	36.6319
1503	35.6289
1503.5	34.7635
1504	34.3512
1504.5	34.6853
1505	35.4762
1505.5	36.3108
1506	36.6437
1506.5	36.5201
1507	36.2462
1507.5	36.2183
1508	36.4667
1508.5	36.7191
1509	36.5358
1509.5	35.9681
1510	35.3516
1510.5	35.1703
1511	35.525
1511.5	36.1848
1512	36.7411
1512.5	37.0513
1513	37.2811
1513.5	37.7212
1514	38.4358
1514.5	39.2114
1515	39.6601
1515.5	39.6113
1516	39.1169
1516.5	38.2827
1517	37.285
1517.5	36.2543
1518	35.408
1518.5	34.9958
1519	35.1342
1519.5	35.7298
1520	36.2389
1520.5	36.116
1521	35.1049
1521.5	33.6325
1522	32.4141
1522.5	32.2049
1523	33.2108
1523.5	34.8804
1524	36.4171
1524.5	37.1182
1525	36.8232
1525.5	35.7114
1526	34.4156
1526.5	33.6608
1527	33.5984
1527.5	34.014
1528	34.5749
1528.5	35.0301
1529	35.3048
1529.5	35.4875
1530	35.6514
1530.5	35.8562
1531	36.2453
1531.5	36.9569
1532	37.9807
1532.5	39.0208
1533	39.4976
1533.5	38.9277
1534	37.2113
1534.5	34.7185
1535	32.6074
1535.5	31.4821
1536	31.4043
1536.5	31.9203
1537	32.5482
1537.5	33.0189
1538	33.5002
1538.5	34.3336
1539	35.4295
1539.5	36.4226
1540	36.729
1540.5	36.1758
1541	35.1923
1541.5	34.6304
1542	34.9654
1542.5	36.3234
1543	37.9671
1543.5	39.0327
1544	38.8748
1544.5	37.6771
1545	35.7963
1545.5	33.8524
1546	32.3124
1546.5	31.4531
1547	31.3237
1547.5	31.9035
1548	33.1785
1548.5	34.7737
1549	36.2578
1549.5	37.2255
1550	37.6521
1550.5	37.6786
1551	37.6413
1551.5	37.6964
1552	37.6839
1552.5	37.3375
1553	36.5745
1553.5	35.6249
1554	35.1243
1554.5	35.5823
1555	37.0372
1555.5	38.9441
1556	40.5542
1556.5	41.1052
1557	40.3697
1557.5	38.602
1558	36.5041
1558.5	34.5876
1559	33.3089
1559.5	32.7547
1560	32.8088
1560.5	33.1757
1561	33.5736
1561.5	33.7565
1562	33.6278
1562.5	33.277
1563	32.9672
1563.5	32.9229
1564	33.2635
1564.5	33.9444
1565	34.7271
1565.5	35.353
1566	35.6862
1566.5	35.7469
1567	35.609
1567.5	35.4176
1568	35.2401
1568.5	35.0732
1569	34.8912
1569.5	34.7019
1570	34.5737
1570.5	34.5921
1571	34.7883
1571.5	35.0383
1572	35.1966
1572.5	35.1213
1573	34.8903
1573.5	34.7254
1574	34.9176
1574.5	35.4751
1575	36.2282
1575.5	36.7987
1576	36.9188
1576.5	36.5467
1577	36.0622
1577.5	35.7527
1578	35.7864
1578.5	36.0046
1579	36.1819
1579.5	36.2312
1580	36.3407
1580.5	36.7853
1581	37.6393
1581.5	38.674
1582	39.2654
1582.5	39.0263
1583	37.8923
1583.5	36.1797
1584	34.4883
1584.5	33.3626
1585	33.0738
1585.5	33.4483
1586	34.2987
1586.5	35.3034
1587	36.2405
1587.5	36.8407
1588	37.0288
1588.5	36.8419
1589	36.5149
1589.5	36.3603
1590	36.6412
1590.5	37.2734
1591	37.787
1591.5	37.5165
1592	36.1956
1592.5	33.9138
1593	31.271
1593.5	29.1988
1594	28.3113
1594.5	28.6806
1595	29.8934
1595.5	31.5202
1596	33.1416
1596.5	34.6175
1597	35.8321
1597.5	36.6001
1598	36.6141
1598.5	35.6106
1599	33.8208
1599.5	31.8223
1600	30.3455
1600.5	29.6492
1601	29.7113
1601.5	30.0632
1602	30.4166
1602.5	30.8369
1603	31.6024
1603.5	32.8801
1604	34.4709
1604.5	35.9011
1605	36.604
1605.5	36.5169
1606	35.9351
1606.5	35.2221
1607	34.6564
1607.5	34.3138
1608	34.22
1608.5	34.3857
1609	34.8907
1609.5	35.6757
1610	36.5251
1610.5	37.1203
1611	37.2574
1611.5	37.0347
1612	36.6961
1612.5	36.486
1613	36.5313
1613.5	36.8762
1614	37.497
1614.5	38.3542
1615	39.2616
1615.5	39.9751
1616	40.1756
1616.5	39.8522
1617	39.2064
1617.5	38.6639
1618	38.3846
1618.5	38.2776
1619	38.0725
1619.5	37.6706
1620	37.288
1620.5	37.3331
1621	37.8884
1621.5	38.6541
1622	39.0277
1622.5	38.5788
1623	37.3203
1623.5	35.9865
1624	35.2931
1624.5	35.6052
1625	36.7703
1625.5	38.3963
1626	39.8224
1626.5	40.6384
1627	40.5887
1627.5	39.8305
1628	38.5758
1628.5	37.2537
1629	36.2506
1629.5	35.7953
1630	35.7442
1630.5	35.9117
1631	36.1943
1631.5	36.5958
1632	37.175
1632.5	37.8257
1633	38.2832
1633.5	38.3226
1634	37.9766
1634.5	37.5046
1635	37.2395
1635.5	37.2885
1636	37.5039
1636.5	37.71
1637	37.8763
1637.5	38.0632
1638	38.2522
1638.5	38.196
1639	37.5574
1639.5	36.3824
1640	35.0742
1640.5	34.3155
1641	34.4466
1641.5	35.3598
1642	36.3116
1642.5	36.6784
1643	36.1982
1643.5	35.1039
1644	33.8431
1644.5	32.8873
1645	32.6051
1645.5	33.1997
1646	34.905
1646.5	37.34
1647	39.8969
1647.5	41.5053
1648	41.5123
1648.5	39.9631
1649	37.8071
1649.5	35.9037
1650	34.8104
1650.5	34.2514
1651	33.7506
1651.5	33.064
1652	32.5695
1652.5	32.7971
1653	33.9872
1653.5	35.7553
1654	37.4031
1654.5	38.2961
1655	38.4557
1655.5	38.1745
1656	37.8383
1656.5	37.4983
1657	36.9155
1657.5	35.8424
1658	34.2719
1658.5	32.5998
1659	31.2761
1659.5	30.7888
1660	31.1898
1660.5	32.2753
1661	33.456
1661.5	34.129
1662	33.9792
1662.5	33.1233
1663	32.0542
1663.5	31.2962
1664	31.095
1664.5	31.1866
1665	31.149
1665.5	30.8239
1666	30.3776
1666.5	30.2625
1667	30.7569
1667.5	31.8824
1668	33.2394
1668.5	34.5595
1669	35.7523
1669.5	36.8614
1670	37.8224
1670.5	38.204
1671	37.6291
1671.5	35.9616
1672	33.5877
1672.5	31.2774
1673	29.8358
1673.5	29.7158
1674	30.8304
1674.5	32.7401
1675	34.7705
1675.5	36.5384
1676	37.8352
1676.5	38.861
1677	40.0205
1677.5	41.8965
1678	44.5679
1678.5	47.6612
1679	50.1441
1679.5	51.0937
1680	49.6342
1680.5	46.4044
1681	42.5691
1681.5	39.576
1682	37.8583
1682.5	37.1843
1683	36.6267
1683.5	35.6003
1684	34.1735
1684.5	33.2632
1685	33.46
1685.5	34.7405
1686	36.1274
1686.5	36.6236
1687	35.6868
1687.5	33.9027
1688	32.4016
1688.5	31.9363
1689	32.3952
1689.5	33.1099
1690	33.3041
1690.5	32.7576
1691	31.9478
1691.5	31.5655
1692	31.8905
1692.5	32.5927
1693	33.1274
1693.5	33.0003
1694	32.2646
1694.5	31.3278
1695	30.8673
1695.5	31.2364
1696	32.5832
1696.5	34.6482
1697	36.7994
1697.5	38.1988
1698	38.1139
1698.5	36.5929
1699	34.1046
1699.5	31.7134
1700	30.1553
1700.5	29.8224
1701	30.2892
1701.5	31.0071
1702	31.4898
1702.5	31.6858
1703	31.6532
1703.5	31.4776
1704	31.1807
1704.5	30.8796
1705	30.9209
1705.5	31.6245
1706	32.9552
1706.5	34.3326
1707	34.9869
1707.5	34.4842
1708	33.1636
1708.5	32.0644
1709	32.1005
1709.5	33.2817
1710	34.7215
1710.5	35.2507
1711	34.1826
1711.5	31.9192
1712	29.7705
1712.5	29.125
1713	30.2469
1713.5	32.5603
1714	35.0462
1714.5	36.7841
1715	37.3828
1715.5	36.8703
1716	35.7379
1716.5	34.3455
1717	33.0251
1717.5	31.9628
1718	31.2756
1718.5	30.8407
1719	30.5062
1719.5	30.236
1720	30.2413
1720.5	30.8235
1721	32.0683
1721.5	33.6025
1722	34.8288
1722.5	35.2494
1723	34.8683
1723.5	34.0756
1724	33.2664
1724.5	32.4216
1725	31.2777
1725.5	29.8115
1726	28.3754
1726.5	27.7257
1727	28.1355
1727.5	29.2376
1728	30.0674
1728.5	30.0411
1729	29.0934
1729.5	28.0125
1730	27.5158
1730.5	27.9095
1731	28.6779
1731.5	29.3276
1732	29.6738
1732.5	29.8668
1733	30.0712
1733.5	30.2004
1734	30.0119
1734.5	29.4652
1735	29.02
1735.5	29.1873
1736	30.1211
1736.5	31.361
1737	32.1603
1737.5	32.0482
1738	31.2196
1738.5	30.4404
1739	30.2504
1739.5	30.6546
1740	31.1219
1740.5	31.0865
1741	30.2375
1741.5	28.8101
1742	27.2827
1742.5	26.1021
1743	25.4491
1743.5	25.4235
1744	26.1973
1744.5	27.7213
1745	29.9128
1745.5	32.3145
1746	34.2729
1746.5	35.1148
1747	34.5902
1747.5	32.8627
1748	30.3577
1748.5	27.9657
1749	26.425
1749.5	26.4539
1750	27.7891
1750.5	29.8909
1751	31.7879
1751.5	32.8289
1752	32.6611
1752.5	31.7571
1753	30.7133
1753.5	30.059
1754	29.5617
1754.5	28.6461
1755	26.6836
1755.5	23.7177
1756	20.2271
1756.5	17.1797
1757	15.2057
1757.5	14.7285
1758	15.1921
1758.5	16.2973
1759	17.9927
1759.5	20.3305
1760	23.3717
1760.5	26.7
1761	29.5736
1761.5	30.9846
1762	30.8329
1762.5	29.6078
1763	28.2643
1763.5	27.7161
1764	28.3782
1764.5	30.0305
1765	31.8775
1765.5	33.043
1766	33.049
1766.5	32.0092
1767	30.2626
1767.5	28.4765
1768	27.0999
1768.5	26.4728
1769	26.4977
1769.5	27.0008
1770	27.6234
1770.5	28.1308
1771	28.4168
1771.5	28.5754
1772	28.7683
1772.5	29.1915
1773	29.8532
1773.5	30.6396
1774	31.2894
1774.5	31.6661
1775	31.7583
1775.5	31.7272
1776	31.7176
1776.5	31.7675
1777	31.7514
1777.5	31.5173
1778	30.9621
1778.5	30.2292
1779	29.4491
1779.5	28.702
1780	27.9575
1780.5	27.1721
1781	26.4267
1781.5	25.9248
1782	26.0448
1782.5	26.7845
1783	27.9509
1783.5	29.1152
1784	29.9274
1784.5	30.2402
1785	30.2298
1785.5	30.1935
1786	30.3759
1786.5	30.7667
1787	31.2182
1787.5	31.5686
1788	31.7523
1788.5	31.7024
1789	31.2668
1789.5	30.314
1790	28.7302
1790.5	26.8265
1791	25.217
1791.5	24.68
1792	25.3559
1792.5	26.9277
1793	28.5285
1793.5	29.3036
1794	28.7613
1794.5	27.1127
1795	25.121
1795.5	23.6061
1796	23.0189
1796.5	23.4243
1797	24.8254
1797.5	26.8613
1798	29.2576
1798.5	31.5149
1799	33.0685
1799.5	33.2788
1800	32.0237
1800.5	29.6789
1801	26.8756
1801.5	24.4818
1802	23.0247
1802.5	22.81
1803	23.4608
1803.5	24.5572
1804	25.5255
1804.5	26.0871
1805	26.1579
1805.5	25.957
1806	25.7477
1806.5	25.7964
1807	26.1406
1807.5	26.6961
1808	27.2897
1808.5	27.845
1809	28.4347
1809.5	29.1647
1810	29.979
1810.5	30.6032
1811	30.6922
1811.5	30.0924
1812	28.9173
1812.5	27.7136
1813	26.9395
1813.5	26.7083
1814	26.6954
1814.5	26.4978
1815	25.8912
1815.5	24.9946
1816	24.1531
1816.5	23.7336
1817	23.9626
1817.5	25.0088
1818	26.6882
1818.5	28.7795
1819	30.7153
1819.5	31.8965
1820	31.7011
1820.5	30.2278
1821	28.0419
1821.5	26.1191
1822	25.2397
1822.5	25.6041
1823	26.8948
1823.5	28.5524
1824	30.1933
1824.5	31.5118
1825	32.3002
1825.5	32.2422
1826	31.3951
1826.5	30.0704
1827	28.9972
1827.5	28.6507
1828	29.0573
1828.5	29.6719
1829	29.9359
1829.5	29.587
1830	28.952
1830.5	28.4364
1831	28.2362
1831.5	27.979
1832	27.2437
1832.5	25.9554
1833	24.6178
1833.5	23.8457
1834	23.9337
1834.5	24.572
1835	25.1358
1835.5	25.087
1836	24.3773
1836.5	23.436
1837	22.8904
1837.5	23.0644
1838	23.879
1838.5	24.9096
1839	25.7275
1839.5	26.1161
1840	26.1955
1840.5	26.303
1841	26.7509
1841.5	27.5895
1842	28.5442
1842.5	29.3158
1843	29.7832
1843.5	30.0422
1844	30.1815
1844.5	30.0578
1845	29.4057
1845.5	28.1328
1846	26.5517
1846.5	25.454
1847	25.3707
1847.5	26.1725
1848	27.0436
1848.5	27.1522
1849	26.2742
1849.5	24.9297
1850	24.0115
1850.5	24.0038
1851	24.7244
1851.5	25.3347
1852	25.1344
1852.5	23.9392
1853	22.2313
1853.5	20.7037
1854	19.9665
1854.5	20.1322
1855	20.9543
1855.5	21.9994
1856	22.8125
1856.5	23.1929
1857	23.2263
1857.5	23.2017
1858	23.3411
1858.5	23.7197
1859	24.2612
1859.5	24.8557
1860	25.4022
1860.5	25.8508
1861	26.1527
1861.5	26.333
1862	26.4838
1862.5	26.8126
1863	27.4313
1863.5	28.3173
1864	29.1789
1864.5	29.7206
1865	29.6617
1865.5	29.1114
1866	28.26
1866.5	27.3848
1867	26.6805
1867.5	26.2702
1868	26.1871
1868.5	26.3887
1869	26.8047
1869.5	27.2589
1870	27.6119
1870.5	27.7271
1871	27.5881
1871.5	27.198
1872	26.671
1872.5	26.264
1873	26.3547
1873.5	27.1394
1874	28.4391
1874.5	29.7171
1875	30.3282
1875.5	29.9902
1876	28.9425
1876.5	27.967
1877	27.7238
1877.5	28.3422
1878	29.2158
1878.5	29.3679
1879	28.2617
1879.5	26.0889
1880	23.6454
1880.5	21.9783
1881	21.721
1881.5	22.8899
1882	24.6814
1882.5	26.1959
1883	26.718
1883.5	26.2257
1884	25.1173
1884.5	24.1959
1885	23.8902
1885.5	24.3375
1886	25.143
1886.5	25.8777
1887	26.1595
1887.5	26.0106
1888	25.7374
1888.5	25.8629
1889	26.6276
1889.5	27.8738
1890	28.7931
1890.5	28.7124
1891	27.369
1891.5	25.417
1892	23.7386
1892.5	23.1136
1893	23.5594
1893.5	24.6771
1894	25.7443
1894.5	26.4514
1895	26.8436
1895.5	27.2173
1896	27.6321
1896.5	27.8084
1897	27.4412
1897.5	26.3549
1898	24.8845
1898.5	23.5629
1899	23.0251
1899.5	23.354
1900	24.2758
1900.5	25.1288
1901	25.3797
1901.5	24.8212
1902	23.8064
1902.5	22.8021
1903	22.1213
1903.5	21.7846
1904	21.7631
1904.5	22.2337
1905	23.3662
1905.5	25.2569
1906	27.5297
1906.5	29.399
1907	29.9851
1907.5	28.9468
1908	26.79
1908.5	24.5591
1909	23.3258
1909.5	23.5572
1910	25.1155
1910.5	27.0519
1911	28.5439
1911.5	29.1307
1912	29.0759
1912.5	28.832
1913	28.6302
1913.5	28.162
1914	26.7194
1914.5	24.5018
1915	22.419
1915.5	21.972
1916	23.532
1916.5	26.4341
1917	28.7537
1917.5	29.2414
1918	27.6412
1918.5	25.5176
1919	24.2522
1919.5	24.5306
1920	25.3961
1920.5	25.7079
1921	24.9567
1921.5	23.8075
1922	23.2056
1922.5	23.6284
1923	24.8157
1923.5	26.1858
1924	27.2145
1924.5	27.7099
1925	27.6122
1925.5	27.0434
1926	26.1592
1926.5	25.4029
1927	25.2328
1927.5	25.9856
1928	27.3553
1928.5	28.9002
1929	30.1845
1929.5	31.0989
1930	31.6075
1930.5	31.5605
1931	30.7817
1931.5	29.0845
1932	26.7967
1932.5	24.5366
1933	23.1037
1933.5	22.7865
1934	23.4869
1934.5	24.7274
1935	25.9519
1935.5	26.8233
1936	27.1609
1936.5	26.9678
1937	26.2104
1937.5	24.9981
1938	23.4615
1938.5	21.8069
1939	20.3567
1939.5	19.4253
1940	19.3145
1940.5	20.0027
1941	21.431
1941.5	23.2986
1942	25.3127
1942.5	27.1215
1943	28.3501
1943.5	28.7295
1944	28.1945
1944.5	27.3095
1945	26.7265
1945.5	26.9604
1946	27.7998
1946.5	28.5898
1947	28.5863
1947.5	27.6465
1948	26.1143
1948.5	24.7437
1949	23.9225
1949.5	23.7782
1950	24.1928
1950.5	25.1487
1951	26.4144
1951.5	27.512
1952	27.7423
1952.5	26.9034
1953	25.3912
1953.5	24.1444
1954	23.7631
1954.5	24.1187
1955	24.2606
1955.5	23.4592
1956	21.6923
1956.5	20.0695
1957	19.5218
1957.5	20.5769
1958	22.5236
1958.5	24.61
1959	26.2494
1959.5	27.5086
1960	28.641
1960.5	29.7879
1961	30.7588
1961.5	31.1486
1962	30.802
1962.5	29.8793
1963	28.7462
1963.5	27.7316
1964	26.8282
1964.5	25.7869
1965	24.549
1965.5	23.4521
1966	23.2295
1966.5	24.3162
1967	26.7408
1967.5	29.4558
1968	31.4381
1968.5	31.8664
1969	31.1007
1969.5	29.7732
1970	28.5678
1970.5	27.5755
1971	26.5361
1971.5	25.2644
1972	23.9516
1972.5	23.0587
1973	22.7413
1973.5	22.9268
1974	23.4145
1974.5	24.0786
1975	24.8949
1975.5	25.6324
1976	25.873
1976.5	25.0657
1977	23.322
1977.5	21.2395
1978	19.9065
1978.5	19.9234
1979	21.3405
1979.5	23.434
1980	25.3357
1980.5	26.5196
1981	27.1745
1981.5	27.7144
1982	28.3996
1982.5	28.9591
1983	28.8583
1983.5	27.5848
1984	25.5041
1984.5	23.4678
1985	22.6181
1985.5	23.2255
1986	24.7301
1986.5	25.6282
1987	24.9643
1987.5	22.6175
1988	20.0665
1988.5	18.7755
1989	19.6253
1989.5	21.808
1990	23.9248
1990.5	24.745
1991	24.2111
1991.5	23.0234
1992	22.3072
1992.5	22.5505
1993	23.5665
1993.5	24.5423
1994	24.8267
1994.5	24.2521
1995	23.2605
1995.5	22.461
1996	22.2728
1996.5	22.6967
1997	23.5661
1997.5	24.6275
1998	25.8326
1998.5	27.0882
1999	28.0655
1999.5	28.2438
2000	27.3759
2000.5	25.8425
2001	24.496
2001.5	24.1341
2002	24.8844
2002.5	26.1748
2003	27.0706
2003.5	27.0628
2004	26.3169
2004.5	25.454
2005	25.0197
2005.5	25.185
2006	25.8497
2006.5	26.9278
2007	28.2061
2007.5	29.4023
2008	29.9641
2008.5	29.5999
2009	28.3959
2009.5	27.1368
2010	26.5061
2010.5	26.7535
2011	27.1572
2011.5	26.8773
2012	25.2577
2012.5	22.834
2013	20.51
2013.5	19.3579
2014	19.5853
2014.5	20.8915
2015	22.3307
2015.5	23.2201
2016	23.1774
2016.5	22.6268
2017	22.1759
2017.5	22.5685
2018	23.9399
2018.5	26.0243
2019	27.9855
2019.5	29.1096
2020	28.9543
2020.5	27.8676
2021	26.3896
2021.5	25.0768
2022	24.1369
2022.5	23.5338
2023	23.1082
2023.5	22.7619
2024	22.5432
2024.5	22.5619
2025	22.8453
2025.5	23.3025
2026	23.6395
2026.5	23.6107
2027	23.1358
2027.5	22.6022
2028	22.5596
2028.5	23.448
2029	25.0207
2029.5	26.5597
2030	27.1911
2030.5	26.7036
2031	25.5103
2031.5	24.5564
2032	24.2185
2032.5	24.1634
2033	23.721
2033.5	22.5796
2034	21.2505
2034.5	20.5146
2035	20.9932
2035.5	22.3175
2036	23.8094
2036.5	24.7759
2037	25.1671
2037.5	25.1864
2038	25.0629
2038.5	24.8132
2039	24.3823
2039.5	23.9326
2040	23.7189
2040.5	23.8996
2041	24.1481
2041.5	24.0507
2042	23.3958
2042.5	22.63
2043	22.4325
2043.5	23.2518
2044	24.7578
2044.5	26.1483
2045	26.627
2045.5	25.9725
2046	24.3671
2046.5	22.5254
2047	20.99
2047.5	20.2374
2048	20.351
2048.5	21.2707
2049	22.4596
2049.5	23.2733
2050	23.0015
2050.5	21.6841
2051	19.8663
2051.5	18.669
2052	18.8366
2052.5	20.5315
2053	22.8927
2053.5	24.757
2054	25.1986
2054.5	24.3836
2055	23.0787
2055.5	22.2354
2056	22.1129
2056.5	22.4395
2057	22.6837
2057.5	22.7028
2058	22.7282
2058.5	23.0351
2059	23.4754
2059.5	23.5758
2060	23.0964
2060.5	22.2793
2061	21.7835
2061.5	21.9574
2062	22.6487
2062.5	23.1893
2063	23.1418
2063.5	22.501
2064	21.8204
2064.5	21.5271
2065	21.7864
2065.5	22.2562
2066	22.6249
2066.5	22.6802
2067	22.4822
2067.5	22.1777
2068	22.0633
2068.5	22.4339
2069	23.6145
2069.5	25.4487
2070	27.4637
2070.5	28.861
2071	29.2631
2071.5	28.7228
2072	27.8269
2072.5	27.1481
2073	26.8963
2073.5	26.7686
2074	26.3671
2074.5	25.3652
2075	23.9225
2075.5	22.3964
2076	21.4028
2076.5	21.3687
2077	22.5671
2077.5	24.6959
2078	26.9732
2078.5	28.4272
2079	28.4943
2079.5	27.2624
2080	25.2222
2080.5	23.1845
2081	21.573
2081.5	20.577
2082	20.1503
2082.5	20.3712
2083	21.2043
2083.5	22.3969
2084	23.4538
2084.5	23.8691
2085	23.4723
2085.5	22.4687
2086	21.429
2086.5	20.7559
2087	20.6012
2087.5	20.833
2088	21.355
2088.5	22.0681
2089	22.8647
2089.5	23.4812
2090	23.6638
2090.5	23.3412
2091	22.8049
2091.5	22.5341
2092	22.8211
2092.5	23.4403
2093	23.8884
2093.5	23.7335
2094	23.2142
2094.5	22.9399
2095	23.7216
2095.5	25.5725
2096	28.019
2096.5	30.019
2097	30.8576
2097.5	30.2175
2098	28.6234
2098.5	26.7724
2099	25.2614
2099.5	24.1677
2100	23.2954
2100.5	22.4425
2101	21.7322
2101.5	21.5534
2102	22.2029
2102.5	23.4613
2103	24.8046
2103.5	25.693
2104	26.0583
2104.5	26.1637
2105	26.3051
2105.5	26.4039
2106	26.0948
2106.5	25.2646
2107	24.1267
2107.5	23.2096
2108	22.7609
2108.5	22.7208
2109	22.7447
2109.5	22.7181
2110	22.7699
2110.5	22.9884
2111	23.2142
2111.5	23.0597
2112	22.4295
2112.5	21.6407
2113	21.3889
2113.5	22.0211
2114	23.3722
2114.5	24.4801
2115	24.5171
2115.5	23.115
2116	21.0196
2116.5	19.3634
2117	19.2329
2117.5	20.6761
2118	22.9466
2118.5	24.5355
2119	24.5425
2119.5	22.8563
2120	20.7846
2120.5	19.6615
2121	20.3947
2121.5	22.5451
2122	25.1013
2122.5	26.778
2123	27.0698
2123.5	25.9935
2124	24.464
2124.5	23.1913
2125	22.6548
2125.5	22.6427
2126	22.7107
2126.5	22.3718
2127	21.5945
2127.5	20.712
2128	20.253
2128.5	20.4327
2129	21.1223
2129.5	21.7931
2130	22.0637
2130.5	21.8198
2131	21.3505
2131.5	21.0759
2132	21.4014
2132.5	22.4158
2133	23.9071
2133.5	25.126
2134	25.3535
2134.5	24.0745
2135	21.9078
2135.5	19.9094
2136	19.3416
2136.5	20.4515
2137	22.763
2137.5	24.955
2138	26.1762
2138.5	25.982
2139	24.9109
2139.5	23.4437
2140	22.099
2140.5	21.2071
2141	21.0268
2141.5	21.4538
2142	22.024
2142.5	22.1056
2143	21.6143
2143.5	21.1289
2144	21.7854
2144.5	23.8412
2145	26.6006
2145.5	28.2677
2146	27.7516
2146.5	24.9734
2147	21.674
2147.5	19.4869
2148	19.5318
2148.5	20.9443
2149	22.514
2149.5	22.967
2150	22.1439
2150.5	20.444
2151	18.7764
2151.5	17.7649
2152	17.8002
2152.5	18.6326
2153	19.8263
2153.5	20.784
2154	21.1763
2154.5	21.0087
2155	20.7502
2155.5	20.9788
2156	22.1381
2156.5	24.0467
2157	26.0998
2157.5	27.4356
2158	27.6527
2158.5	26.7941
2159	25.2741
2159.5	23.6085
2160	22.0074
2160.5	20.5335
2161	19.284
2161.5	18.5543
2162	18.5299
2162.5	19.1398
2163	20.0793
2163.5	20.896
2164	21.3268
2164.5	21.2286
2165	20.6776
2165.5	19.855
2166	19.2924
2166.5	19.5147
2167	20.9274
2167.5	22.9868
2168	24.861
2168.5	25.6329
2169	25.3347
2169.5	24.4134
2170	23.5234
2170.5	22.8598
2171	22.313
2171.5	21.7707
2172	21.337
2172.5	21.2006
2173	21.2415
2173.5	21.2137
2174	20.9136
2174.5	20.4516
2175	20.0062
2175.5	19.6215
2176	19.1845
2176.5	18.6534
2177	18.2719
2177.5	18.3284
2178	18.9711
2178.5	19.8405
2179	20.5182
2179.5	20.7094
2180	20.5704
2180.5	20.4947
2181	20.9591
2181.5	22.1386
2182	23.9254
2182.5	25.6471
2183	26.6449
2183.5	26.3946
2184	25.225
2184.5	23.7595
2185	22.7987
2185.5	22.5874
2186	22.9573
2186.5	23.2866
2187	23.1219
2187.5	22.1596
2188	20.7186
2188.5	19.3417
2189	18.8569
2189.5	19.5724
2190	21.2792
2190.5	22.8886
2191	23.4884
2191.5	22.6218
2192	21.1263
2192.5	19.9401
2193	19.7608
2193.5	20.2737
2194	20.9448
2194.5	21.3902
2195	21.7428
2195.5	22.2887
2196	23.0133
2196.5	23.5965
2197	23.5726
2197.5	22.9508
2198	21.9623
2198.5	21.0093
2199	20.3243
2199.5	20.0093
2200	20.0499
2200.5	20.3745
2201	20.8457
2201.5	21.1614
2202	21.0861
2202.5	20.5407
2203	19.8461
2203.5	19.3467
2204	19.2366
2204.5	19.3769
2205	19.6187
2205.5	20.024
2206	20.8044
2206.5	22.0518
2207	23.2295
2207.5	23.6913
2208	23.102
2208.5	22.1331
2209	21.7038
2209.5	22.2469
2210	23.1713
2210.5	23.5054
2211	23.0323
2211.5	22.432
2212	22.7517
2212.5	23.8788
2213	24.8614
2213.5	24.5007
2214	22.9314
2214.5	21.0977
2215	20.0591
2215.5	19.8199
2216	19.7131
2216.5	19.204
2217	18.4861
2217.5	18.1966
2218	18.5213
2218.5	19.2372
2219	19.9987
2219.5	20.8379
2220	21.9568
2220.5	23.1082
2221	23.6649
2221.5	22.8675
2222	21.1462
2222.5	19.4828
2223	19.1866
2223.5	20.4772
2224	22.8437
2224.5	25.0244
2225	26.215
2225.5	26.0403
2226	25.0601
2226.5	23.8986
2227	23.2247
2227.5	23.2571
2228	23.9514
2228.5	24.8944
2229	25.5855
2229.5	25.5491
2230	24.7045
2230.5	23.3639
2231	22.181
2231.5	21.685
2232	21.8939
2232.5	22.1234
2233	21.594
2233.5	20.0341
2234	18.2349
2234.5	17.2409
2235	17.7396
2235.5	19.0517
2236	20.1765
2236.5	20.2308
2237	19.4682
2237.5	18.5405
2238	18.2504
2238.5	18.843
2239	20.2717
2239.5	21.9876
2240	23.3691
2240.5	23.7148
2241	23.086
2241.5	22.0001
2242	21.2998
2242.5	21.1832
2243	21.2134
2243.5	20.7267
2244	19.8494
2244.5	19.4588
2245	20.2869
2245.5	22.0344
2246	23.3921
2246.5	23.3241
2247	21.8057
2247.5	19.9415
2248	18.7822
2248.5	18.6675
2249	19.0298
2249.5	19.2723
2250	19.0554
2250.5	18.4787
2251	17.7246
2251.5	17.1344
2252	17.0539
2252.5	17.6733
2253	18.6218
2253.5	19.2064
2254	18.8766
2254.5	17.9543
2255	17.1398
2255.5	17.0413
2256	17.3097
2256.5	17.3245
2257	16.7075
2257.5	15.9659
2258	15.9501
2258.5	17.1695
2259	19.2856
2259.5	21.5546
2260	23.2425
2260.5	24.1034
2261	24.0903
2261.5	23.4077
2262	22.0938
2262.5	20.3678
2263	18.7486
2263.5	17.9989
2264	18.6307
2264.5	20.4787
2265	22.772
2265.5	24.3866
2266	24.8308
2266.5	24.3359
2267	23.6447
2267.5	23.0653
2268	22.2872
2268.5	20.9543
2269	19.1988
2269.5	17.9492
2270	17.9079
2270.5	19.1419
2271	20.5395
2271.5	21.1867
2272	20.8695
2272.5	20.3054
2273	20.2328
2273.5	20.7853
2274	21.5472
2274.5	22.0413
2275	22.1929
2275.5	22.1099
2276	21.827
2276.5	21.3438
2277	20.8268
2277.5	20.8415
2278	21.7672
2278.5	23.5222
2279	25.1008
2279.5	25.5637
2280	24.2812
2280.5	22.0945
2281	20.0515
2281.5	19.1129
2282	19.1188
2282.5	19.382
2283	19.1343
2283.5	18.4054
2284	17.8842
2284.5	18.2698
2285	19.5871
2285.5	21.1439
2286	22.1308
2286.5	22.3159
2287	22.2156
2287.5	22.4264
2288	23.0805
2288.5	23.5758
2289	23.3128
2289.5	21.9944
2290	20.2265
2290.5	18.6659
2291	17.9316
2291.5	18.0427
2292	18.7964
2292.5	19.6851
2293	20.3303
2293.5	20.5761
2294	20.7181
2294.5	21.1001
2295	21.8403
2295.5	22.4352
2296	22.2199
2296.5	20.8735
2297	19.0495
2297.5	17.866
2298	18.1916
2298.5	19.872
2299	22.0564
2299.5	23.6305
2300	24.1793
2300.5	23.8128
2301	23.025
2301.5	22.0857
2302	21.2132
2302.5	20.6226
2303	20.611
2303.5	21.1478
2304	21.8882
2304.5	22.2188
2305	21.8772
2305.5	20.9996
2306	20.1277
2306.5	19.6619
2307	19.6768
2307.5	19.8369
2308	19.8388
2308.5	19.5731
2309	19.2814
2309.5	19.2225
2310	19.5444
2310.5	20.0368
2311	20.3905
2311.5	20.3711
2312	20.1572
2312.5	20.261
2313	21.1722
2313.5	22.8415
2314	24.5746
2314.5	25.3659
2315	24.6759
2315.5	22.7991
2316	20.8526
2316.5	19.8202
2317	19.9744
2317.5	20.7674
2318	21.4182
2318.5	21.5135
2319	21.1679
2319.5	20.7117
2320	20.3126
2320.5	19.8665
2321	19.2115
2321.5	18.4671
2322	18.0208
2322.5	18.2641
2323	19.2212
2323.5	20.6399
2324	22.0213
2324.5	23.1148
2325	23.8376
2325.5	24.2368
2326	24.2244
2326.5	23.7042
2327	22.7627
2327.5	21.5386
2328	20.2444
2328.5	19.049
2329	18.3584
2329.5	18.6072
2330	20.0982
2330.5	22.3983
2331	24.3718
2331.5	24.931
2332	24.0572
2332.5	22.6796
2333	21.8525
2333.5	21.5635
2334	21.0466
2334.5	19.5392
2335	17.6918
2335.5	16.8088
2336	17.849
2336.5	20.2214
2337	22.5765
2337.5	23.6895
2338	23.4863
2338.5	22.5794
2339	21.7785
2339.5	21.2299
2340	20.5746
2340.5	19.482
2341	17.9404
2341.5	16.4589
2342	15.5703
2342.5	15.6652
2343	16.3185
2343.5	16.9908
2344	17.322
2344.5	17.6282
2345	18.4136
2345.5	19.7626
2346	20.9819
2346.5	21.128
2347	20.0694
2347.5	18.5862
2348	17.8942
2348.5	18.3309
2349	19.4674
2349.5	20.485
2350	21.1102
2350.5	21.5054
2351	21.748
2351.5	21.5661
2352	20.6268
2352.5	19.3272
2353	18.3677
2353.5	18.3577
2354	18.8743
2354.5	19.2148
2355	18.8934
2355.5	18.2266
2356	17.6999
2356.5	17.3509
2357	16.7483
2357.5	15.5903
2358	14.5109
2358.5	14.3654
2359	15.6623
2359.5	17.6242
2360	19.2464
2360.5	19.9409
2361	20.0952
2361.5	20.3074
2362	20.665
2362.5	20.7219
2363	20.0179
2363.5	19.0451
2364	18.6281
2364.5	19.2857
2365	20.4277
2365.5	21.1138
2366	20.7592
2366.5	19.6694
2367	18.5861
2367.5	18.1426
2368	18.4781
2368.5	19.4334
2369	20.584
2369.5	21.5713
2370	22.0404
2370.5	21.9331
2371	21.4263
2371.5	20.948
2372	20.6876
2372.5	20.5567
2373	20.2633
2373.5	19.6506
2374	18.7373
2374.5	17.6758
2375	16.5718
2375.5	15.6198
2376	15.1175
2376.5	15.5499
2377	16.9886
2377.5	19.0723
2378	20.9963
2378.5	22.0934
2379	22.0961
2379.5	21.3173
2380	20.3951
2380.5	19.8221
2381	19.683
2381.5	19.7421
2382	19.7423
2382.5	19.7234
2383	19.9357
2383.5	20.5503
2384	21.1215
2384.5	20.8588
2385	19.1314
2385.5	16.3035
2386	13.562
2386.5	12.4801
2387	13.709
2387.5	16.8616
2388	19.9898
2388.5	21.5136
2389	20.7915
2389.5	19.0141
2390	17.8854
2390.5	18.4722
2391	20.3292
2391.5	22.1097
2392	22.5562
2392.5	21.4367
2393	19.4685
2393.5	17.8357
2394	17.2413
2394.5	17.6473
2395	18.4024
2395.5	18.7719
2396	18.4231
2396.5	17.5739
2397	16.8206
2397.5	16.7016
2398	17.3836
2398.5	18.5685
2399	19.6818
2399.5	20.2514
2400	20.0894
2400.5	19.3519
2401	18.3701
2401.5	17.6759
2402	17.5575
2402.5	17.9526
2403	18.2852
2403.5	18.0715
2404	17.3457
2404.5	16.7874
2405	17.223
2405.5	18.7745
2406	20.8055
2406.5	22.2649
2407	22.6478
2407.5	22.1395
2408	21.3055
2408.5	20.4981
2409	19.6357
2409.5	18.479
2410	17.1165
2410.5	16.0767
2411	16.0063
2411.5	17.1007
2412	18.937
2412.5	20.3773
2413	20.62
2413.5	19.6582
2414	18.4293
2414.5	17.9809
2415	18.7321
2415.5	20.1954
2416	21.4069
2416.5	21.6492
2417	20.7836
2417.5	19.044
2418	16.906
2418.5	14.696
2419	12.9312
2419.5	12.2046
2420	13.2707
2420.5	16.0118
2421	19.603
2421.5	22.5011
2422	23.578
2422.5	22.5428
2423	20.3046
2423.5	18.4191
2424	17.9322
2424.5	18.7095
2425	19.8004
2425.5	20.0707
2426	19.1841
2426.5	17.5442
2427	16.1005
2427.5	15.565
2428	16.1843
2428.5	17.5446
2429	18.8895
2429.5	19.5349
2430	19.2486
2430.5	18.3212
2431	17.4568
2431.5	17.3422
2432	18.1856
2432.5	19.543
2433	20.5837
2433.5	20.6915
2434	19.9858
2434.5	19.0303
2435	18.3361
2435.5	17.9359
2436	17.5423
2436.5	16.883
2437	16.2427
2437.5	16.2752
2438	17.6343
2438.5	19.9944
2439	22.2874
2439.5	23.2914
2440	22.8353
2440.5	21.6307
2441	20.8413
2441.5	20.7006
2442	20.418
2442.5	19.2082
2443	17.1615
2443.5	15.5839
2444	15.3458
2444.5	16.3904
2445	17.5347
2445.5	18.0957
2446	18.1744
2446.5	18.4233
2447	18.952
2447.5	19.1416
2448	18.5063
2448.5	17.2673
2449	16.4127
2449.5	16.4854
2450	17.409
2450.5	18.3381
2451	18.7079
2451.5	18.3465
2452	17.664
2452.5	17.0449
2453	16.7495
2453.5	16.7056
2454	16.7261
2454.5	16.6494
2455	16.5617
2455.5	16.8423
2456	17.7103
2456.5	19.0264
2457	20.0558
2457.5	20.0659
2458	18.826
2458.5	17.1555
2459	16.1553
2459.5	16.7831
2460	18.6736
2460.5	20.8456
2461	22.0206
2461.5	21.928
2462	20.9319
2462.5	19.7755
2463	18.6942
2463.5	17.6135
2464	16.7411
2464.5	16.626
2465	17.865
2465.5	19.7889
2466	21.2619
2466.5	21.1422
2467	19.8682
2467.5	18.3687
2468	17.2913
2468.5	16.3774
2469	15.1954
2469.5	14.0443
2470	13.6803
2470.5	14.7374
2471	16.4328
2471.5	17.689
2472	17.931
2472.5	17.7589
2473	18.0317
2473.5	19.0312
2474	20.2011
2474.5	20.6111
2475	20.0067
2475.5	18.8669
2476	18.3062
2476.5	18.8884
2477	20.4789
2477.5	22.0265
2478	22.5968
2478.5	21.7559
2479	20.1849
2479.5	18.6802
2480	17.7785
2480.5	17.2985
2481	17.0846
2481.5	17.1159
2482	17.3091
2482.5	17.3968
2483	17.1181
2483.5	16.6808
2484	16.701
2484.5	17.2659
2485	17.7297
2485.5	17.0606
2486	15.4248
2486.5	13.9247
2487	14.0498
2487.5	15.7994
2488	18.0034
2488.5	19.0752
2489	18.8782
2489.5	18.3289
2490	18.4719
2490.5	19.3853
2491	20.2836
2491.5	20.4624
2492	19.7829
2492.5	18.8503
2493	18.2747
2493.5	18.4383
2494	19.1435
2494.5	19.939
2495	20.156
2495.5	19.622
2496	18.6799
2496.5	18.254
2497	18.7183
2497.5	19.7425
2498	20.3841
2498.5	20.2372
2499	19.5228
2499.5	18.8496
2500	18.2289
2500.5	17.0709
2501	15.3231
2501.5	13.7013
2502	13.3363
2502.5	14.3446
2503	16.0125
2503.5	17.3193
2504	18.2317
2504.5	19.5229
2505	21.3435
2505.5	22.8735
2506	22.7736
2506.5	20.9921
2507	18.4237
2507.5	16.514
2508	15.7019
2508.5	15.6582
2509	15.703
2509.5	15.754
2510	16.0078
2510.5	16.4882
2511	17.1219
2511.5	17.9304
2512	18.9946
2512.5	20.1344
2513	20.7409
2513.5	20.4601
2514	19.438
2514.5	18.5191
2515	18.175
2515.5	18.2402
2516	18.159
2516.5	17.82
2517	17.7423
2517.5	18.2834
2518	19.306
2518.5	20.149
2519	20.5511
2519.5	20.8696
2520	21.6428
2520.5	22.7786
2521	23.4095
2521.5	22.8835
2522	21.1169
2522.5	19.0409
2523	17.5193
2523.5	17.0997
2524	17.3209
2524.5	17.6646
2525	17.6523
2525.5	17.1227
2526	16.0175
2526.5	14.555
2527	13.1845
2527.5	12.5441
2528	12.8862
2528.5	14.087
2529	15.8269
2529.5	17.646
2530	19.2237
2530.5	20.0844
2531	19.8394
2531.5	18.3284
2532	16.2946
2532.5	14.8144
2533	15.0185
2533.5	16.7298
2534	19.0548
2534.5	20.5071
2535	20.474
2535.5	19.1641
2536	17.5358
2536.5	16.3648
2537	16.0243
2537.5	16.3087
2538	17.0024
2538.5	18.1049
2539	19.4916
2539.5	20.8234
2540	21.3955
2540.5	20.9294
2541	19.6406
2541.5	18.3873
2542	17.6537
2542.5	17.2719
2543	16.7764
2543.5	16.2544
2544	16.446
2544.5	17.6611
2545	19.4072
2545.5	20.27
2546	19.673
2546.5	18.0054
2547	16.5946
2547.5	16.1959
2548	16.9654
2548.5	18.2032
2549	19.3866
2549.5	20.0644
2550	20.0493
2550.5	19.2651
2551	18.0787
2551.5	16.9855
2552	16.2903
2552.5	15.8057
2553	15.359
2553.5	15.1692
2554	15.5851
2554.5	16.7119
2555	18.1298
2555.5	19.2963
2556	19.9447
2556.5	20.1735
2557	20.0436
2557.5	19.4854
2558	18.6944
2558.5	17.9849
2559	17.6021
2559.5	17.2583
2560	16.5708
2560.5	15.5773
2561	14.7978
2561.5	14.7885
2562	15.4116
2562.5	16.1406
2563	16.5443
2563.5	16.8528
2564	17.4276
2564.5	18.3453
2565	19.152
2565.5	19.2157
2566	18.2105
2566.5	16.4235
2567	14.3901
2567.5	12.8085
2568	12.0936
2568.5	12.4299
2569	13.4142
2569.5	14.6162
2570	15.6123
2570.5	16.2096
2571	16.2612
2571.5	15.8764
2572	15.3595
2572.5	15.2749
2573	15.8528
2573.5	16.9825
2574	18.2168
2574.5	19.1568
2575	19.5649
2575.5	19.3384
2576	18.5656
2576.5	17.6034
2577	17.1851
2577.5	17.7494
2578	19.0289
2578.5	19.809
2579	19.1283
2579.5	17.3891
2580	15.95
2580.5	15.8651
2581	16.7483
2581.5	17.4939
2582	17.2114
2582.5	16.5479
2583	16.4361
2583.5	17.3388
2584	18.5553
2584.5	19.1656
2585	18.5708
2585.5	16.9893
2586	14.9335
2586.5	13.0866
2587	11.9864
2587.5	12.3232
2588	14.0949
2588.5	16.9939
2589	19.8782
2589.5	21.6434
2590	21.5153
2590.5	19.9575
2591	18.219
2591.5	17.7243
2592	18.2635
2592.5	18.5945
2593	17.2827
2593.5	14.7651
2594	12.5255
2594.5	12.1226
2595	13.0797
2595.5	14.0001
2596	14.1387
2596.5	14.1437
2597	15.2512
2597.5	17.3278
2598	19.251
2598.5	19.8425
2599	19.3318
2599.5	18.3883
2600	17.5212
2600.5	16.6512
2601	15.7093
2601.5	15.0458
2602	14.9375
2602.5	15.2746
2603	15.5811
2603.5	15.7044
2604	15.9475
2604.5	16.5062
2605	17.2035
2605.5	17.6245
2606	17.6615
2606.5	17.4398
2607	17.0592
2607.5	16.3307
2608	15.132
2608.5	13.9653
2609	13.6789
2609.5	14.8338
2610	16.8787
2610.5	18.5583
2611	18.9927
2611.5	18.3024
2612	17.2851
2612.5	16.6565
2613	16.4178
2613.5	16.2239
2614	16.1363
2614.5	16.5324
2615	17.2639
2615.5	17.3365
2616	15.2266
2616.5	11.1663
2617	6.38644
2617.5	2.70837
2618	0.66904
2618.5	0
2619	0.1988
2619.5	1.45314
2620	4.38069
2620.5	8.53448
2621	12.7847
2621.5	15.6759
2622	17.1812
2622.5	17.7423
2623	17.7351
2623.5	17.1868
2624	16.1334
2624.5	15.3499
2625	15.5348
2625.5	16.6707
2626	17.4409
2626.5	16.7097
2627	14.0839
2627.5	10.7949
2628	7.89834
2628.5	5.77996
2629	4.3271
2629.5	3.9572
2630	5.49791
2630.5	9.03703
2631	13.5662
2631.5	17.2639
2632	19.2381
2632.5	19.7331
2633	19.768
2633.5	19.6517
2634	18.9606
2634.5	17.4316
2635	15.269
2635.5	13.2734
2636	12.0188
2636.5	11.9093
2637	12.8555
2637.5	14.672
2638	16.6343
2638.5	17.9128
2639	18.1708
2639.5	18.0351
2640	18.154
2640.5	18.6462
2641	18.8156
2641.5	18.0892
2642	16.6212
2642.5	15.1448
2643	14.1435
2643.5	13.6518
2644	13.5019
2644.5	13.7514
2645	14.4732
2645.5	15.5059
2646	16.3079
2646.5	16.391
2647	15.6513
2647.5	14.6718
2648	14.1449
2648.5	14.4911
2649	15.4104
2649.5	16.1943
2650	16.1436
2650.5	15.3759
2651	14.3886
2651.5	13.8506
2652	13.9848
2652.5	14.7527
2653	15.9169
2653.5	17.2522
2654	18.4841
2654.5	19.3007
2655	19.6316
2655.5	19.7129
2656	19.8081
2656.5	19.7504
2657	18.9905
2657.5	17.4413
2658	15.7676
2658.5	15.088
2659	15.6081
2659.5	16.5401
2660	16.507
2660.5	15.2024
2661	13.8081
2661.5	13.6432
2662	14.9152
2662.5	16.3037
2663	16.4855
2663.5	15.3991
2664	14.4167
2664.5	14.4454
2665	15.4496
2665.5	16.3263
2666	16.6222
2666.5	16.7584
2667	17.2659
2667.5	18.0837
2668	18.6125
2668.5	18.7164
2669	18.8415
2669.5	19.349
2670	19.917
2670.5	19.6103
2671	18.1502
2671.5	16.017
2672	14.1407
2672.5	13.0016
2673	12.7217
2673.5	13.0979
2674	13.9121
2674.5	14.9495
2675	15.8587
2675.5	16.4712
2676	16.8997
2676.5	17.368
2677	17.7502
2677.5	17.5749
2678	16.6576
2678.5	15.2953
2679	14.336
2679.5	14.1508
2680	14.6695
2680.5	15.3903
2681	16.1775
2681.5	17.1108
2682	17.9876
2682.5	18.2237
2683	17.4174
2683.5	16.0575
2684	15.2925
2684.5	15.5375
2685	16.1322
2685.5	15.8363
2686	14.6697
2686.5	13.9417
2687	15.0477
2687.5	17.5048
2688	19.6677
2688.5	20.0236
2689	19.0574
2689.5	18.2554
2690	18.4088
2690.5	19.1485
2691	19.5875
2691.5	19.6985
2692	20.0137
2692.5	20.801
2693	21.6062
2693.5	21.6254
2694	20.6838
2694.5	19.1012
2695	17.3913
2695.5	16.0085
2696	15.2167
2696.5	14.9189
2697	14.7341
2697.5	14.4251
2698	14.2138
2698.5	14.5059
2699	15.3034
2699.5	15.8159
2700	15.4406
2700.5	14.3637
2701	13.7634
2701.5	14.4505
2702	15.9801
2702.5	17.1341
2703	16.7826
2703.5	15.1336
2704	13.1792
2704.5	11.9811
2705	11.7472
2705.5	12.2622
2706	13.1243
2706.5	14.2143
2707	15.6372
2707.5	17.181
2708	18.2284
2708.5	18.0175
2709	16.8183
2709.5	15.4095
2710	14.7683
2710.5	14.9191
2711	15.1978
2711.5	14.9106
2712	14.1619
2712.5	13.5431
2713	13.6579
2713.5	14.4742
2714	15.6628
2714.5	16.7501
2715	17.4735
2715.5	17.6759
2716	17.5497
2716.5	17.2479
2717	16.8699
2717.5	16.5881
2718	16.7804
2718.5	17.5757
2719	18.8451
2719.5	19.8944
2720	20.0882
2720.5	19.3603
2721	18.2758
2721.5	17.4933
2722	17.0573
2722.5	16.3622
2723	14.9628
2723.5	13.2185
2724	12.24
2724.5	12.6414
2725	14.2629
2725.5	15.7455
2726	16.2888
2726.5	16.0574
2727	15.5752
2727.5	15.1627
2728	14.7678
2728.5	14.2959
2729	14.0218
2729.5	14.4298
2730	15.7559
2730.5	17.5381
2731	18.8556
2731.5	19.2684
2732	19.1033
2732.5	19.1505
2733	19.6698
2733.5	20.0499
2734	19.6255
2734.5	18.4981
2735	17.7073
2735.5	17.904
2736	18.5616
2736.5	18.5328
2737	17.2312
2737.5	15.6533
2738	15.1217
2738.5	16.0112
2739	17.5015
2739.5	18.3297
2740	18.1913
2740.5	17.5245
2741	16.8377
2741.5	16.3715
2742	16.2589
2742.5	16.6937
2743	17.6289
2743.5	18.4825
2744	18.3469
2744.5	17.1065
2745	15.5259
2745.5	14.5994
2746	14.6955
2746.5	15.087
2747	14.9236
2747.5	14.0765
2748	13.1458
2748.5	12.8871
2749	13.2991
2749.5	13.8451
2750	14.0674
2750.5	14.0284
2751	14.2798
2751.5	15.1822
2752	16.5652
2752.5	17.8489
2753	18.3605
2753.5	17.919
2754	16.9242
2754.5	16.1243
2755	16.2786
2755.5	17.6622
2756	19.612
2756.5	21.1399
2757	21.5579
2757.5	20.867
2758	19.6441
2758.5	18.3269
2759	16.9882
2759.5	15.722
2760	14.9679
2760.5	15.1083
2761	15.9306
2761.5	16.8504
2762	17.5626
2762.5	18.4498
2763	19.8572
2763.5	21.196
2764	21.2482
2764.5	19.2613
2765	16.0253
2765.5	13.3049
2766	12.1463
2766.5	12.5145
2767	13.7817
2767.5	15.3702
2768	16.8295
2768.5	17.5474
2769	17.0222
2769.5	15.5382
2770	14.3666
2770.5	14.3954
2771	15.3881
2771.5	16.3383
2772	16.533
2772.5	16.4196
2773	16.7105
2773.5	17.5684
2774	18.5458
2774.5	19.101
2775	19.0992
2775.5	18.4638
2776	17.0249
2776.5	14.8264
2777	12.621
2777.5	11.4112
2778	11.5581
2778.5	12.5679
2779	13.6016
2779.5	14.3764
2780	15.3336
2780.5	16.7756
2781	18.3009
2781.5	18.9256
2782	18.1206
2782.5	16.5847
2783	15.6073
2783.5	16.079
2784	17.693
2784.5	18.9973
2785	18.9408
2785.5	17.6896
2786	16.3801
2786.5	16.176
2787	17.0516
2787.5	18.047
2788	18.3051
2788.5	17.6833
2789	16.7349
2789.5	16.1461
2790	16.2036
2790.5	16.8815
2791	17.9628
2791.5	19.0219
2792	19.4847
2792.5	19.003
2793	17.7149
2793.5	16.2177
2794	15.2375
2794.5	15.0702
2795	15.56
2795.5	16.4793
2796	17.7427
2796.5	19.3343
2797	20.9434
2797.5	21.9175
2798	21.6031
2798.5	19.7955
2799	16.9912
2799.5	14.2502
2800	12.4082
2800.5	11.7795
2801	12.2976
2801.5	13.8058
2802	16.0441
2802.5	18.4485
2803	20.2154
2803.5	20.7174
2804	20.034
2804.5	19.0671
2805	18.5927
2805.5	18.5101
2806	18.115
2806.5	16.9316
2807	15.4378
2807.5	14.6292
2808	14.8879
2808.5	15.7252
2809	16.3022
2809.5	16.231
2810	15.9619
2810.5	16.041
2811	16.6823
2811.5	17.7526
2812	18.9438
2812.5	19.7927
2813	19.7474
2813.5	18.5111
2814	16.5191
2814.5	15.0219
2815	15.1018
2815.5	16.4032
2816	17.4725
2816.5	16.9756
2817	14.9241
2817.5	12.8934
2818	12.2887
2818.5	13.0467
2819	13.9356
2819.5	13.7718
2820	12.5812
2820.5	11.5838
2821	11.6827
2821.5	12.7615
2822	13.9204
2822.5	14.3321
2823	14.1345
2823.5	14.1095
2824	14.8359
2824.5	16.1992
2825	17.4883
2825.5	18.0552
2826	18.0396
2826.5	18.0816
2827	18.636
2827.5	19.4018
2828	19.3685
2828.5	17.9602
2829	15.7879
2829.5	14.245
2830	14.3928
2830.5	16.0064
2831	17.6075
2831.5	18.0058
2832	17.1419
2832.5	15.7256
2833	14.408
2833.5	13.366
2834	12.6892
2834.5	12.7899
2835	14.0196
2835.5	16.1061
2836	18.1657
2836.5	19.5408
2837	20.3778
2837.5	20.9365
2838	20.8846
2838.5	19.4907
2839	16.7689
2839.5	14.3087
2840	13.7892
2840.5	15.4613
2841	17.8862
2841.5	19.2183
2842	19.0443
2842.5	18.4767
2843	18.46
2843.5	18.9222
2844	19.1474
2844.5	18.7373
2845	18.0251
2845.5	17.3006
2846	16.4647
2846.5	15.4205
2847	14.5477
2847.5	14.5211
2848	15.3416
2848.5	16.3096
2849	16.6956
2849.5	16.3642
2850	15.7105
2850.5	15.0421
2851	14.3379
2851.5	13.7048
2852	13.5977
2852.5	14.4716
2853	16.2648
2853.5	18.295
2854	20.025
2854.5	21.2774
2855	21.9635
2855.5	21.8304
2856	20.7176
2856.5	19.1941
2857	18.1674
2857.5	18.0786
2858	18.4197
2858.5	18.1558
2859	16.8222
2859.5	15.1182
2860	14.0406
2860.5	14.0865
2861	15.0919
2861.5	16.6544
2862	18.4307
2862.5	19.9397
2863	20.4152
2863.5	19.2315
2864	16.5954
2864.5	13.7663
2865	12.2511
2865.5	12.5185
2866	13.988
2866.5	15.7384
2867	17.194
2867.5	18.1932
2868	18.6554
2868.5	18.5011
2869	17.9553
2869.5	17.5844
2870	17.7654
2870.5	18.0582
2871	17.4251
2871.5	15.4918
2872	13.1166
2872.5	11.7945
2873	12.4166
2873.5	14.4941
2874	16.5107
2874.5	17.4082
2875	17.1397
2875.5	16.3417
2876	15.6871
2876.5	15.4282
2877	15.2619
2877.5	14.6081
2878	12.9705
2878.5	10.2524
2879	6.92881
2879.5	3.95296
2880	2.32221
2880.5	2.46017
2881	4.14586
2881.5	6.65243
2882	9.14018
2882.5	11.1361
2883	12.8547
2883.5	14.8487
2884	17.2136
2884.5	19.2691
2885	19.9871
2885.5	18.9031
2886	16.7652
2886.5	15.0578
2887	14.5288
2887.5	14.7744
2888	14.7927
2888.5	14.0615
2889	13.1838
2889.5	13.271
2890	14.5754
2890.5	16.1898
2891	16.8441
2891.5	16.0844
2892	14.7346
2892.5	14.0852
2893	14.4733
2893.5	15.2571
2894	15.687
2894.5	15.6402
2895	15.5102
2895.5	15.5285
2896	15.5169
2896.5	15.4279
2897	15.5847
2897.5	16.2275
2898	16.9472
2898.5	16.8254
2899	15.5942
2899.5	14.1017
2900	13.4549
2900.5	13.9261
2901	14.7466
2901.5	15.0026
2902	14.6983
2902.5	14.6004
2903	15.0349
2903.5	15.4718
2904	15.1926
2904.5	14.2836
2905	13.8429
2905.5	14.7869
2906	16.6984
2906.5	18.2101
2907	18.2625
2907.5	17.0722
2908	15.9248
2908.5	15.9837
2909	17.069
2909.5	18.0881
2910	18.0836
2910.5	17.0251
2911	15.8143
2911.5	15.5947
2912	16.7087
2912.5	18.2295
2913	18.7066
2913.5	17.2917
2914	14.588
2914.5	12.4212
2915	12.5573
2915.5	14.953
2916	17.934
2916.5	19.7816
2917	19.9953
2917.5	19.3249
2918	18.7117
2918.5	18.3198
2919	17.7188
2919.5	16.9207
2920	16.5897
2920.5	17.2899
2921	18.6473
2921.5	19.432
2922	18.6371
2922.5	16.7991
2923	15.2919
2923.5	14.9724
2924	15.3977
2924.5	15.3947
2925	14.376
2925.5	13.0519
2926	12.4641
2926.5	12.5961
2927	12.4749
2927.5	11.423
2928	10.0794
2928.5	9.9821
2929	11.9389
2929.5	14.7939
2930	16.7173
2930.5	16.8632
2931	15.9718
2931.5	15.4259
2932	15.7917
2932.5	16.263
2933	15.7321
2933.5	14.1418
2934	12.5461
2934.5	12.1702
2935	13.3825
2935.5	15.4565
2936	17.1877
2936.5	17.8598
2937	17.4446
2937.5	16.2119
2938	14.541
2938.5	13.0708
2939	12.7132
2939.5	14.0666
2940	16.3851
2940.5	17.976
2941	17.8236
2941.5	16.7022
2942	16.4692
2942.5	17.9971
2943	19.9004
2943.5	19.7592
2944	17.0705
2944.5	13.6232
2945	11.5086
2945.5	11.1924
2946	11.6915
2946.5	12.2593
2947	13.2098
2947.5	14.6422
2948	15.4138
2948.5	14.3519
2949	12.0676
2949.5	10.8557
2950	12.4064
2950.5	15.8331
2951	18.4481
2951.5	18.9057
2952	18.096
2952.5	17.3913
2953	16.8954
2953.5	15.7313
2954	13.7113
2954.5	12.0749
2955	12.0466
2955.5	13.316
2956	14.6686
2956.5	15.408
2957	15.8095
2957.5	16.3043
2958	16.7329
2958.5	16.7052
2959	16.4475
2959.5	16.428
2960	16.525
2960.5	16.0884
2961	14.9226
2961.5	13.8587
2962	14.0028
2962.5	15.3766
2963	16.7932
2963.5	17.2803
2964	16.8246
2964.5	15.9587
2965	15.0219
2965.5	14.1373
2966	13.7347
2966.5	14.495
2967	16.3623
2967.5	18.2831
2968	19.066
2968.5	18.46
2969	17.2181
2969.5	16.1456
2970	15.3114
2970.5	14.3237
2971	13.2268
2971.5	12.6022
2972	12.8982
2972.5	13.9039
2973	14.9641
2973.5	15.6671
2974	16.2517
2974.5	17.2772
2975	18.7966
2975.5	20.1328
2976	20.4397
2976.5	19.4699
2977	17.7833
2977.5	16.2131
2978	15.2211
2978.5	14.865
2979	15.205
2979.5	16.3769
2980	18.0942
2980.5	19.4772
2981	19.6635
2981.5	18.5654
2982	16.8718
2982.5	15.3488
2983	14.3583
2983.5	14.1015
2984	14.8095
2984.5	16.3215
2985	17.8355
2985.5	18.4999
2986	18.2542
2986.5	17.731
2987	17.1825
2987.5	16.0259
2988	14.0273
2988.5	12.3044
2989	12.5568
2989.5	15.1893
2990	18.5088
2990.5	20.0835
2991	18.9085
2991.5	16.2655
2992	14.2187
2992.5	13.7188
2993	14.3403
2993.5	15.1257
2994	15.5031
2994.5	15.4861
2995	15.2463
2995.5	14.7422
2996	13.97
2996.5	13.448
2997	13.9321
2997.5	15.4696
2998	16.9227
2998.5	16.8755
2999	15.2203
2999.5	13.6041
3000	13.9869
3000.5	16.5396
3001	19.6347
3001.5	21.6634
3002	22.1096
3002.5	21.2094
3003	19.2332
3003.5	16.5514
3004	14.0776
3004.5	12.9381
3005	13.3083
3005.5	14.1498
3006	14.534
3006.5	14.6081
3007	15.141
3007.5	16.3254
3008	17.4383
3008.5	17.7686
3009	17.5761
3009.5	17.8503
3010	19.0387
3010.5	20.4991
3011	21.1257
3011.5	20.3396
3012	18.5942
3012.5	17.0788
3013	16.8568
3013.5	17.9968
3014	19.3309
3014.5	19.2899
3015	17.3482
3015.5	14.4551
3016	12.2215
3016.5	11.6061
3017	12.3118
3017.5	13.3405
3018	14.0122
3018.5	14.4075
3019	14.9023
3019.5	15.4112
3020	15.3607
3020.5	14.3843
3021	12.9092
3021.5	11.9802
3022	12.4304
3022.5	14.1948
3023	16.4385
3023.5	18.3263
3024	19.5931
3024.5	20.3623
3025	20.5026
3025.5	19.5859
3026	17.468
3026.5	14.8104
3027	12.8828
3027.5	12.6985
3028	14.1924
3028.5	16.1683
3029	17.1312
3029.5	16.5978
3030	15.4672
3030.5	15.1357
3031	16.203
3031.5	17.9177
3032	18.8956
3032.5	18.3569
3033	16.6308
3033.5	14.5199
3034	12.4839
3034.5	10.7112
3035	9.78721
3035.5	10.6505
3036	13.572
3036.5	17.3577
3037	19.9447
3037.5	20.0939
3038	18.5612
3038.5	17.4374
3039	18.1186
3039.5	19.8368
3040	20.4054
3040.5	18.7405
3041	15.995
3041.5	14.3404
3042	14.744
3042.5	16.1681
3043	16.9737
3043.5	16.7731
3044	16.5557
3044.5	17.1178
3045	17.9098
3045.5	17.8596
3046	16.9172
3046.5	16.0272
3047	15.9015
3047.5	16.3345
3048	16.8071
3048.5	17.3104
3049	18.2113
3049.5	19.5003
3050	20.6121
3050.5	21.0551
3051	20.9111
3051.5	20.4478
3052	19.6584
3052.5	18.5059
3053	17.4013
3053.5	17.098
3054	18.0025
3054.5	19.6911
3055	21.173
3055.5	21.6084
3056	20.8533
3056.5	19.5291
3057	18.6114
3057.5	18.6923
3058	19.5475
3058.5	20.3437
3059	20.4258
3059.5	19.9193
3060	19.4756
3060.5	19.4496
3061	19.5117
3061.5	19.1662
3062	18.4788
3062.5	18.0242
3063	18.0407
3063.5	18.0728
3064	17.6007
3064.5	16.7493
3065	16.1255
3065.5	16.0171
3066	16.06
3066.5	15.8322
3067	15.5444
3067.5	15.8321
3068	16.891
3068.5	18.1335
3069	18.8714
3069.5	19.0686
3070	19.0706
3070.5	18.9975
3071	18.7593
3071.5	18.5314
3072	18.7822
3072.5	19.6822
3073	20.7853
3073.5	21.5372
3074	21.8841
3074.5	22.0324
3075	21.7179
3075.5	20.3413
3076	18.0199
3076.5	15.95
3077	15.3898
3077.5	16.4585
3078	18.235
3078.5	19.8881
3079	21.2608
3079.5	22.2738
3080	22.2969
3080.5	20.6977
3081	17.987
3081.5	15.8902
3082	15.831
3082.5	17.4712
3083	19.2768
3083.5	20.0969
3084	19.9836
3084.5	19.5551
3085	19.0008
3085.5	18.0313
3086	16.6695
3086.5	15.6752
3087	15.9248
3087.5	17.4311
3088	19.173
3088.5	19.9943
3089	19.7313
3089.5	19.3624
3090	19.9689
3090.5	21.6179
3091	23.1512
3091.5	23.187
3092	21.4717
3092.5	19.1991
3093	17.8204
3093.5	17.5196
3094	17.098
3094.5	15.5313
3095	13.4383
3095.5	12.6414
3096	14.2236
3096.5	17.2302
3097	19.7978
3097.5	20.9864
3098	21.2658
3098.5	21.5152
3099	22.0075
3099.5	22.4681
3100	22.7359
3100.5	22.9684
3101	23.2224
3101.5	23.1742
3102	22.4936
3102.5	21.4284
3103	20.8075
3103.5	21.3444
3104	22.8999
3104.5	24.4958
3105	25.0869
3105.5	24.2344
3106	22.2724
3106.5	19.995
3107	18.1654
3107.5	17.1963
3108	17.1193
3108.5	17.8187
3109	19.2596
3109.5	21.36
3110	23.5662
3110.5	24.7714
3111	24.0762
3111.5	21.8365
3112	19.7428
3112.5	19.3695
3113	20.6988
3113.5	22.3284
3114	23.003
3114.5	22.757
3115	22.5236
3115.5	22.8789
3116	23.4135
3116.5	23.2991
3117	22.2507
3117.5	20.8178
3118	19.8064
3118.5	19.5491
3119	19.7924
3119.5	20.215
3120	20.8585
3120.5	21.8925
3121	23.023
3121.5	23.5086
3122	22.957
3122.5	21.9128
3123	21.4561
3123.5	22.2144
3124	23.8636
3124.5	25.5047
3125	26.3356
3125.5	26.0248
3126	24.7776
3126.5	23.2454
3127	22.1964
3127.5	22.0161
3128	22.5191
3128.5	23.3188
3129	24.2462
3129.5	25.2368
3130	25.9873
3130.5	26.13
3131	25.7918
3131.5	25.539
3132	25.6503
3132.5	25.7053
3133	25.1055
3133.5	23.8505
3134	22.5953
3134.5	22.009
3135	22.2132
3135.5	22.7599
3136	23.0362
3136.5	22.8123
3137	22.5512
3137.5	23.0097
3138	24.2611
3138.5	25.2723
3139	24.8982
3139.5	23.3243
3140	22.0263
3140.5	22.0904
3141	23.0177
3141.5	23.7063
3142	24.0168
3142.5	24.6675
3143	25.8609
3143.5	26.7885
3144	26.6608
3144.5	25.6844
3145	24.7282
3145.5	24.304
3146	24.1259
3146.5	23.5255
3147	22.1699
3147.5	20.5575
3148	19.8749
3148.5	21.0007
3149	23.386
3149.5	25.2685
3150	25.4541
3150.5	24.6939
3151	24.7733
3151.5	26.3311
3152	28.2343
3152.5	29.2217
3153	29.4245
3153.5	29.6356
3154	29.8345
3154.5	29.2297
3155	27.5887
3155.5	25.8014
3156	24.9333
3156.5	25.1408
3157	25.7317
3157.5	26.0095
3158	25.8366
3158.5	25.5572
3159	25.5911
3159.5	26.0287
3160	26.5007
3160.5	26.5287
3161	26.0765
3161.5	25.6023
3162	25.469
3162.5	25.5268
3163	25.491
3163.5	25.5101
3164	25.9712
3164.5	26.8049
3165	27.4331
3165.5	27.5556
3166	27.6168
3166.5	28.1968
3167	29.2232
3167.5	30.1977
3168	30.9971
3168.5	31.9788
3169	33.2071
3169.5	34.002
3170	33.6303
3170.5	32.3165
3171	31.1611
3171.5	30.9073
3172	31.0525
3172.5	30.475
3173	28.8587
3173.5	27.1646
3174	26.6015
3174.5	27.4301
3175	28.9786
3175.5	30.5294
3176	31.7585
3176.5	32.4611
3177	32.4806
3177.5	32.1206
3178	32.0956
3178.5	32.6387
3179	33.0199
3179.5	32.4993
3180	31.5063
3180.5	31.1331
3181	31.5424
3181.5	31.7113
3182	31.0611
3182.5	30.5549
3183	31.4515
3183.5	33.36
3184	34.4809
3184.5	33.7956
3185	32.2513
3185.5	31.6279
3186	32.7328
3186.5	34.9535
3187	37.1252
3187.5	38.4179
3188	38.6056
3188.5	37.9439
3189	36.8743
3189.5	35.6809
3190	34.441
3190.5	33.3748
3191	32.9936
3191.5	33.5395
3192	34.3408
3192.5	34.2133
3193	32.8137
3193.5	31.3803
3194	31.7078
3194.5	34.2028
3195	37.0862
3195.5	37.7706
3196	35.2275
3196.5	31.0535
3197	28.1158
3197.5	28.0528
3198	30.0964
3198.5	32.256
3199	33.3327
3199.5	33.5458
3200	33.5442
3200.5	33.5189
3201	33.4695
3201.5	33.6967
3202	34.4224
3202.5	35.1645
3203	35.1319
3203.5	34.2704
3204	33.3747
3204.5	33.0146
3205	32.865
3205.5	32.4215
3206	31.9466
3206.5	32.1875
3207	33.3275
3207.5	34.6979
3208	35.5077
3208.5	35.481
3209	34.8179
3209.5	33.9832
3210	33.6062
3210.5	34.1064
3211	35.1801
3211.5	36.0564
3212	36.4892
3212.5	37.0623
3213	38.1491
3213.5	39.0167
3214	38.6192
3214.5	37.0964
3215	35.759
3215.5	35.533
3216	36.1306
3216.5	36.9707
3217	38.0767
3217.5	39.4095
3218	39.9982
3218.5	38.7705
3219	36.2018
3219.5	34.2361
3220	34.2616
3220.5	35.7559
3221	37.2382
3221.5	37.9599
3222	38.1477
3222.5	38.0755
3223	37.7016
3223.5	37.1558
3224	36.8656
3224.5	36.9839
3225	37.1573
3225.5	37.0847
3226	36.9328
3226.5	36.9898
3227	37.2897
3227.5	37.8351
3228	38.7531
3228.5	39.7793
3229	39.971
3229.5	38.6719
3230	36.7222
3230.5	35.9471
3231	37.1216
3231.5	38.989
3232	39.7706
3232.5	39.2984
3233	39.0705
3233.5	40.2826
3234	42.3446
3234.5	43.5055
3235	42.6259
3235.5	40.1782
3236	37.7298
3236.5	36.6089
3237	36.9279
3237.5	37.7473
3238	38.1971
3238.5	38.3843
3239	39.0435
3239.5	40.3723
3240	41.5865
3240.5	41.791
3241	40.986
3241.5	39.9409
3242	39.2896
3242.5	39.0721
3243	39.0017
3243.5	38.7723
3244	38.1352
3244.5	37.0957
3245	36.1326
3245.5	35.8699
3246	36.3874
3246.5	37.1705
3247	37.858
3247.5	38.599
3248	39.3757
3248.5	39.4758
3249	38.3157
3249.5	36.6251
3250	36.0176
3250.5	37.1172
3251	38.6775
3251.5	39.0072
3252	37.9471
3252.5	36.9812
3253	37.5405
3253.5	39.6379
3254	42.0451
3254.5	43.252
3255	42.3028
3255.5	39.4277
3256	36.2795
3256.5	35.0316
3257	36.5149
3257.5	39.2714
3258	41.0913
3258.5	41.4597
3259	41.8569
3259.5	43.4267
3260	45.0989
3260.5	44.7875
3261	42.1589
3261.5	39.3464
3262	38.7637
3262.5	40.7999
3263	43.8171
3263.5	45.7718
3264	45.5535
3264.5	43.4844
3265	41.2002
3265.5	40.5546
3266	41.7956
3266.5	43.0282
3267	42.3052
3267.5	40.1231
3268	38.8603
3268.5	39.6564
3269	41.0143
3269.5	41.056
3270	40.0689
3270.5	39.7366
3271	40.5131
3271.5	41.1195
3272	40.5763
3272.5	39.4888
3273	38.964
3273.5	39.232
3274	39.9103
3274.5	40.8957
3275	42.2432
3275.5	43.5511
3276	44.2068
3276.5	44.1656
3277	43.9637
3277.5	43.9771
3278	44.0884
3278.5	44.0842
3279	43.9661
3279.5	43.733
3280	43.1307
3280.5	41.8493
3281	39.9989
3281.5	38.402
3282	38.3136
3282.5	40.489
3283	44.2414
3283.5	47.6277
3284	48.9525
3284.5	48.1802
3285	46.6655
3285.5	45.6917
3286	45.5756
3286.5	45.9052
3287	46.118
3287.5	45.8096
3288	44.9323
3288.5	43.8784
3289	43.1171
3289.5	42.6748
3290	42.2801
3290.5	42.0297
3291	42.4349
3291.5	43.5986
3292	44.7681
3292.5	45.0985
3293	44.6318
3293.5	44.1288
3294	44.05
3294.5	44.0717
3295	43.5902
3295.5	42.4082
3296	40.9557
3296.5	40.1181
3297	40.7616
3297.5	42.9541
3298	45.5344
3298.5	46.9111
3299	46.6058
3299.5	45.6892
3300	45.3671
3300.5	45.5199
3301	45.2393
3301.5	44.6264
3302	45.0384
3302.5	47.2111
3303	49.8113
3303.5	50.476
3304	48.131
3304.5	43.9185
3305	40.0569
3305.5	38.2187
3306	38.7889
3306.5	40.96
3307	43.2617
3307.5	44.4439
3308	44.2876
3308.5	43.5507
3309	43.0689
3309.5	43.0601
3310	43.2902
3310.5	43.5554
3311	43.8074
3311.5	44.0716
3312	44.4705
3312.5	45.1386
3313	45.9555
3313.5	46.6061
3314	47.0654
3314.5	47.6669
3315	48.3686
3315.5	48.3964
3316	47.1317
3316.5	45.1015
3317	43.5368
3317.5	43.0451
3318	43.2512
3318.5	43.6916
3319	44.3892
3319.5	45.3296
3320	45.9891
3320.5	45.8853
3321	45.3106
3321.5	45.0535
3322	45.5112
3322.5	46.4743
3323	47.7104
3323.5	49.2522
3324	50.8881
3324.5	51.7605
3325	51.0079
3325.5	48.901
3326	46.9744
3326.5	46.5578
3327	47.494
3327.5	48.6325
3328	49.3294
3328.5	49.879
3329	50.4246
3329.5	50.2488
3330	48.746
3330.5	46.6095
3331	45.2453
3331.5	45.1727
3332	45.8246
3332.5	46.9146
3333	48.956
3333.5	51.9133
3334	54.2327
3334.5	54.2613
3335	52.3803
3335.5	50.7168
3336	50.5106
3336.5	50.5762
3337	49.165
3337.5	46.5887
3338	45.2099
3338.5	46.7158
3339	49.9607
3339.5	52.0295
3340	51.3718
3340.5	49.4
3341	48.7259
3341.5	50.182
3342	52.1457
3342.5	52.7211
3343	51.8202
3343.5	50.669
3344	49.9105
3344.5	49.1682
3345	48.4351
3345.5	48.7702
3346	50.8304
3346.5	53.4337
3347	54.4902
3347.5	53.3295
3348	51.4048
3348.5	50.4903
3349	50.8047
3349.5	51.3601
3350	51.6479
3350.5	52.128
3351	53.0771
3351.5	53.879
3352	54.0203
3352.5	54.209
3353	55.5886
3353.5	57.8395
3354	58.9369
3354.5	57.4179
3355	54.1617
3355.5	51.5061
3356	50.8797
3356.5	51.7779
3357	52.8755
3357.5	53.4745
3358	53.7107
3358.5	54.005
3359	54.8754
3359.5	56.8997
3360	59.9798
3360.5	62.4838
3361	62.0056
3361.5	57.8344
3362	52.6245
3362.5	50.0529
3363	51.0982
3363.5	53.2062
3364	53.4178
3364.5	51.6287
3365	50.0964
3365.5	50.2967
3366	51.4375
3366.5	52.1354
3367	52.3271
3367.5	52.7588
3368	53.3887
3368.5	53.4322
3369	52.8267
3369.5	52.5351
3370	53.1
3370.5	53.9383
3371	54.4073
3371.5	54.9073
3372	56.2959
3372.5	58.4839
3373	60.2077
3373.5	60.2513
3374	58.6063
3374.5	56.4408
3375	55.1676
3375.5	55.4635
3376	56.8123
3376.5	57.9411
3377	58.0448
3377.5	57.5592
3378	57.5835
3378.5	58.4063
3379	58.9335
3379.5	57.9654
3380	55.8779
3380.5	54.4408
3381	54.74
3381.5	55.8039
3382	55.8647
3382.5	54.7313
3383	54.1033
3383.5	55.1895
3384	57.1571
3384.5	58.3633
3385	58.4919
3385.5	58.6582
3386	59.5662
3386.5	60.4346
3387	60.0962
3387.5	58.6652
3388	57.6263
3388.5	58.3587
3389	60.7931
3389.5	63.4197
3390	64.6358
3390.5	63.8751
3391	61.8373
3391.5	59.8339
3392	58.9352
3392.5	59.4732
3393	60.8988
3393.5	61.9775
3394	61.6022
3394.5	59.9681
3395	58.8279
3395.5	59.805
3396	62.3573
3396.5	64.1008
3397	63.3264
3397.5	60.9532
3398	59.5894
3398.5	60.7009
3399	63.0552
3399.5	64.1275
3400	62.8345
3400.5	60.4408
3401	58.8562
3401.5	58.423
3402	58.2001
3402.5	57.8264
3403	58.1765
3403.5	59.9132
3404	62.0724
3404.5	62.8021
3405	61.4193
3405.5	59.2151
3406	58.0947
3406.5	58.7069
3407	59.9668
3407.5	60.4869
3408	60.0061
3408.5	59.4343
3409	59.6534
3409.5	60.4903
3410	61.0409
3410.5	60.861
3411	60.5042
3411.5	60.8286
3412	62.0319
3412.5	63.4347
3413	64.1739
3413.5	63.9233
3414	63.0973
3414.5	62.3197
3415	61.628
3415.5	60.5355
3416	59.175
3416.5	58.8522
3417	60.6264
3417.5	63.476
3418	65.0758
3418.5	64.6572
3419	63.6836
3419.5	63.5483
3420	63.7109
3420.5	62.9382
3421	61.5498
3421.5	61.1714
3422	62.3751
3422.5	63.6206
3423	63.0618
3423.5	60.8131
3424	58.8492
3424.5	59.1016
3425	61.6881
3425.5	64.7822
3426	66.1721
3426.5	65.1306
3427	62.8636
3427.5	61.198
3428	60.9238
3428.5	61.6391
3429	62.7729
3429.5	64.1051
3430	65.3722
3430.5	65.8894
3431	65.0783
3431.5	63.4354
3432	62.5689
3432.5	63.7829
3433	66.3453
3433.5	68.1205
3434	67.706
3434.5	65.6569
3435	63.4402
3435.5	61.7915
3436	60.6981
3436.5	60.515
3437	61.9905
3437.5	64.8123
3438	67.0523
3438.5	66.7444
3439	63.7238
3439.5	59.9136
3440	57.7806
3440.5	58.3046
3441	60.2353
3441.5	61.4765
3442	61.3546
3442.5	61.077
3443	61.4385
3443.5	61.354
3444	59.4415
3444.5	56.5691
3445	55.4693
3445.5	57.5179
3446	60.9551
3446.5	62.9453
3447	62.896
3447.5	62.3784
3448	62.691
3448.5	63.5474
3449	64.0104
3449.5	63.8471
3450	63.5778
3450.5	63.5763
3451	63.5495
3451.5	63.0184
3452	62.1064
3452.5	61.6051
3453	62.1401
3453.5	63.3191
3454	64.0151
3454.5	63.6517
3455	62.9085
3455.5	62.7802
3456	63.1759
3456.5	63.2486
3457	62.8282
3457.5	62.7803
3458	63.6772
3458.5	64.7826
3459	65.026
3459.5	64.6313
3460	64.7595
3460.5	65.4041
3461	65.0292
3461.5	62.6942
3462	59.7752
3462.5	58.6565
3463	59.9168
3463.5	61.6856
3464	62.0658
3464.5	61.3685
3465	61.1352
3465.5	61.8757
3466	62.3704
3466.5	61.1593
3467	58.3576
3467.5	55.8994
3468	55.9236
3468.5	58.6599
3469	62.2595
3469.5	64.3251
3470	63.7373
3470.5	61.1447
3471	58.1207
3471.5	56.177
3472	56.1298
3472.5	57.5988
3473	59.2754
3473.5	60.0334
3474	59.9985
3474.5	60.1507
3475	60.8885
3475.5	61.5136
3476	61.2843
3476.5	60.4068
3477	59.6147
3477.5	59.4705
3478	60.1506
3478.5	61.3378
3479	62.1199
3479.5	61.5746
3480	59.9695
3480.5	58.5275
3481	57.8712
3481.5	57.4254
3482	56.755
3482.5	56.7674
3483	58.6441
3483.5	61.7518
3484	63.7922
3484.5	63.4626
3485	61.731
3485.5	60.4055
3486	60.0562
3486.5	59.8759
3487	59.1836
3487.5	58.3536
3488	58.0751
3488.5	58.4524
3489	59.0679
3489.5	59.4825
3490	59.4945
3490.5	59.2126
3491	59.0498
3491.5	59.2943
3492	59.6205
3492.5	59.3827
3493	58.4535
3493.5	57.3735
3494	56.5398
3494.5	55.7449
3495	54.8211
3495.5	54.1213
3496	53.9397
3496.5	54.0335
3497	54.0652
3497.5	54.0341
3498	53.896
3498.5	53.3384
3499	52.4655
3499.5	52.0424
3500	52.5493
3500.5	53.462
3501	53.9797
3501.5	54.0381
3502	54.0356
3502.5	53.8894
3503	53.1874
3503.5	52.005
3504	51.0926
3504.5	51.2667
3505	52.7087
3505.5	54.5726
3506	55.5835
3506.5	55.2164
3507	54.2223
3507.5	53.637
3508	53.4685
3508.5	52.9405
3509	51.8796
3509.5	50.8136
3510	49.9478
3510.5	49.1617
3511	48.8111
3511.5	49.4971
3512	50.9428
3512.5	52.0823
3513	52.625
3513.5	53.2198
3514	54.1137
3514.5	54.5296
3515	53.774
3515.5	52.4397
3516	51.9019
3516.5	52.8415
3517	54.5734
3517.5	55.4922
3518	54.3411
3518.5	51.3517
3519	48.1538
3519.5	46.1396
3520	45.6179
3520.5	46.3462
3521	48.0447
3521.5	50.063
3522	51.2997
3522.5	51.3087
3523	50.7198
3523.5	50.2037
3524	49.6476
3524.5	48.77
3525	47.9073
3525.5	47.5697
3526	47.8148
3526.5	48.6148
3527	49.95
3527.5	51.1034
3528	50.7917
3528.5	48.8225
3529	46.7704
3529.5	45.8619
3530	45.6487
3530.5	45.2712
3531	45.0092
3531.5	45.452
3532	45.9699
3532.5	45.7937
3533	45.6107
3533.5	46.5746
3534	48.1521
3534.5	48.4593
3535	47.0998
3535.5	45.7726
3536	45.7154
3536.5	46.0995
3537	45.5698
3537.5	44.646
3538	45.3964
3538.5	48.3431
3539	51.2778
3539.5	51.5032
3540	48.7776
3540.5	45.2897
3541	42.9596
3541.5	41.9516
3542	42.1776
3542.5	43.8571
3543	46.0102
3543.5	46.2728
3544	43.9964
3544.5	41.9665
3545	42.6454
3545.5	44.8347
3546	45.5454
3546.5	44.2302
3547	43.0253
3547.5	43.0996
3548	43.6208
3548.5	43.7055
3549	43.386
3549.5	42.8551
3550	42.1991
3550.5	41.6792
3551	41.1468
3551.5	39.8663
3552	37.9452
3552.5	37.099
3553	38.3467
3553.5	40.0852
3554	40.2933
3554.5	39.2707
3555	38.6377
3555.5	38.3432
3556	36.9921
3556.5	35.0462
3557	34.734
3557.5	36.7014
3558	38.7913
3558.5	39.0797
3559	38.6113
3559.5	39.0866
3560	40.0989
3560.5	40.1319
3561	39.3419
3561.5	39.4343
3562	40.6414
3562.5	41.221
3563	39.9986
3563.5	37.9884
3564	37.0974
3564.5	37.9276
3565	39.6531
3565.5	41.0003
3566	40.9885
3566.5	39.746
3567	38.8438
3567.5	39.5364
3568	40.7936
3568.5	40.382
3569	37.9638
3569.5	35.9506
3570	36.3098
3570.5	37.8253
3571	37.9454
3571.5	36.0126
3572	33.8955
3572.5	33.6546
3573	34.9931
3573.5	36.0351
3574	35.6287
3574.5	34.6785
3575	35.0421
3575.5	36.9836
3576	38.7184
3576.5	38.5775
3577	36.8787
3577.5	35.5258
3578	35.9151
3578.5	37.3825
3579	38.2293
3579.5	37.5952
3580	36.3656
3580.5	36.002
3581	36.4274
3581.5	36.4155
3582	35.6456
3582.5	35.1839
3583	35.5529
3583.5	35.5299
3584	34.1204
3584.5	32.0754
3585	30.6493
3585.5	29.8772
3586	29.1653
3586.5	28.9276
3587	30.0303
3587.5	32.2037
3588	34.1305
3588.5	35.0229
3589	35.2113
3589.5	34.8933
3590	33.7295
3590.5	31.8621
3591	30.6126
3591.5	31.1323
3592	32.9237
3592.5	34.3732
3593	34.5776
3593.5	34.2426
3594	34.6052
3594.5	35.7622
3595	36.4669
3595.5	35.1716
3596	31.4929
3596.5	27.2161
3597	24.7785
3597.5	25.0863
3598	26.9459
3598.5	28.7949
3599	30.3074
3599.5	31.5005
3600	31.6063
3600.5	30.0966
3601	28.0012
3601.5	26.8125
3602	26.5593
3602.5	26.5321
3603	26.8341
3603.5	27.8939
3604	28.9069
3604.5	28.7868
3605	28.0689
3605.5	28.3549
3606	29.9462
3606.5	31.2908
3607	31.3616
3607.5	30.7572
3608	30.4533
3608.5	30.5165
3609	30.5265
3609.5	30.5453
3610	30.8154
3610.5	31.0081
3611	30.2909
3611.5	28.3951
3612	26.0767
3612.5	24.6415
3613	24.9845
3613.5	26.8249
3614	28.7256
3614.5	29.3791
3615	28.5517
3615.5	27.1874
3616	26.5578
3616.5	27.1561
3617	28.5527
3617.5	29.7832
3618	29.9486
3618.5	28.9603
3619	27.5752
3619.5	26.6225
3620	26.4609
3620.5	27.1038
3621	28.1279
3621.5	28.3813
3622	26.5463
3622.5	22.8962
3623	20.0115
3623.5	20.2216
3624	23.2294
3624.5	26.8109
3625	28.9414
3625.5	28.9174
3626	27.1685
3626.5	24.8246
3627	23.1338
3627.5	22.3402
3628	21.6203
3628.5	20.761
3629	20.4753
3629.5	20.9609
3630	21.2886
3630.5	21.0231
3631	20.9941
3631.5	21.8628
3632	23.046
3632.5	23.7703
3633	24.2954
3633.5	25.1188
3634	25.924
3634.5	26.0208
3635	25.55
3635.5	25.1807
3636	24.9576
3636.5	24.0823
3637	22.2614
3637.5	20.5321
3638	19.8745
3638.5	19.6563
3639	18.537
3639.5	17.2124
3640	17.9301
3640.5	21.0167
3641	23.5064
3641.5	22.851
3642	20.4785
3642.5	19.3666
3643	20.1645
3643.5	21.1723
3644	21.527
3644.5	21.8117
3645	21.9894
3645.5	21.1618
3646	19.6563
3646.5	18.9461
3647	19.2749
3647.5	19.2601
3648	18.4574
3648.5	18.4819
3649	20.1149
3649.5	21.5093
3650	20.4551
3650.5	17.9336
3651	16.5035
3651.5	16.9687
3652	18.1416
3652.5	19.3738
3653	21.2069
3653.5	23.318
3654	23.9921
3654.5	22.2342
3655	19.3842
3655.5	17.4043
3656	17.1569
3656.5	18.1256
3657	19.0487
3657.5	19.0985
3658	18.5201
3658.5	18.6093
3659	20.2241
3659.5	22.5188
3660	23.7168
3660.5	22.9721
3661	21.4679
3661.5	20.9139
3662	21.4308
3662.5	21.3766
3663	19.386
3663.5	16.5016
3664	15.0408
3664.5	16.1637
3665	18.6265
3665.5	19.9932
3666	18.9086
3666.5	16.0244
3667	13.8821
3667.5	14.8527
3668	18.6206
3668.5	22.0524
3669	21.962
3669.5	18.8105
3670	15.7266
3670.5	15.0628
3671	16.7488
3671.5	19.1969
3672	21.0593
3672.5	21.4409
3673	19.8023
3673.5	16.7103
3674	13.8878
3674.5	12.9433
3675	14.2651
3675.5	16.7597
3676	18.7062
3676.5	18.8527
3677	17.1337
3677.5	14.9641
3678	13.9984
3678.5	14.495
3679	15.3675
3679.5	15.667
3680	15.5495
3680.5	15.3566
3681	14.9286
3681.5	14.114
3682	13.2568
3682.5	12.681
3683	12.5582
3683.5	13.2966
3684	14.9638
3684.5	16.4823
3685	16.4673
3685.5	15.3289
3686	15.0392
3686.5	16.1164
3687	16.7575
3687.5	15.3224
3688	12.8898
3688.5	11.5905
3689	12.1307
3689.5	13.361
3690	14.2396
3690.5	15.0021
3691	16.2133
3691.5	17.3636
3692	17.2403
3692.5	15.6636
3693	14.0186
3693.5	13.5776
3694	13.8993
3694.5	14.0431
3695	14.237
3695.5	15.3866
3696	17.194
3696.5	18.2348
3697	17.4594
3697.5	15.3318
3698	13.0958
3698.5	11.968
3699	12.5037
3699.5	13.7163
3700	14.0634
