#Imported=	16.12.2021 13:58:46
60	59.9343
60.5	58.4492
61	56.9934
61.5	55.5102
62	54.1193
62.5	53.0001
63	52.2565
63.5	52.0044
64	52.1109
64.5	52.333
65	52.4603
65.5	52.4132
66	52.2091
66.5	52.0345
67	52.1441
67.5	52.7647
68	53.9502
68.5	55.6096
69	57.6208
69.5	59.6324
70	61.4204
70.5	62.8165
71	63.8594
71.5	64.5848
72	65.1172
72.5	65.5899
73	66.03
73.5	66.44
74	66.8166
74.5	67.2016
75	67.6919
75.5	68.3813
76	69.3278
76.5	70.447
77	71.5475
77.5	72.3189
78	72.5927
78.5	72.1839
79	71.2431
79.5	69.9708
80	68.7457
80.5	67.8676
81	67.552
81.5	67.9135
82	68.8824
82.5	70.5019
83	72.5367
83.5	74.8217
84	77.1834
84.5	79.3793
85	81.0741
85.5	81.931
86	81.9542
86.5	81.0734
87	79.4769
87.5	77.5115
88	75.6323
88.5	74.1973
89	73.3871
89.5	73.3772
90	73.9602
90.5	74.9635
91	76.034
91.5	76.9164
92	77.3873
92.5	77.3658
93	76.8478
93.5	75.8953
94	74.7577
94.5	73.5835
95	72.5223
95.5	71.6484
96	71.0026
96.5	70.5268
97	70.1647
97.5	69.9192
98	69.7949
98.5	69.8301
99	70.0187
99.5	70.2337
100	70.3264
100.5	70.1101
101	69.4997
101.5	68.4884
102	67.3196
102.5	66.2141
103	65.3822
103.5	64.8448
104	64.521
104.5	64.2028
105	63.7778
105.5	63.2533
106	62.7541
106.5	62.4423
107	62.4176
107.5	62.5005
108	62.469
108.5	62.0384
109	61.1957
109.5	60.0935
110	59.214
110.5	58.904
111	59.4363
111.5	60.7312
112	62.4398
112.5	64.0154
113	65.0775
113.5	65.4811
114	65.1551
114.5	64.3568
115	63.2154
115.5	61.9141
116	60.5787
116.5	59.3549
117	58.4296
117.5	58.0123
118	58.4526
118.5	59.493
119	60.8785
119.5	62.1589
120	62.915
120.5	62.7015
121	61.6376
121.5	60.1897
122	58.8706
122.5	58.1302
123	58.2042
123.5	59.1745
124	60.3828
124.5	61.366
125	61.7051
125.5	61.3376
126	60.3408
126.5	59.2562
127	58.5277
127.5	58.5015
128	59.0374
128.5	59.8605
129	60.3893
129.5	60.2328
130	59.2466
130.5	57.6603
131	55.9507
131.5	54.7358
132	54.4935
132.5	55.1718
133	56.6052
133.5	58.2092
134	59.5048
134.5	59.9851
135	59.6027
135.5	58.4982
136	57.0331
136.5	55.5707
137	54.5042
137.5	54.0593
138	54.2873
138.5	55.1625
139	56.4298
139.5	57.9114
140	59.3642
140.5	60.578
141	61.3943
141.5	61.8186
142	61.8983
142.5	61.6516
143	61.2321
143.5	60.7458
144	60.3003
144.5	59.9484
145	59.7232
145.5	59.5998
146	59.5099
146.5	59.353
147	59.0841
147.5	58.7066
148	58.27
148.5	57.8717
149	57.6124
149.5	57.4973
150	57.4362
150.5	57.3149
151	57.0435
151.5	56.6082
152	56.0844
152.5	55.666
153	55.4731
153.5	55.5561
154	55.7922
154.5	56.0061
155	55.9677
155.5	55.6527
156	55.1187
156.5	54.5655
157	54.1544
157.5	54.0108
158	54.0042
158.5	53.9131
159	53.5442
159.5	52.884
160	52.0328
160.5	51.3094
161	51.0234
161.5	51.3984
162	52.2488
162.5	53.3563
163	54.4113
163.5	55.1815
164	55.6554
164.5	56.0752
165	56.6889
165.5	57.7219
166	59.1389
166.5	60.7427
167	62.1378
167.5	63.1116
168	63.5775
168.5	63.6247
169	63.5234
169.5	63.5228
170	63.7091
170.5	63.9482
171	63.9724
171.5	63.5721
172	62.6106
172.5	61.0246
173	59.1454
173.5	57.2221
174	55.4444
174.5	53.8662
175	52.4944
175.5	51.2739
176	50.2228
176.5	49.5315
177	49.2917
177.5	49.6072
178	50.4447
178.5	51.4668
179	52.2195
179.5	52.3667
180	51.8507
180.5	50.699
181	49.303
181.5	48.0526
182	47.3094
182.5	47.0228
183	47.0942
183.5	47.3121
184	47.4807
184.5	47.4777
185	47.3398
185.5	47.1608
186	47.0304
186.5	46.9977
187	47.0937
187.5	47.3398
188	47.6875
188.5	48.0615
189	48.3541
189.5	48.478
190	48.3394
190.5	47.9906
191	47.5643
191.5	47.2386
192	47.0668
192.5	47.0092
193	46.9129
193.5	46.617
194	46.035
194.5	45.3881
195	44.9614
195.5	45.1321
196	45.9332
196.5	47.2572
197	48.6857
197.5	49.6934
198	49.945
198.5	49.4141
199	48.387
199.5	47.219
200	46.3442
200.5	45.9389
201	46.0294
201.5	46.3823
202	46.8539
202.5	47.3316
203	47.7889
203.5	48.2501
204	48.7066
204.5	49.1002
205	49.3067
205.5	49.2734
206	48.9869
206.5	48.5447
207	48.1677
207.5	48.0237
208	48.199
208.5	48.6275
209	49.1837
209.5	49.6335
210	49.8406
210.5	49.7362
211	49.4631
211.5	49.1566
212	48.9747
212.5	48.9833
213	49.1431
213.5	49.3292
214	49.46
214.5	49.5117
215	49.5606
215.5	49.717
216	50.0997
216.5	50.6181
217	51.1299
217.5	51.4259
218	51.3756
218.5	50.8534
219	49.9415
219.5	48.837
220	47.7064
220.5	46.6722
221	45.7987
221.5	45.1347
222	44.6885
222.5	44.5307
223	44.6836
223.5	45.1094
224	45.7626
224.5	46.4741
225	47.0866
225.5	47.3998
226	47.4744
226.5	47.4085
227	47.3843
227.5	47.5495
228	48.008
228.5	48.6806
229	49.3574
229.5	49.7788
230	49.8721
230.5	49.6724
231	49.3734
231.5	49.2834
232	49.7466
232.5	50.8133
233	52.2794
233.5	53.8872
234	55.3294
234.5	56.4587
235	57.2786
235.5	58.1339
236	59.3253
236.5	61.0177
237	63.0456
237.5	65.0812
238	66.6325
238.5	67.3026
239	66.8722
239.5	65.7625
240	64.3905
240.5	63.2894
241	62.7965
241.5	63.1489
242	64.2575
242.5	65.7197
243	67.2519
243.5	68.5944
244	69.6066
244.5	70.1062
245	70.1018
245.5	69.5512
246	68.4565
246.5	66.9739
247	65.2311
247.5	63.4586
248	61.8573
248.5	60.6597
249	59.7949
249.5	59.1573
250	58.5967
250.5	57.9513
251	57.1141
251.5	56.0427
252	54.8125
252.5	53.5588
253	52.4673
253.5	51.7141
254	51.5971
254.5	52.1229
255	53.2876
255.5	54.7779
256	56.078
256.5	56.7162
257	56.4415
257.5	55.3789
258	53.8174
258.5	52.4266
259	51.6992
259.5	51.923
260	52.7733
260.5	53.9072
261	54.8763
261.5	55.4297
262	55.4665
262.5	55.274
263	55.0796
263.5	55.0099
264	55.0099
264.5	54.9545
265	54.683
265.5	54.1936
266	53.6201
266.5	53.1853
267	53.0577
267.5	53.4242
268	54.2639
268.5	55.5005
269	57.0121
269.5	58.4925
270	59.6895
270.5	60.3261
271	60.3258
271.5	59.6011
272	58.3479
272.5	56.918
273	55.7234
273.5	54.9761
274	54.7487
274.5	55.0018
275	55.4592
275.5	55.8918
276	56.0899
276.5	56.0473
277	55.7995
277.5	55.4717
278	55.1568
278.5	54.9215
279	54.7519
279.5	54.6138
280	54.4869
280.5	54.4123
281	54.5214
281.5	54.9754
282	55.8771
282.5	57.3628
283	59.2339
283.5	61.1596
284	62.7223
284.5	63.6926
285	63.9103
285.5	63.4599
286	62.6839
286.5	61.978
287	61.6485
287.5	61.775
288	62.4037
288.5	63.3263
289	64.415
289.5	65.5355
290	66.5507
290.5	67.2835
291	67.5502
291.5	67.2477
292	66.2235
292.5	64.6767
293	62.8893
293.5	61.3352
294	60.3476
294.5	60.0411
295	60.2542
295.5	60.5806
296	60.5987
296.5	60.0336
297	58.855
297.5	57.2077
298	55.4901
298.5	53.9104
299	52.5851
299.5	51.4551
300	50.4799
300.5	49.6628
301	49.0921
301.5	48.9388
302	49.1866
302.5	49.7145
303	50.2981
303.5	50.6788
304	50.697
304.5	50.3559
305	49.9174
305.5	49.6077
306	49.5344
306.5	49.6527
307	49.8485
307.5	49.9786
308	49.9937
308.5	49.958
309	49.9746
309.5	50.0674
310	50.1586
310.5	50.1302
311	49.8614
311.5	49.3869
312	48.8583
312.5	48.5148
313	48.4356
313.5	48.6137
314	48.9404
314.5	49.2699
315	49.5479
315.5	49.855
316	50.3418
316.5	51.1565
317	52.2346
317.5	53.4417
318	54.5678
318.5	55.4627
319	56.0415
319.5	56.3291
320	56.4641
320.5	56.4893
321	56.4239
321.5	56.2731
322	56.0742
322.5	55.9601
323	56.1391
323.5	56.8827
324	58.1722
324.5	59.9899
325	62.1423
325.5	64.4066
326	66.6298
326.5	68.769
327	70.8907
327.5	73.1413
328	75.5821
328.5	78.2276
329	81.0003
329.5	83.7512
330	86.2906
330.5	88.4449
331	90.087
331.5	91.0586
332	91.4854
332.5	91.443
333	91.0417
333.5	90.4765
334	89.8262
334.5	89.0911
335	88.1937
335.5	87.0028
336	85.5149
336.5	83.7906
337	81.9219
337.5	80.0445
338	78.202
338.5	76.3507
339	74.4095
339.5	72.3522
340	70.2712
340.5	68.3021
341	66.6052
341.5	65.1519
342	63.819
342.5	62.3547
343	60.6114
343.5	58.6175
344	56.5995
344.5	54.8253
345	53.5681
345.5	52.8431
346	52.5326
346.5	52.5143
347	52.5969
347.5	52.7597
348	53.0049
348.5	53.2589
349	53.3482
349.5	53.0654
350	52.3258
350.5	51.1521
351	49.9691
351.5	49.137
352	48.9404
352.5	49.2004
353	49.6136
353.5	49.7339
354	49.3228
354.5	48.3282
355	47.1878
355.5	46.3139
356	46.0812
356.5	46.3964
357	47.0734
357.5	47.7904
358	48.2787
358.5	48.3798
359	48.1619
359.5	47.7934
360	47.4064
360.5	47.1204
361	47.0217
361.5	47.2346
362	47.7526
362.5	48.5717
363	49.5347
363.5	50.3927
364	50.9004
364.5	50.9676
365	50.6707
365.5	50.1818
366	49.8065
366.5	49.7681
367	50.1832
367.5	50.7717
368	51.1824
368.5	51.0185
369	50.1075
369.5	48.3488
370	46.1314
370.5	43.946
371	42.5493
371.5	42.1756
372	42.8588
372.5	44.2909
373	45.8792
373.5	47.111
374	47.6846
374.5	47.612
375	46.975
375.5	46.0989
376	45.1086
376.5	43.9748
377	42.6698
377.5	41.2023
378	39.7359
378.5	38.5134
379	37.8617
379.5	37.873
380	38.3803
380.5	39.152
381	39.8681
381.5	40.3606
382	40.571
382.5	40.6035
383	40.5445
383.5	40.4591
384	40.3442
384.5	40.1661
385	39.9495
385.5	39.7691
386	39.7736
386.5	40.0509
387	40.6836
387.5	41.6528
388	42.8025
388.5	43.9275
389	44.8258
389.5	45.3781
390	45.4362
390.5	45.1037
391	44.4515
391.5	43.5855
392	42.6415
392.5	41.6886
393	40.7876
393.5	40.0152
394	39.5708
394.5	39.6117
395	40.2614
395.5	41.6022
396	43.275
396.5	44.8097
397	45.5385
397.5	45.235
398	43.819
398.5	41.7994
399	39.824
399.5	38.6743
400	38.6295
400.5	39.7237
401	41.6607
401.5	43.6887
402	45.2207
402.5	45.9058
403	45.764
403.5	44.8569
404	43.5807
404.5	42.2839
405	41.3635
405.5	41.0228
406	41.3682
406.5	42.2906
407	43.4711
407.5	44.6117
408	45.4516
408.5	45.9074
409	45.9649
409.5	45.8302
410	45.6421
410.5	45.4537
411	45.2181
411.5	44.8839
412	44.5017
412.5	44.232
413	44.3346
413.5	44.9178
414	45.9062
414.5	47.0223
415	47.8069
415.5	47.9873
416	47.5451
416.5	46.8534
417	46.3388
417.5	46.3453
418	46.894
418.5	47.7905
419	48.5452
419.5	48.7804
420	48.3603
420.5	47.6538
421	47.0879
421.5	47.1052
422	47.8129
422.5	49.1534
423	50.6797
423.5	51.9427
424	52.4133
424.5	52.1813
425	51.4845
425.5	50.7699
426	50.462
426.5	50.8705
427	51.97
427.5	53.4382
428	54.8307
428.5	55.7084
429	55.8762
429.5	55.3802
430	54.6667
430.5	54.1192
431	54.0765
431.5	54.5765
432	55.5602
432.5	56.7377
433	57.8514
433.5	58.6853
434	59.2959
434.5	59.8036
435	60.3678
435.5	61.0681
436	61.8899
436.5	62.6886
437	63.2864
437.5	63.4766
438	63.2704
438.5	62.8369
439	62.514
439.5	62.5584
440	63.0859
440.5	63.965
441	64.8252
441.5	65.2581
442	65.0527
442.5	64.3144
443	63.3577
443.5	62.6755
444	62.4817
444.5	62.7121
445	62.9457
445.5	62.7645
446	61.92
446.5	60.5612
447	59.0229
447.5	57.7793
448	57.1023
448.5	57.0332
449	57.118
449.5	57.0008
450	56.4205
450.5	55.4764
451	54.4227
451.5	53.6407
452	53.3551
452.5	53.6821
453	54.3051
453.5	54.8312
454	54.8501
454.5	54.3379
455	53.4351
455.5	52.5392
456	52.0369
456.5	52.2346
457	53.0042
457.5	53.9707
458	54.5271
458.5	54.3106
459	53.3084
459.5	51.853
460	50.5401
460.5	49.8803
461	50.0681
461.5	50.8846
462	51.9681
462.5	52.8395
463	53.2461
463.5	53.0844
464	52.664
464.5	52.1661
465	51.695
465.5	51.2318
466	50.702
466.5	50.0764
467	49.4049
467.5	48.8073
468	48.3695
468.5	48.116
469	47.964
469.5	47.7733
470	47.4406
470.5	46.9252
471	46.2564
471.5	45.4481
472	44.5464
472.5	43.5815
473	42.5974
473.5	41.6759
474	40.9196
474.5	40.4
475	40.0801
475.5	39.9244
476	39.8748
476.5	39.9292
477	40.1918
477.5	40.7092
478	41.4657
478.5	42.2764
479	42.7868
479.5	42.6052
480	41.6153
480.5	40.1111
481	38.5694
481.5	37.5558
482	37.3701
482.5	38.1754
483	39.4587
483.5	40.7631
484	41.6326
484.5	41.9703
485	41.8927
485.5	41.6928
486	41.5349
486.5	41.4317
487	41.2971
487.5	41.0978
488	40.9368
488.5	41.0087
489	41.5207
489.5	42.5182
490	43.7644
490.5	44.8934
491	45.6132
491.5	45.8688
492	45.7188
492.5	45.4581
493	45.2507
493.5	45.1299
494	44.9593
494.5	44.5301
495	43.7152
495.5	42.585
496	41.3749
496.5	40.4424
497	40.043
497.5	40.4083
498	41.3293
498.5	42.5649
499	43.6998
499.5	44.3749
500	44.2502
500.5	43.3212
501	41.8017
501.5	40.0003
502	38.391
502.5	37.283
503	36.9328
503.5	37.2463
504	38.1537
504.5	39.4082
505	40.7092
505.5	41.7515
506	42.356
506.5	42.4818
507	42.1749
507.5	41.7677
508	41.5295
508.5	41.6296
509	41.9854
509.5	42.4062
510	42.6339
510.5	42.5463
511	42.1438
511.5	41.698
512	41.4851
512.5	41.776
513	42.5181
513.5	43.5364
514	44.5269
514.5	45.3054
515	45.8181
515.5	46.2273
516	46.7165
516.5	47.4467
517	48.3283
517.5	49.1474
518	49.5439
518.5	49.3131
519	48.2893
519.5	46.6965
520	44.9583
520.5	43.5515
521	42.7737
521.5	42.7461
522	43.4646
522.5	44.5342
523	45.6131
523.5	46.3442
524	46.5864
524.5	46.2901
525	45.6977
525.5	45.1067
526	44.8244
526.5	44.8991
527	45.28
527.5	45.8053
528	46.2856
528.5	46.6204
529	46.8169
529.5	46.9405
530	47.0128
530.5	46.9971
531	46.8079
531.5	46.3318
532	45.6677
532.5	44.9752
533	44.4796
533.5	44.3042
534	44.5307
534.5	45.0616
535	45.7506
535.5	46.4353
536	46.9421
536.5	47.093
537	46.6619
537.5	45.6661
538	44.201
538.5	42.7148
539	41.6887
539.5	41.6249
540	42.4833
540.5	43.934
541	45.4139
541.5	46.3907
542	46.6001
542.5	46.1261
543	45.3991
543.5	44.7604
544	44.3387
544.5	43.989
545	43.4478
545.5	42.6648
546	41.7988
546.5	41.2065
547	41.1089
547.5	41.5762
548	42.3586
548.5	43.0566
549	43.2978
549.5	43.0307
550	42.4477
550.5	41.9076
551	41.7298
551.5	42.0102
552	42.5608
552.5	43.0021
553	42.9605
553.5	42.2832
554	41.1199
554.5	39.7894
555	38.7621
555.5	38.3658
556	38.8167
556.5	39.7989
557	40.9464
557.5	41.7815
558	42.0462
558.5	41.6633
559	40.8971
559.5	40.0251
560	39.2819
560.5	38.7339
561	38.3708
561.5	38.152
562	38.0299
562.5	38.0229
563	38.1371
563.5	38.3355
564	38.5551
564.5	38.7313
565	38.8676
565.5	39.06
566	39.4021
566.5	39.9342
567	40.5611
567.5	41.0794
568	41.2344
568.5	40.9129
569	40.1698
569.5	39.1275
570	38.0632
570.5	37.1515
571	36.4996
571.5	36.0488
572	35.7545
572.5	35.5728
573	35.5038
573.5	35.6117
574	35.9031
574.5	36.3532
575	36.9091
575.5	37.4524
576	37.8726
576.5	38.0555
577	37.9844
577.5	37.6739
578	37.2915
578.5	37.0552
579	37.2509
579.5	37.9004
580	38.8312
580.5	39.6483
581	39.9927
581.5	39.6406
582	38.7222
582.5	37.6637
583	36.9411
583.5	36.7978
584	37.1716
584.5	37.8113
585	38.3154
585.5	38.4715
586	38.2557
586.5	37.8656
587	37.4502
587.5	37.0779
588	36.744
588.5	36.515
589	36.5346
589.5	36.9875
590	38.0495
590.5	39.5117
591	41.0783
591.5	42.3378
592	43.0797
592.5	43.2269
593	43.0373
593.5	42.7938
594	42.7438
594.5	42.9384
595	43.3707
595.5	44.0052
596	44.7743
596.5	45.6337
597	46.4879
597.5	47.2568
598	47.9237
598.5	48.6255
599	49.5493
599.5	50.8998
600	52.5562
600.5	54.2561
601	55.5877
601.5	56.3487
602	56.5228
602.5	56.4951
603	56.6877
603.5	57.4167
604	58.5005
604.5	59.6507
605	60.5477
605.5	61.1502
606	61.5881
606.5	62.0838
607	62.6935
607.5	63.2158
608	63.306
608.5	62.7178
609	61.3107
609.5	59.5081
610	57.711
610.5	56.2847
611	55.2385
611.5	54.3791
612	53.3988
612.5	52.2045
613	50.9275
613.5	49.8603
614	49.2081
614.5	49.0329
615	49.0759
615.5	49.1069
616	48.9929
616.5	48.8133
617	48.7712
617.5	48.9944
618	49.4287
618.5	49.8421
619	49.9805
619.5	49.7264
620	49.1736
620.5	48.5995
621	48.1774
621.5	47.8821
622	47.5757
622.5	47.1806
623	46.8578
623.5	46.9223
624	47.7923
624.5	49.3702
625	51.3223
625.5	52.9566
626	53.7407
626.5	53.3273
627	52.0794
627.5	50.57
628	49.3887
628.5	48.703
629	48.3915
629.5	48.1417
630	47.7641
630.5	47.3287
631	47.0615
631.5	47.0801
632	47.3273
632.5	47.4912
633	47.3029
633.5	46.5906
634	45.6074
634.5	44.6828
635	44.1854
635.5	44.2214
636	44.8021
636.5	45.7123
637	46.7652
637.5	47.8632
638	48.9437
638.5	49.9328
639	50.6406
639.5	50.9227
640	50.5936
640.5	49.6554
641	48.3336
641.5	46.9434
642	45.9019
642.5	45.5398
643	46.2849
643.5	48.0164
644	50.6359
644.5	53.7809
645	56.8821
645.5	59.3377
646	60.7094
646.5	60.8671
647	59.6345
647.5	57.4764
648	54.756
648.5	51.8744
649	49.1904
649.5	46.9246
650	45.166
650.5	43.8581
651	43.0292
651.5	42.6114
652	42.5851
652.5	43.0491
653	43.9056
653.5	45.0916
654	46.4301
654.5	47.6639
655	48.5369
655.5	48.9324
656	48.9317
656.5	48.7006
657	48.5327
657.5	48.6048
658	48.9742
658.5	49.4373
659	49.7405
659.5	49.6332
660	49.0947
660.5	48.1867
661	47.1444
661.5	46.1586
662	45.3916
662.5	44.8524
663	44.5489
663.5	44.4908
664	44.6271
664.5	44.9248
665	45.2688
665.5	45.5174
666	45.505
666.5	45.2136
667	44.7124
667.5	44.1506
668	43.7026
668.5	43.4743
669	43.4799
669.5	43.6245
670	43.8201
670.5	43.9668
671	43.9859
671.5	43.7445
672	43.2075
672.5	42.3621
673	41.3084
673.5	40.3064
674	39.6426
674.5	39.5035
675	39.8204
675.5	40.405
676	40.8953
676.5	41.0384
677	40.6392
677.5	39.8637
678	38.8861
678.5	37.9547
679	37.2647
679.5	37.0151
680	37.2808
680.5	38.0069
681	39.0525
681.5	40.0008
682	40.4302
682.5	39.9089
683	38.5898
683.5	36.8658
684	35.457
684.5	34.8604
685	35.3454
685.5	36.4569
686	37.5662
686.5	37.9359
687	37.4228
687.5	36.1415
688	34.5246
688.5	33.0667
689	32.0754
689.5	31.5847
690	31.4648
690.5	31.6592
691	32.0717
691.5	32.6717
692	33.4058
692.5	34.1361
693	34.7526
693.5	35.2289
694	35.6648
694.5	36.2016
695	36.8938
695.5	37.6589
696	38.2787
696.5	38.5915
697	38.5398
697.5	38.1994
698	37.7544
698.5	37.2817
699	36.7648
699.5	36.1527
700	35.4416
700.5	34.7785
701	34.3541
701.5	34.3791
702	34.7509
702.5	35.271
703	35.6204
703.5	35.6169
704	35.215
704.5	34.6384
705	34.1504
705.5	34.0131
706	34.2275
706.5	34.7146
707	35.3232
707.5	35.8934
708	36.3337
708.5	36.606
709	36.7125
709.5	36.6028
710	36.2702
710.5	35.7076
711	34.9037
711.5	33.9942
712	33.1501
712.5	32.6315
713	32.6044
713.5	33.2356
714	34.4029
714.5	35.8078
715	37.0425
715.5	37.7962
716	37.9337
716.5	37.4884
717	36.8062
717.5	36.1559
718	35.7305
718.5	35.5334
719	35.5049
719.5	35.5209
720	35.5133
720.5	35.4417
721	35.3057
721.5	35.0953
722	34.8266
722.5	34.5788
723	34.4961
723.5	34.7175
724	35.2769
724.5	36.1507
725	37.1075
725.5	37.93
726	38.3891
726.5	38.473
727	38.1996
727.5	37.6869
728	37.096
728.5	36.5493
729	36.1169
729.5	35.7904
730	35.4992
730.5	35.1239
731	34.5833
731.5	33.8841
732	33.1829
732.5	32.6965
733	32.5969
733.5	32.8853
734	33.4995
734.5	34.211
735	34.8573
735.5	35.3058
736	35.5415
736.5	35.5119
737	35.1596
737.5	34.5201
738	33.6758
738.5	32.8837
739	32.4002
739.5	32.4966
740	33.0408
740.5	33.7924
741	34.3833
741.5	34.6062
742	34.428
742.5	34.0548
743	33.7273
743.5	33.5713
744	33.4945
744.5	33.3403
745	32.9822
745.5	32.5399
746	32.25
746.5	32.393
747	32.986
747.5	33.8746
748	34.6541
748.5	34.9861
749	34.5817
749.5	33.6442
750	32.4769
750.5	31.4965
751	30.9664
751.5	31.0546
752	31.7374
752.5	32.8162
753	34.1042
753.5	35.3095
754	36.1878
754.5	36.4274
755	36.093
755.5	35.3092
756	34.3822
756.5	33.6248
757	33.1908
757.5	32.9604
758	32.6829
758.5	32.1121
759	31.2826
759.5	30.3959
760	29.7707
760.5	29.5222
761	29.6146
761.5	29.8437
762	30.0434
762.5	30.2402
763	30.6144
763.5	31.3052
764	32.3392
764.5	33.4057
765	34.1826
765.5	34.4114
766	34.2209
766.5	33.8642
767	33.6796
767.5	33.8061
768	34.1997
768.5	34.5662
769	34.6327
769.5	34.1214
770	33.1043
770.5	31.7096
771	30.2532
771.5	29.0881
772	28.5684
772.5	28.7488
773	29.4205
773.5	30.2152
774	30.7043
774.5	30.6833
775	30.1992
775.5	29.6253
776	29.3014
776.5	29.4193
777	29.921
777.5	30.736
778	31.7427
778.5	32.9041
779	34.1636
779.5	35.2975
780	35.9789
780.5	35.8929
781	35.1337
781.5	33.9832
782	32.9909
782.5	32.5258
783	32.7773
783.5	33.3861
784	33.9617
784.5	34.108
785	33.7639
785.5	32.9727
786	31.9307
786.5	30.8622
787	29.989
787.5	29.4928
788	29.4957
788.5	30.1508
789	31.2259
789.5	32.4919
790	33.635
790.5	34.4679
791	34.8884
791.5	34.9534
792	34.7642
792.5	34.3578
793	33.8479
793.5	33.3577
794	33.0741
794.5	33.0593
795	33.2667
795.5	33.4567
796	33.3728
796.5	32.8345
797	31.9961
797.5	31.1663
798	30.751
798.5	30.8313
799	31.2976
799.5	31.8089
800	32.0138
800.5	31.6851
801	30.8839
801.5	29.878
802	28.9923
802.5	28.4751
803	28.4361
803.5	28.9331
804	29.7551
804.5	30.7462
805	31.7083
805.5	32.4863
806	32.9118
806.5	32.9089
807	32.4738
807.5	31.5877
808	30.4832
808.5	29.3883
809	28.5887
809.5	28.1915
810	28.2197
810.5	28.5129
811	28.8717
811.5	29.2018
812	29.5497
812.5	30.0294
813	30.7605
813.5	31.6373
814	32.4541
814.5	32.9118
815	32.8852
815.5	32.3453
816	31.556
816.5	30.8561
817	30.6406
817.5	31.0128
818	31.931
818.5	33.1842
819	34.3981
819.5	35.2983
820	35.7788
820.5	35.9668
821	36.0146
821.5	36.0493
822	36.0373
822.5	35.783
823	35.2053
823.5	34.3353
824	33.4129
824.5	32.7357
825	32.5216
825.5	32.7179
826	33.0976
826.5	33.4283
827	33.5955
827.5	33.6084
828	33.5032
828.5	33.3073
829	32.9777
829.5	32.5109
830	32.0127
830.5	31.6531
831	31.5236
831.5	31.5622
832	31.5862
832.5	31.4476
833	31.1716
833.5	30.985
834	31.1013
834.5	31.582
835	32.1663
835.5	32.493
836	32.2407
836.5	31.542
837	30.7152
837.5	30.1622
838	29.9823
838.5	30.0603
839	30.1306
839.5	30.0639
840	29.9711
840.5	30.1252
841	30.6869
841.5	31.6752
842	32.7738
842.5	33.7426
843	34.4799
843.5	35.1334
844	35.8457
844.5	36.5827
845	37.0951
845.5	36.9649
846	36.1229
846.5	34.8181
847	33.6174
847.5	33.0336
848	33.2697
848.5	34.0371
849	34.6826
849.5	34.62
850	33.7522
850.5	32.4677
851	31.4282
851.5	31.131
852	31.7239
852.5	33.0215
853	34.4395
853.5	35.5178
854	35.959
854.5	35.7811
855	35.0317
855.5	34.0097
856	33.0293
856.5	32.5489
857	32.7731
857.5	33.7757
858	35.2741
858.5	36.6505
859	37.2817
859.5	36.9042
860	35.7598
860.5	34.3138
861	33.1565
861.5	32.5489
862	32.4761
862.5	32.549
863	32.477
863.5	32.1177
864	31.5594
864.5	30.9421
865	30.4172
865.5	30.0726
866	30.0422
866.5	30.3311
867	30.9402
867.5	31.7607
868	32.5703
868.5	33.2065
869	33.669
869.5	34.1077
870	34.679
870.5	35.3238
871	35.7914
871.5	35.6637
872	34.913
872.5	33.7536
873	32.7531
873.5	32.3791
874	32.8584
874.5	33.8045
875	34.6542
875.5	34.8655
876	34.5222
876.5	34.0142
877	33.9576
877.5	34.5915
878	35.7863
878.5	36.9277
879	37.4259
879.5	36.8604
880	35.586
880.5	34.2259
881	33.5896
881.5	33.8983
882	34.9977
882.5	36.2379
883	36.9311
883.5	36.6401
884	35.6003
884.5	34.419
885	33.8398
885.5	34.1183
886	35.1166
886.5	36.3407
887	37.2228
887.5	37.4711
888	37.1953
888.5	36.7747
889	36.5409
889.5	36.5861
890	36.7969
890.5	36.9877
891	37.0634
891.5	37.0442
892	36.9814
892.5	36.8471
893	36.4696
893.5	35.7061
894	34.6222
894.5	33.5304
895	32.9128
895.5	33.1148
896	34.2691
896.5	35.8332
897	37.2165
897.5	37.8895
898	37.8472
898.5	37.3778
899	37.0503
899.5	37.1712
900	37.7678
900.5	38.4041
901	38.7125
901.5	38.5004
902	38.0072
902.5	37.5612
903	37.4151
903.5	37.5195
904	37.6125
904.5	37.4017
905	36.7921
905.5	35.8818
906	34.9869
906.5	34.3161
907	33.9148
907.5	33.6348
908	33.3326
908.5	32.9637
909	32.6115
909.5	32.451
910	32.5461
910.5	32.8876
911	33.3919
911.5	33.9282
912	34.431
912.5	34.8717
913	35.2389
913.5	35.4819
914	35.5824
914.5	35.5612
915	35.5024
915.5	35.5365
916	35.7453
916.5	36.0987
917	36.4336
917.5	36.5526
918	36.3742
918.5	35.9924
919	35.6233
919.5	35.4826
920	35.6228
920.5	35.9015
921	36.0278
921.5	35.7743
922	35.151
922.5	34.4539
923	34.1408
923.5	34.5281
924	35.6531
924.5	37.3512
925	39.0312
925.5	40.186
926	40.3879
926.5	39.7219
927	38.3881
927.5	36.9018
928	35.7159
928.5	35.2112
929	35.3042
929.5	35.7612
930	36.2343
930.5	36.4665
931	36.3974
931.5	36.1774
932	36.0226
932.5	36.0685
933	36.2615
933.5	36.4763
934	36.6217
934.5	36.7584
935	37.019
935.5	37.5069
936	38.0996
936.5	38.5246
937	38.5073
937.5	38.0246
938	37.2505
938.5	36.607
939	36.393
939.5	36.7709
940	37.4669
940.5	38.2206
941	38.8335
941.5	39.335
942	39.8668
942.5	40.5109
943	41.1502
943.5	41.4119
944	41.0442
944.5	39.9677
945	38.4337
945.5	37.0466
946	36.3915
946.5	36.7597
947	37.929
947.5	39.5004
948	40.8873
948.5	41.7705
949	42.0047
949.5	41.8942
950	41.6754
950.5	41.5313
951	41.4792
951.5	41.4741
952	41.4967
952.5	41.6029
953	41.9275
953.5	42.4868
954	43.2184
954.5	43.9539
955	44.5142
955.5	44.7687
956	44.6934
956.5	44.3728
957	43.8677
957.5	43.3103
958	42.8479
958.5	42.7584
959	43.187
959.5	44.247
960	45.8384
960.5	47.5472
961	48.9049
961.5	49.5657
962	49.5255
962.5	48.9475
963	48.3206
963.5	48.0047
964	48.2459
964.5	48.8712
965	49.6473
965.5	50.2584
966	50.5271
966.5	50.3741
967	49.9831
967.5	49.608
968	49.5692
968.5	49.9515
969	50.7169
969.5	51.6484
970	52.453
970.5	52.9249
971	53.0591
971.5	53.0228
972	53.0208
972.5	53.1968
973	53.5742
973.5	54.105
974	54.6636
974.5	55.185
975	55.6621
975.5	56.1479
976	56.7046
976.5	57.3271
977	57.9347
977.5	58.3777
978	58.6381
978.5	58.8631
979	59.46
979.5	60.7485
980	62.8972
980.5	65.5156
981	67.8762
981.5	69.175
982	69.3611
982.5	68.9714
983	69.0394
983.5	70.24
984	72.6692
984.5	75.6412
985	78.1821
985.5	79.6694
986	80.3511
986.5	80.975
987	82.3865
987.5	84.712
988	87.6839
988.5	90.7872
989	93.5764
989.5	95.7902
990	97.2783
990.5	97.9949
991	97.7431
991.5	96.7609
992	95.488
992.5	94.5807
993	94.4001
993.5	94.9873
994	95.9779
994.5	96.8238
995	97.1395
995.5	96.8471
996	96.0584
996.5	94.7402
997	92.9438
997.5	90.7182
998	88.2492
998.5	85.9221
999	84.0641
999.5	82.7941
1000	81.8983
1000.5	81.1078
1001	80.1612
1001.5	78.9645
1002	77.46
1002.5	75.729
1003	73.817
1003.5	71.8719
1004	70.16
1004.5	69.045
1005	68.7193
1005.5	69.0227
1006	69.5931
1006.5	69.8674
1007	69.5343
1007.5	68.5152
1008	67.2161
1008.5	65.973
1009	65.0082
1009.5	64.2691
1010	63.6459
1010.5	63.0985
1011	62.7743
1011.5	63.0621
1012	64.0421
1012.5	65.5745
1013	67.1202
1013.5	68.0238
1014	67.7646
1014.5	66.3936
1015	64.531
1015.5	63.0038
1016	62.4142
1016.5	62.8464
1017	64.0863
1017.5	65.4433
1018	66.4661
1018.5	66.9268
1019	67.0035
1019.5	66.9544
1020	67.0496
1020.5	67.3561
1021	67.7593
1021.5	67.9977
1022	67.8791
1022.5	67.3466
1023	66.6795
1023.5	66.2379
1024	66.3658
1024.5	67.1092
1025	68.3696
1025.5	69.8029
1026	71.1583
1026.5	72.2316
1027	72.9984
1027.5	73.3868
1028	73.2967
1028.5	72.7648
1029	71.8177
1029.5	70.6488
1030	69.4686
1030.5	68.4637
1031	67.7112
1031.5	67.2673
1032	67.2186
1032.5	67.4556
1033	67.7539
1033.5	67.6651
1034	66.8533
1034.5	65.0939
1035	62.7697
1035.5	60.4674
1036	58.8882
1036.5	58.1446
1037	58.062
1037.5	58.1816
1038	58.0822
1038.5	57.6101
1039	56.8881
1039.5	56.0977
1040	55.2947
1040.5	54.4191
1041	53.4089
1041.5	52.2897
1042	51.2034
1042.5	50.2624
1043	49.4946
1043.5	48.8227
1044	48.1949
1044.5	47.6123
1045	47.1243
1045.5	46.8065
1046	46.6208
1046.5	46.5069
1047	46.3859
1047.5	46.2114
1048	45.9617
1048.5	45.636
1049	45.2596
1049.5	44.8898
1050	44.617
1050.5	44.4999
1051	44.5183
1051.5	44.4717
1052	44.1153
1052.5	43.2775
1053	42.1331
1053.5	41.0955
1054	40.7129
1054.5	41.2713
1055	42.8627
1055.5	44.8226
1056	46.4369
1056.5	47.0098
1057	46.601
1057.5	45.5084
1058	44.3318
1058.5	43.4814
1059	43.0573
1059.5	42.7572
1060	42.2797
1060.5	41.4388
1061	40.4362
1061.5	39.5206
1062	38.8879
1062.5	38.4749
1063	38.1587
1063.5	37.8942
1064	37.8302
1064.5	38.3009
1065	39.3331
1065.5	40.6949
1066	41.8192
1066.5	42.2164
1067	41.6208
1067.5	40.2712
1068	38.7956
1068.5	37.8105
1069	37.5583
1069.5	37.8685
1070	38.3387
1070.5	38.5108
1071	38.2336
1071.5	37.6374
1072	37.0773
1072.5	36.8498
1073	37.0481
1073.5	37.5333
1074	38.1083
1074.5	38.5771
1075	38.8702
1075.5	38.978
1076	38.9852
1076.5	38.9491
1077	38.9788
1077.5	39.2166
1078	39.8635
1078.5	40.9358
1079	42.2398
1079.5	43.3657
1080	43.9565
1080.5	43.8788
1081	43.3467
1081.5	42.9282
1082	43.116
1082.5	44.0379
1083	45.3393
1083.5	46.4467
1084	46.9263
1084.5	46.7423
1085	46.1056
1085.5	45.496
1086	45.1996
1086.5	45.3018
1087	45.6129
1087.5	45.9095
1088	46.0087
1088.5	45.8901
1089	45.6527
1089.5	45.5136
1090	45.6313
1090.5	46.0288
1091	46.4868
1091.5	46.7645
1092	46.7066
1092.5	46.3885
1093	45.974
1093.5	45.6376
1094	45.4069
1094.5	45.2229
1095	45.0456
1095.5	44.9646
1096	45.1287
1096.5	45.4771
1097	45.715
1097.5	45.4994
1098	44.8237
1098.5	44.1242
1099	44.1246
1099.5	45.287
1100	47.6159
1100.5	50.1895
1101	52.1316
1101.5	52.9501
1102	53.0068
1102.5	52.9643
1103	53.3599
1103.5	54.1333
1104	54.8334
1104.5	55.0739
1105	54.7972
1105.5	54.2378
1106	53.6835
1106.5	53.1511
1107	52.4783
1107.5	51.6022
1108	50.7031
1108.5	50.1304
1109	50.0235
1109.5	50.2028
1110	50.1958
1110.5	49.6804
1111	48.6571
1111.5	47.4515
1112	46.2917
1112.5	45.1254
1113	43.6947
1113.5	41.7002
1114	39.3908
1114.5	37.3228
1115	36.2693
1115.5	36.3965
1116	37.595
1116.5	39.221
1117	40.597
1117.5	41.21
1118	41.1053
1118.5	40.5786
1119	40.0532
1119.5	39.8484
1120	40.0478
1120.5	40.4196
1121	40.5927
1121.5	40.2519
1122	39.4114
1122.5	38.373
1123	37.623
1123.5	37.4653
1124	37.9291
1124.5	38.7314
1125	39.3601
1125.5	39.4491
1126	38.992
1126.5	38.3472
1127	37.8888
1127.5	37.7786
1128	37.9209
1128.5	38.0905
1129	38.1181
1129.5	38.0114
1130	37.8804
1130.5	37.7465
1131	37.3744
1131.5	36.4012
1132	34.7277
1132.5	32.5457
1133	30.598
1133.5	29.6079
1134	30.2517
1134.5	32.1742
1135	34.8392
1135.5	37.3825
1136	39.2253
1136.5	40.0642
1137	40.2207
1137.5	40.0946
1138	39.9259
1138.5	39.7683
1139	39.5625
1139.5	39.3184
1140	39.214
1140.5	39.5457
1141	40.4425
1141.5	41.6705
1142	42.6457
1142.5	42.8338
1143	42.1018
1143.5	40.7419
1144	39.5389
1144.5	39.0594
1145	39.4413
1145.5	40.2443
1146	41.0172
1146.5	41.5619
1147	42.0525
1147.5	42.7883
1148	43.6799
1148.5	44.3467
1149	44.2906
1149.5	43.5794
1150	42.6611
1150.5	42.2843
1151	42.8169
1151.5	44.2462
1152	45.8802
1152.5	47.1094
1153	47.5422
1153.5	47.4467
1154	47.1171
1154.5	46.8881
1155	46.9576
1155.5	47.513
1156	48.6041
1156.5	50.1349
1157	51.8777
1157.5	53.38
1158	54.2961
1158.5	54.3821
1159	53.8287
1159.5	52.7621
1160	51.3756
1160.5	49.8696
1161	48.4598
1161.5	47.3698
1162	46.7056
1162.5	46.419
1163	46.0855
1163.5	45.3815
1164	44.1916
1164.5	42.8159
1165	41.6574
1165.5	40.9748
1166	40.6685
1166.5	40.4271
1167	39.9149
1167.5	39.0643
1168	38.067
1168.5	37.2071
1169	36.6287
1169.5	36.3034
1170	36.1057
1170.5	36.012
1171	36.0614
1171.5	36.2773
1172	36.5603
1172.5	36.637
1173	36.2808
1173.5	35.4381
1174	34.4236
1174.5	33.6323
1175	33.3613
1175.5	33.5741
1176	34.0673
1176.5	34.5168
1177	34.8339
1177.5	35.19
1178	35.7959
1178.5	36.7015
1179	37.6673
1179.5	38.3413
1180	38.461
1180.5	38.2207
1181	38.1074
1181.5	38.9164
1182	40.8316
1182.5	43.6502
1183	46.6404
1183.5	48.8444
1184	49.3891
1184.5	48.0195
1185	45.3012
1185.5	42.0312
1186	39.2601
1186.5	37.5046
1187	36.8623
1187.5	36.6966
1188	36.5483
1188.5	36.1049
1189	35.3807
1189.5	34.4643
1190	33.4813
1190.5	32.5333
1191	31.8552
1191.5	31.673
1192	32.1596
1192.5	33.2791
1193	34.5291
1193.5	35.3893
1194	35.5234
1194.5	35.0741
1195	34.355
1195.5	33.729
1196	33.2337
1196.5	32.6876
1197	31.9681
1197.5	31.1676
1198	30.6129
1198.5	30.5507
1199	31.1008
1199.5	32.0354
1200	33.0058
1200.5	33.7097
1201	34.0638
1201.5	34.0541
1202	33.6459
1202.5	32.9366
1203	31.9963
1203.5	31.0177
1204	30.2633
1204.5	30.0461
1205	30.4693
1205.5	31.4722
1206	32.91
1206.5	34.3442
1207	35.3873
1207.5	35.6716
1208	35.2435
1208.5	34.2616
1209	33.1736
1209.5	32.3045
1210	31.8361
1210.5	31.6372
1211	31.5188
1211.5	31.2904
1212	30.9109
1212.5	30.4441
1213	30.0679
1213.5	29.9358
1214	30.1999
1214.5	30.8427
1215	31.7411
1215.5	32.7408
1216	33.6846
1216.5	34.5368
1217	35.3349
1217.5	36.0846
1218	36.5997
1218.5	36.5727
1219	35.8609
1219.5	34.4909
1220	33.0195
1220.5	32.0261
1221	32.0726
1221.5	32.8185
1222	33.6897
1222.5	34.0415
1223	33.7435
1223.5	33.0498
1224	32.5285
1224.5	32.4877
1225	32.8763
1225.5	33.1304
1226	32.804
1226.5	31.699
1227	30.2105
1227.5	28.8195
1228	28.0181
1228.5	27.9687
1229	28.7319
1229.5	29.9462
1230	31.1763
1230.5	31.942
1231	32.1037
1231.5	31.6996
1232	31.0474
1232.5	30.5683
1233	30.5479
1233.5	30.9674
1234	31.5812
1234.5	32.194
1235	32.7283
1235.5	33.1972
1236	33.6031
1236.5	33.9306
1237	34.1604
1237.5	34.3368
1238	34.5089
1238.5	34.5757
1239	34.3181
1239.5	33.5854
1240	32.3979
1240.5	31.2673
1241	30.724
1241.5	31.1405
1242	32.0424
1242.5	32.7782
1243	32.7955
1243.5	32.1234
1244	31.1824
1244.5	30.5992
1245	30.6542
1245.5	31.2876
1246	31.999
1246.5	32.5314
1247	32.8456
1247.5	33.0767
1248	33.2942
1248.5	33.4596
1249	33.5068
1249.5	33.466
1250	33.5319
1250.5	33.8691
1251	34.5121
1251.5	35.2146
1252	35.6545
1252.5	35.5949
1253	35.0951
1253.5	34.4483
1254	34.0561
1254.5	34.1099
1255	34.6012
1255.5	35.1433
1256	35.3908
1256.5	35.1454
1257	34.6116
1257.5	34.1534
1258	34.0412
1258.5	34.2349
1259	34.4573
1259.5	34.3807
1260	33.9035
1260.5	33.2255
1261	32.785
1261.5	32.8882
1262	33.5284
1262.5	34.3975
1263	35.1464
1263.5	35.5456
1264	35.5576
1264.5	35.1611
1265	34.537
1265.5	33.7701
1266	33.0216
1266.5	32.49
1267	32.3745
1267.5	32.6417
1268	33.0097
1268.5	33.0356
1269	32.5635
1269.5	31.7488
1270	31.0575
1270.5	30.8969
1271	31.4207
1271.5	32.3612
1272	33.2537
1272.5	33.8549
1273	34.3086
1273.5	34.8448
1274	35.5101
1274.5	35.9523
1275	35.6762
1275.5	34.2922
1276	32.3082
1276.5	30.4723
1277	29.5349
1277.5	29.6509
1278	30.5906
1278.5	31.5778
1279	32.0499
1279.5	31.7801
1280	31.1718
1280.5	30.6204
1281	30.481
1281.5	30.8194
1282	31.6291
1282.5	32.7215
1283	33.8943
1283.5	34.9246
1284	35.6569
1284.5	35.9642
1285	35.759
1285.5	35.1824
1286	34.3571
1286.5	33.4982
1287	32.7769
1287.5	32.3508
1288	32.2498
1288.5	32.455
1289	32.9332
1289.5	33.522
1290	34.1182
1290.5	34.6774
1291	35.2409
1291.5	35.864
1292	36.4998
1292.5	36.9662
1293	36.8521
1293.5	36.0016
1294	34.5401
1294.5	32.9254
1295	31.7845
1295.5	31.5915
1296	32.3357
1296.5	33.462
1297	34.2474
1297.5	34.301
1298	33.7047
1298.5	32.819
1299	32.1536
1299.5	31.9443
1300	32.1612
1300.5	32.5095
1301	32.7952
1301.5	32.9515
1302	32.9745
1302.5	32.7508
1303	32.1726
1303.5	31.1665
1304	29.9387
1304.5	28.9915
1305	28.8466
1305.5	29.7652
1306	31.4262
1306.5	33.3062
1307	34.7658
1307.5	35.6045
1308	35.8908
1308.5	36.0343
1309	36.2227
1309.5	36.4299
1310	36.4707
1310.5	36.1609
1311	35.5299
1311.5	34.7387
1312	33.9673
1312.5	33.3852
1313	33.1251
1313.5	33.3591
1314	33.9395
1314.5	34.5973
1315	34.9264
1315.5	34.7257
1316	34.0162
1316.5	33.2268
1317	32.7883
1317.5	32.9349
1318	33.3688
1318.5	33.7879
1319	34.0018
1319.5	34.1227
1320	34.3369
1320.5	34.657
1321	34.8351
1321.5	34.5199
1322	33.7047
1322.5	32.6641
1323	31.9109
1323.5	31.7599
1324	32.2185
1324.5	33.0101
1325	33.8111
1325.5	34.4753
1326	35.0031
1326.5	35.3903
1327	35.4213
1327.5	34.9367
1328	33.8644
1328.5	32.3981
1329	31.0938
1329.5	30.5435
1330	31.1296
1330.5	32.5538
1331	34.3518
1331.5	35.9076
1332	36.8923
1332.5	37.1135
1333	36.8639
1333.5	36.381
1334	35.9061
1334.5	35.5821
1335	35.5082
1335.5	35.6757
1336	35.9928
1336.5	36.3621
1337	36.7393
1337.5	37.1823
1338	37.7614
1338.5	38.3536
1339	38.6285
1339.5	38.1095
1340	36.732
1340.5	34.6631
1341	32.5033
1341.5	30.7659
1342	29.9455
1342.5	29.9923
1343	30.8282
1343.5	32.272
1344	33.9312
1344.5	35.3294
1345	35.9402
1345.5	35.5612
1346	34.3268
1346.5	33.0272
1347	32.2338
1347.5	32.2705
1348	32.7504
1348.5	33.2508
1349	33.468
1349.5	33.537
1350	33.7113
1350.5	34.1038
1351	34.5915
1351.5	34.9188
1352	34.9937
1352.5	34.9451
1353	35.0289
1353.5	35.3839
1354	36.0162
1354.5	36.7413
1355	37.3115
1355.5	37.4774
1356	37.2121
1356.5	36.6192
1357	35.9371
1357.5	35.473
1358	35.4139
1358.5	35.6293
1359	35.7694
1359.5	35.4967
1360	34.7419
1360.5	33.7107
1361	32.7635
1361.5	32.1645
1362	31.9897
1362.5	32.2428
1363	32.7872
1363.5	33.5883
1364	34.5605
1364.5	35.537
1365	36.3204
1365.5	36.8044
1366	36.9894
1366.5	36.9031
1367	36.6898
1367.5	36.4235
1368	36.1772
1368.5	36.026
1369	36.0592
1369.5	36.2682
1370	36.4995
1370.5	36.4453
1371	35.9305
1371.5	34.9649
1372	33.8385
1372.5	33.087
1373	33.2416
1373.5	34.3599
1374	35.9244
1374.5	37.1923
1375	37.5414
1375.5	36.8698
1376	35.5593
1376.5	34.5438
1377	34.3382
1377.5	35.0008
1378	35.9367
1378.5	36.5341
1379	36.4983
1379.5	36.0879
1380	35.6774
1380.5	35.5064
1381	35.5276
1381.5	35.5183
1382	35.3517
1382.5	35.118
1383	35.0386
1383.5	35.2355
1384	35.7099
1384.5	36.2402
1385	36.5815
1385.5	36.4794
1386	35.9557
1386.5	35.124
1387	34.2911
1387.5	33.8191
1388	33.9105
1388.5	34.4072
1389	34.8993
1389.5	34.9217
1390	34.354
1390.5	33.44
1391	32.6646
1391.5	32.329
1392	32.4924
1392.5	32.946
1393	33.3515
1393.5	33.4871
1394	33.349
1394.5	33.0707
1395	32.8787
1395.5	33.0186
1396	33.6877
1396.5	34.9206
1397	36.3869
1397.5	37.6898
1398	38.4238
1398.5	38.4742
1399	37.9599
1399.5	37.3249
1400	36.8788
1400.5	36.8159
1401	36.9649
1401.5	37.0695
1402	36.8559
1402.5	36.3004
1403	35.5056
1403.5	34.733
1404	34.195
1404.5	34.0053
1405	34.0085
1405.5	34.0583
1406	34.0359
1406.5	33.9261
1407	33.744
1407.5	33.5152
1408	33.2646
1408.5	33.0646
1409	33.054
1409.5	33.3937
1410	34.267
1410.5	35.4686
1411	36.7139
1411.5	37.5163
1412	37.5452
1412.5	36.5616
1413	35.0059
1413.5	33.5829
1414	33.1293
1414.5	33.8624
1415	35.4856
1415.5	37.0953
1416	37.8909
1416.5	37.5572
1417	36.4037
1417.5	35.1511
1418	34.3621
1418.5	34.0662
1419	34.0045
1419.5	33.9118
1420	33.7045
1420.5	33.4751
1421	33.379
1421.5	33.4401
1422	33.5937
1422.5	33.6686
1423	33.4809
1423.5	32.8703
1424	32.0075
1424.5	31.2278
1425	31.1064
1425.5	31.8698
1426	33.477
1426.5	35.3311
1427	36.7551
1427.5	37.222
1428	36.7252
1428.5	35.6182
1429	34.3849
1429.5	33.4338
1430	32.9437
1430.5	32.9372
1431	33.0964
1431.5	33.0261
1432	32.4119
1432.5	31.3127
1433	30.072
1433.5	29.3045
1434	29.3908
1434.5	30.3893
1435	31.6679
1435.5	32.6724
1436	32.9618
1436.5	32.6599
1437	32.1379
1437.5	31.8008
1438	31.7893
1438.5	32.0724
1439	32.4445
1439.5	32.8424
1440	33.3737
1440.5	34.1234
1441	35.0655
1441.5	35.9308
1442	36.4233
1442.5	36.3388
1443	35.8066
1443.5	35.0391
1444	34.1486
1444.5	33.1556
1445	32.0607
1445.5	31.0739
1446	30.5502
1446.5	30.9139
1447	32.0364
1447.5	33.2677
1448	33.7814
1448.5	33.2643
1449	31.9834
1449.5	30.8653
1450	30.6861
1450.5	31.6802
1451	33.3319
1451.5	34.691
1452	35.0006
1452.5	34.4187
1453	33.5464
1453.5	33.0649
1454	33.1344
1454.5	33.4435
1455	33.4497
1455.5	33.0132
1456	32.3477
1456.5	31.927
1457	31.9842
1457.5	32.4103
1458	32.8345
1458.5	33.0368
1459	32.935
1459.5	32.6417
1460	32.1503
1460.5	31.373
1461	30.3637
1461.5	29.3556
1462	28.7689
1462.5	28.8197
1463	29.662
1463.5	31.0154
1464	32.6327
1464.5	34.1429
1465	35.193
1465.5	35.4449
1466	34.8874
1466.5	34.027
1467	33.6994
1467.5	34.3337
1468	35.6829
1468.5	36.872
1469	36.9718
1469.5	35.7069
1470	33.738
1470.5	32.1003
1471	31.5045
1471.5	31.8802
1472	32.5674
1472.5	32.95
1473	32.935
1473.5	32.7755
1474	32.9231
1474.5	33.5066
1475	34.3545
1475.5	35.0257
1476	35.1414
1476.5	34.3922
1477	33.1293
1477.5	31.8332
1478	30.9951
1478.5	30.6384
1479	30.5398
1479.5	30.3707
1480	30.1152
1480.5	30.0341
1481	30.3913
1481.5	31.0952
1482	31.7513
1482.5	32.0495
1483	32.0067
1483.5	31.8934
1484	31.9323
1484.5	31.9863
1485	31.7341
1485.5	31.0992
1486	30.3425
1486.5	29.9742
1487	30.1728
1487.5	30.812
1488	31.3958
1488.5	31.5811
1489	31.3211
1489.5	30.865
1490	30.398
1490.5	30.0714
1491	29.9753
1491.5	30.1864
1492	30.5862
1492.5	30.9631
1493	31.0285
1493.5	30.8078
1494	30.5527
1494.5	30.5497
1495	30.7861
1495.5	30.976
1496	30.8474
1496.5	30.5427
1497	30.6062
1497.5	31.4597
1498	33.1089
1498.5	34.8734
1499	35.9685
1499.5	35.9292
1500	34.9212
1500.5	33.6186
1501	32.5901
1501.5	31.9521
1502	31.5151
1502.5	30.9991
1503	30.3634
1503.5	29.8147
1504	29.6631
1504.5	29.9615
1505	30.5283
1505.5	30.9145
1506	30.9042
1506.5	30.5932
1507	30.5193
1507.5	31.1259
1508	32.4675
1508.5	33.9366
1509	34.9018
1509.5	35.0086
1510	34.6759
1510.5	34.4586
1511	34.3676
1511.5	34.2992
1512	33.6669
1512.5	32.5909
1513	31.4733
1513.5	30.8412
1514	30.8179
1514.5	31.2073
1515	31.6941
1515.5	32.2628
1516	33.0194
1516.5	33.8488
1517	34.3244
1517.5	34.0464
1518	33.147
1518.5	32.312
1519	32.267
1519.5	33.2342
1520	34.4921
1520.5	35.2444
1521	35.273
1521.5	34.9147
1522	34.8228
1522.5	35.2174
1523	35.7298
1523.5	35.8119
1524	35.1672
1524.5	34.2626
1525	33.7641
1525.5	34.0005
1526	34.7786
1526.5	35.3459
1527	35.2666
1527.5	34.5845
1528	33.6155
1528.5	32.6475
1529	31.5795
1529.5	30.2417
1530	28.7065
1530.5	27.537
1531	27.5194
1531.5	28.8318
1532	31.1448
1532.5	33.6842
1533	35.4072
1533.5	35.9937
1534	35.5741
1534.5	34.5645
1535	33.5828
1535.5	33.1194
1536	33.2998
1536.5	34.0019
1537	34.855
1537.5	35.3063
1538	35.1182
1538.5	34.3683
1539	33.4035
1539.5	32.7439
1540	32.6754
1540.5	33.0897
1541	33.6455
1541.5	33.8654
1542	33.4087
1542.5	32.3684
1543	31.1337
1543.5	30.2792
1544	30.2051
1544.5	30.9403
1545	32.0166
1545.5	32.8376
1546	33.0588
1546.5	32.6916
1547	32.0903
1547.5	31.6247
1548	31.3916
1548.5	31.3093
1549	31.3008
1549.5	31.4535
1550	31.911
1550.5	32.6284
1551	33.3082
1551.5	33.396
1552	32.6881
1552.5	31.539
1553	30.5768
1553.5	30.5001
1554	31.469
1554.5	32.7771
1555	33.697
1555.5	33.7553
1556	33.0526
1556.5	32.5132
1557	32.7772
1557.5	33.9997
1558	35.7452
1558.5	37.0057
1559	37.2046
1559.5	36.3344
1560	34.8512
1560.5	33.5333
1561	32.8983
1561.5	32.9094
1562	33.2232
1562.5	33.3899
1563	33.2179
1563.5	32.9035
1564	32.8451
1564.5	33.3274
1565	34.2157
1565.5	35.0663
1566	35.366
1566.5	34.9089
1567	34.043
1567.5	33.2676
1568	33.0697
1568.5	33.5854
1569	34.5156
1569.5	35.5368
1570	36.4095
1570.5	36.9913
1571	37.2916
1571.5	37.3125
1572	37.0323
1572.5	36.4169
1573	35.4453
1573.5	34.2204
1574	32.9071
1574.5	31.8033
1575	31.3839
1575.5	31.9227
1576	33.1935
1576.5	34.6365
1577	35.4483
1577.5	35.1629
1578	33.9334
1578.5	32.4377
1579	31.3432
1579.5	30.944
1580	31.1452
1580.5	31.7154
1581	32.5779
1581.5	33.8547
1582	35.6023
1582.5	37.6599
1583	39.5368
1583.5	40.6777
1584	40.8533
1584.5	40.0868
1585	38.6132
1585.5	36.8934
1586	35.3409
1586.5	34.151
1587	33.3452
1587.5	32.7901
1588	32.2931
1588.5	31.894
1589	31.7914
1589.5	32.2097
1590	33.054
1590.5	33.8466
1591	34.1281
1591.5	33.736
1592	32.9974
1592.5	32.4473
1593	32.3742
1593.5	32.6137
1594	32.8187
1594.5	32.86
1595	32.916
1595.5	33.2742
1596	33.8811
1596.5	34.3201
1597	34.2468
1597.5	33.6415
1598	33.0122
1598.5	32.8538
1599	33.1136
1599.5	33.343
1600	32.9447
1600.5	31.8655
1601	30.7423
1601.5	30.1761
1602	30.4112
1602.5	31.0413
1603	31.3729
1603.5	31.1517
1604	30.642
1604.5	30.4087
1605	30.782
1605.5	31.7007
1606	32.8023
1606.5	33.8239
1607	34.7284
1607.5	35.4984
1608	35.9341
1608.5	35.6413
1609	34.6033
1609.5	33.2276
1610	32.1932
1610.5	32.202
1611	33.1206
1611.5	34.1182
1612	34.4392
1612.5	33.7289
1613	32.4054
1613.5	31.3281
1614	30.9499
1614.5	31.1846
1615	31.5484
1615.5	31.6207
1616	31.3504
1616.5	31.0068
1617	30.8617
1617.5	30.949
1618	31.1607
1618.5	31.3544
1619	31.4408
1619.5	31.4172
1620	31.3146
1620.5	31.2196
1621	31.335
1621.5	31.9111
1622	32.9677
1622.5	34.3139
1623	35.5664
1623.5	36.2739
1624	36.2253
1624.5	35.5716
1625	34.6304
1625.5	33.8121
1626	33.4081
1626.5	33.5256
1627	33.9812
1627.5	34.391
1628	34.4405
1628.5	34.0703
1629	33.5016
1629.5	33.2182
1630	33.447
1630.5	33.9885
1631	34.3676
1631.5	34.0062
1632	32.6541
1632.5	30.8241
1633	29.2648
1633.5	28.7078
1634	29.468
1634.5	31.1139
1635	32.7644
1635.5	33.549
1636	33.042
1636.5	31.6511
1637	30.1395
1637.5	29.4064
1638	29.951
1638.5	31.3409
1639	32.8774
1639.5	33.8697
1640	33.9038
1640.5	33.3609
1641	32.9201
1641.5	33.0102
1642	33.6335
1642.5	34.2634
1643	34.2952
1643.5	33.6197
1644	32.6004
1644.5	31.79
1645	31.414
1645.5	31.3104
1646	31.1286
1646.5	30.8021
1647	30.6807
1647.5	31.1207
1648	32.2037
1648.5	33.5345
1649	34.3903
1649.5	34.438
1650	33.734
1650.5	32.6526
1651	31.7421
1651.5	31.4051
1652	31.7248
1652.5	32.5075
1653	33.2826
1653.5	33.6117
1654	33.3102
1654.5	32.6056
1655	32.038
1655.5	31.8092
1656	31.7144
1656.5	31.33
1657	30.3703
1657.5	29.2958
1658	28.7658
1658.5	29.1647
1659	30.3708
1659.5	31.6987
1660	32.5916
1660.5	32.9793
1661	33.1448
1661.5	33.3628
1662	33.6398
1662.5	33.8357
1663	33.8498
1663.5	33.8163
1664	33.8653
1664.5	33.9734
1665	33.977
1665.5	33.7091
1666	33.2663
1666.5	32.9107
1667	32.8475
1667.5	33.1168
1668	33.5453
1668.5	33.9787
1669	34.3267
1669.5	34.4877
1670	34.256
1670.5	33.4101
1671	31.9101
1671.5	30.1133
1672	28.8436
1672.5	28.5699
1673	29.21
1673.5	30.1937
1674	30.7949
1674.5	30.79
1675	30.5031
1675.5	30.3784
1676	30.5463
1676.5	30.816
1677	31.0687
1677.5	31.4304
1678	32.1394
1678.5	32.9431
1679	33.3101
1679.5	32.8371
1680	31.6629
1680.5	30.6675
1681	30.4589
1681.5	30.7762
1682	30.7723
1682.5	29.8703
1683	28.4685
1683.5	27.5982
1684	28.1489
1684.5	29.7205
1685	31.2186
1685.5	31.8654
1686	31.5737
1686.5	30.9788
1687	30.7004
1687.5	30.7496
1688	30.9163
1688.5	31.1623
1689	31.718
1689.5	32.7473
1690	34.0509
1690.5	35.0686
1691	35.4904
1691.5	35.4117
1692	35.0971
1692.5	34.7155
1693	34.1664
1693.5	33.3865
1694	32.5422
1694.5	31.9528
1695	31.8043
1695.5	31.8925
1696	31.8419
1696.5	31.4616
1697	31.0212
1697.5	31.0097
1698	31.7247
1698.5	33.0979
1699	34.6025
1699.5	35.4917
1700	35.4156
1700.5	34.425
1701	32.9365
1701.5	31.5898
1702	30.7994
1702.5	30.6806
1703	31.0369
1703.5	31.6177
1704	32.2578
1704.5	32.811
1705	33.0396
1705.5	32.5921
1706	31.4791
1706.5	30.0842
1707	29.0364
1707.5	28.9555
1708	29.828
1708.5	31.1762
1709	32.2573
1709.5	32.4993
1710	31.9433
1710.5	30.9079
1711	29.7925
1711.5	28.9358
1712	28.4713
1712.5	28.3354
1713	28.483
1713.5	28.9574
1714	29.8207
1714.5	30.9671
1715	32.0238
1715.5	32.3441
1716	31.5257
1716.5	29.9302
1717	28.3589
1717.5	27.6934
1718	28.4041
1718.5	29.9147
1719	31.3122
1719.5	32.0262
1720	32.0041
1720.5	31.6524
1721	31.245
1721.5	30.8512
1722	30.4877
1722.5	30.3446
1723	30.6086
1723.5	31.2355
1724	31.8822
1724.5	32.1281
1725	31.969
1725.5	31.8323
1726	32.1726
1726.5	32.9693
1727	33.6455
1727.5	33.5914
1728	32.5196
1728.5	30.748
1729	29.2342
1729.5	28.6932
1730	29.4287
1730.5	31.2278
1731	33.2093
1731.5	34.4606
1732	34.317
1732.5	32.8456
1733	30.9251
1733.5	29.442
1734	28.8764
1734.5	29.1675
1735	29.7477
1735.5	30.1237
1736	30.2694
1736.5	30.4845
1737	31.1198
1737.5	32.1818
1738	33.3778
1738.5	34.2373
1739	34.2181
1739.5	33.3703
1740	32.0111
1740.5	30.6157
1741	29.6649
1741.5	29.3524
1742	29.6319
1742.5	30.3422
1743	31.2371
1743.5	32.0366
1744	32.5153
1744.5	32.5846
1745	32.3577
1745.5	32.1158
1746	31.9499
1746.5	31.5988
1747	30.6974
1747.5	29.1922
1748	27.6155
1748.5	26.5731
1749	26.3252
1749.5	26.4652
1750	26.2492
1750.5	25.5888
1751	24.9766
1751.5	25.1469
1752	26.2302
1752.5	27.6932
1753	28.8177
1753.5	29.2983
1754	29.5294
1754.5	29.9348
1755	30.6025
1755.5	31.3115
1756	31.8031
1756.5	32.0939
1757	32.2927
1757.5	32.329
1758	31.9018
1758.5	30.923
1759	29.6591
1759.5	28.6326
1760	28.3608
1760.5	28.754
1761	29.3625
1761.5	29.8548
1762	30.2088
1762.5	30.6225
1763	31.102
1763.5	31.3403
1764	30.814
1764.5	29.4449
1765	27.8586
1765.5	26.8673
1766	27.0773
1766.5	28.3834
1767	29.9637
1767.5	30.9798
1768	30.9271
1768.5	30.0542
1769	29.0529
1769.5	28.4578
1770	28.5362
1770.5	29.2578
1771	30.2337
1771.5	31.0425
1772	31.3438
1772.5	31.0246
1773	30.3058
1773.5	29.4975
1774	28.8253
1774.5	28.3636
1775	28.0532
1775.5	27.8878
1776	27.959
1776.5	28.3463
1777	28.9342
1777.5	29.402
1778	29.445
1778.5	28.9286
1779	28.0267
1779.5	27.2571
1780	27.0679
1780.5	27.6611
1781	28.8938
1781.5	30.1862
1782	30.9933
1782.5	31.0311
1783	30.4429
1783.5	29.8618
1784	29.7384
1784.5	30.0746
1785	30.4544
1785.5	30.3006
1786	29.4098
1786.5	28.0151
1787	26.7038
1787.5	26.1692
1788	26.4803
1788.5	27.2417
1789	27.7972
1789.5	27.558
1790	26.66
1790.5	25.7349
1791	25.5578
1791.5	26.582
1792	28.1597
1792.5	29.4314
1793	29.8068
1793.5	29.2638
1794	28.4638
1794.5	28.0815
1795	28.4275
1795.5	29.3273
1796	30.118
1796.5	30.2895
1797	29.7196
1797.5	28.7445
1798	28.0926
1798.5	28.233
1799	28.9997
1799.5	29.6013
1800	29.1176
1800.5	27.832
1801	26.8453
1801.5	27.331
1802	29.6487
1802.5	32.4195
1803	33.8531
1803.5	32.8773
1804	30.0394
1804.5	27.4563
1805	26.525
1805.5	27.3316
1806	28.8158
1806.5	29.5598
1807	29.1763
1807.5	28.2841
1808	27.9957
1808.5	28.9466
1809	30.5632
1809.5	31.9157
1810	32.2803
1810.5	31.564
1811	30.548
1811.5	29.9576
1812	30.08
1812.5	30.5456
1813	30.6907
1813.5	30.3613
1814	29.8765
1814.5	29.7618
1815	30.2077
1815.5	30.8955
1816	31.3911
1816.5	31.4806
1817	31.3904
1817.5	31.3758
1818	31.4063
1818.5	31.3008
1819	31.0318
1819.5	30.892
1820	31.131
1820.5	31.6489
1821	31.8622
1821.5	31.3538
1822	30.3697
1822.5	29.5214
1823	29.3135
1823.5	29.5376
1824	29.6327
1824.5	29.2583
1825	28.6157
1825.5	28.3584
1826	28.7938
1826.5	29.7002
1827	30.6223
1827.5	31.195
1828	31.338
1828.5	31.0463
1829	30.3417
1829.5	29.4208
1830	28.7973
1830.5	28.9504
1831	29.889
1831.5	31.021
1832	31.5391
1832.5	31.1395
1833	30.0872
1833.5	29.02
1834	28.4395
1834.5	28.3815
1835	28.6465
1835.5	29.0262
1836	29.4388
1836.5	29.8591
1837	30.2694
1837.5	30.6813
1838	31.1368
1838.5	31.5945
1839	31.8634
1839.5	31.6375
1840	30.6715
1840.5	29.1528
1841	27.4348
1841.5	25.955
1842	25.195
1842.5	25.3888
1843	26.4906
1843.5	28.1018
1844	29.4618
1844.5	29.8323
1845	29.2411
1845.5	28.3104
1846	27.8779
1846.5	28.3195
1847	29.2329
1847.5	30.0074
1848	30.3007
1848.5	30.3643
1849	30.6551
1849.5	31.1632
1850	31.319
1850.5	30.4392
1851	28.724
1851.5	27.02
1852	26.3183
1852.5	27.1767
1853	28.974
1853.5	30.7022
1854	31.5819
1854.5	31.4231
1855	30.8035
1855.5	30.1755
1856	29.5962
1856.5	28.844
1857	27.808
1857.5	26.8068
1858	26.3557
1858.5	26.8161
1859	27.9765
1859.5	29.0484
1860	29.4114
1860.5	28.9722
1861	28.1176
1861.5	27.2885
1862	26.5035
1862.5	25.544
1863	24.3111
1863.5	23.2107
1864	22.8095
1864.5	23.4007
1865	24.7541
1865.5	26.1915
1866	27.3606
1866.5	28.2432
1867	28.9119
1867.5	29.2901
1868	29.2764
1868.5	29.0006
1869	28.8955
1869.5	29.4359
1870	30.4839
1870.5	31.4283
1871	31.6859
1871.5	31.1283
1872	30.2553
1872.5	29.4629
1873	28.839
1873.5	28.2176
1874	27.5364
1874.5	27.0064
1875	26.8886
1875.5	27.237
1876	27.7274
1876.5	28.0738
1877	28.2554
1877.5	28.448
1878	28.8164
1878.5	29.3211
1879	29.8299
1879.5	30.2279
1880	30.457
1880.5	30.4981
1881	30.3187
1881.5	29.9359
1882	29.4772
1882.5	29.0656
1883	28.6651
1883.5	28.1234
1884	27.3153
1884.5	26.4058
1885	25.7578
1885.5	25.7021
1886	26.3528
1886.5	27.4412
1887	28.584
1887.5	29.5419
1888	30.2538
1888.5	30.7272
1889	30.9049
1889.5	30.6529
1890	29.8963
1890.5	28.8146
1891	27.9293
1891.5	27.7586
1892	28.5409
1892.5	29.9592
1893	31.0577
1893.5	31.0976
1894	29.9869
1894.5	28.3551
1895	27.1871
1895.5	26.9258
1896	27.371
1896.5	27.8932
1897	27.938
1897.5	27.5021
1898	26.9011
1898.5	26.479
1899	26.3477
1899.5	26.3541
1900	26.3636
1900.5	26.3498
1901	26.3574
1901.5	26.3562
1902	26.1898
1902.5	25.653
1903	24.6495
1903.5	23.5216
1904	22.8647
1904.5	23.238
1905	24.8137
1905.5	26.8869
1906	28.447
1906.5	28.8588
1907	28.1213
1907.5	26.9435
1908	26.0938
1908.5	25.991
1909	26.6869
1909.5	27.8865
1910	29.0774
1910.5	29.772
1911	29.6315
1911.5	28.6925
1912	27.6193
1912.5	27.0773
1913	27.3214
1913.5	27.9998
1914	28.3655
1914.5	28.0296
1915	27.1369
1915.5	26.3103
1916	26.2377
1916.5	27.1217
1917	28.6793
1917.5	30.2399
1918	31.0378
1918.5	30.8017
1919	29.7887
1919.5	28.6508
1920	27.9908
1920.5	27.8454
1921	27.8935
1921.5	27.7782
1922	27.3802
1922.5	26.8891
1923	26.44
1923.5	26.0301
1924	25.6548
1924.5	25.559
1925	26.1161
1925.5	27.4622
1926	29.1558
1926.5	30.2381
1927	30.2078
1927.5	29.2876
1928	28.2709
1928.5	27.9279
1929	28.2546
1929.5	28.7584
1930	28.9167
1930.5	28.617
1931	28.2069
1931.5	27.9537
1932	27.8585
1932.5	27.7167
1933	27.4521
1933.5	27.1833
1934	26.9948
1934.5	26.7414
1935	26.1856
1935.5	25.384
1936	24.7756
1936.5	25.0474
1937	26.5231
1937.5	28.748
1938	30.7711
1938.5	31.5052
1939	30.4261
1939.5	28.1335
1940	25.7055
1940.5	24.185
1941	23.9972
1941.5	24.5084
1942	25.0573
1942.5	25.34
1943	25.4981
1943.5	25.7339
1944	25.9264
1944.5	25.7989
1945	25.2507
1945.5	24.646
1946	24.3921
1946.5	24.6059
1947	25.0874
1947.5	25.6014
1948	26.1905
1948.5	26.9537
1949	27.71
1949.5	27.897
1950	27.2517
1950.5	26.0701
1951	25.0311
1951.5	24.7006
1952	24.8846
1952.5	25.0794
1953	24.9517
1953.5	24.6971
1954	24.8987
1954.5	25.8699
1955	27.417
1955.5	28.8408
1956	29.3711
1956.5	28.7536
1957	27.2741
1957.5	25.6513
1958	24.6845
1958.5	24.6416
1959	25.3689
1959.5	26.4761
1960	27.529
1960.5	28.2476
1961	28.4821
1961.5	28.2243
1962	27.7164
1962.5	27.4145
1963	27.5888
1963.5	28.1362
1964	28.5802
1964.5	28.5767
1965	28.2854
1965.5	28.1303
1966	28.3459
1966.5	28.5424
1967	28.184
1967.5	27.1825
1968	26.0041
1968.5	25.2765
1969	25.1291
1969.5	25.3455
1970	25.6984
1970.5	26.1523
1971	26.6558
1971.5	26.9507
1972	26.7129
1972.5	25.8921
1973	24.9719
1973.5	24.3974
1974	24.3016
1974.5	24.5255
1975	24.9246
1975.5	25.5498
1976	26.3351
1976.5	26.835
1977	26.5602
1977.5	25.7353
1978	25.1396
1978.5	25.5164
1979	26.6772
1979.5	27.6694
1980	27.8535
1980.5	27.4169
1981	27.2654
1981.5	27.861
1982	28.8232
1982.5	29.3823
1983	29.0854
1983.5	28.4508
1984	28.17
1984.5	28.5582
1985	29.3157
1985.5	29.813
1986	29.782
1986.5	29.3594
1987	28.8969
1987.5	28.6198
1988	28.4435
1988.5	28.177
1989	27.7275
1989.5	27.2638
1990	27.0832
1990.5	27.3617
1991	28.0193
1991.5	28.6709
1992	28.8942
1992.5	28.4849
1993	27.514
1993.5	26.3317
1994	25.4369
1994.5	25.1643
1995	25.5931
1995.5	26.4993
1996	27.4034
1996.5	27.9682
1997	28.0871
1997.5	27.8594
1998	27.5355
1998.5	27.3691
1999	27.5774
1999.5	28.2673
2000	29.1995
2000.5	29.8451
2001	29.8184
2001.5	29.1724
2002	28.5075
2002.5	28.366
2003	28.6733
2003.5	28.8281
2004	28.1295
2004.5	26.7236
2005	25.3652
2005.5	24.8637
2006	25.579
2006.5	27.0081
2007	28.4644
2007.5	29.479
2008	29.8361
2008.5	29.5058
2009	28.5632
2009.5	27.263
2010	26.1621
2010.5	25.949
2011	26.7532
2011.5	28.1329
2012	29.3444
2012.5	29.8281
2013	29.7412
2013.5	29.4699
2014	29.258
2014.5	29.0576
2015	28.8001
2015.5	28.6467
2016	28.8547
2016.5	29.5461
2017	30.4992
2017.5	31.4271
2018	32.1159
2018.5	32.3335
2019	31.766
2019.5	30.2891
2020	28.2047
2020.5	26.3125
2021	25.5185
2021.5	25.8606
2022	26.6493
2022.5	26.9491
2023	26.2159
2023.5	24.8788
2024	23.6221
2024.5	22.9652
2025	23.089
2025.5	23.7842
2026	24.8443
2026.5	26.0673
2027	27.1684
2027.5	27.7855
2028	27.6816
2028.5	26.8709
2029	25.7185
2029.5	24.9309
2030	25.0444
2030.5	26.1429
2031	27.7836
2031.5	29.1588
2032	29.7946
2032.5	29.6739
2033	29.0075
2033.5	27.9474
2034	26.6307
2034.5	25.3449
2035	24.5786
2035.5	24.7403
2036	25.4433
2036.5	25.8948
2037	25.5684
2037.5	24.7529
2038	24.478
2038.5	25.2568
2039	26.6273
2039.5	27.4342
2040	26.8984
2040.5	25.5522
2041	24.496
2041.5	24.5657
2042	25.6255
2042.5	26.7724
2043	27.4006
2043.5	27.4357
2044	27.1449
2044.5	26.7129
2045	26.1085
2045.5	25.3883
2046	24.8764
2046.5	24.8681
2047	25.2519
2047.5	25.6076
2048	25.5421
2048.5	25.1583
2049	24.8671
2049.5	24.9129
2050	25.182
2050.5	25.3482
2051	25.3389
2051.5	25.3311
2052	25.4932
2052.5	25.7447
2053	25.8798
2053.5	25.8738
2054	25.8673
2054.5	25.9393
2055	25.9046
2055.5	25.5939
2056	25.0979
2056.5	24.7601
2057	24.7464
2057.5	24.8867
2058	25.0157
2058.5	25.3126
2059	26.2009
2059.5	27.6795
2060	29.2226
2060.5	30.1546
2061	30.3515
2061.5	30.3212
2062	30.3562
2062.5	30.1782
2063	29.216
2063.5	27.7057
2064	26.5658
2064.5	26.6348
2065	27.8288
2065.5	28.9249
2066	29.101
2066.5	28.4667
2067	27.8675
2067.5	27.8057
2068	27.8456
2068.5	27.2654
2069	25.8155
2069.5	24.24
2070	23.4493
2070.5	23.7372
2071	24.6343
2071.5	25.2838
2072	25.4098
2072.5	25.4129
2073	25.926
2073.5	27.1574
2074	28.4023
2074.5	28.7933
2075	27.9009
2075.5	26.0783
2076	24.3067
2076.5	23.1959
2077	22.8746
2077.5	23.1981
2078	23.9737
2078.5	25.0535
2079	26.1587
2079.5	26.8668
2080	26.9581
2080.5	26.6749
2081	26.4082
2081.5	26.4053
2082	26.6098
2082.5	26.8612
2083	27.1089
2083.5	27.32
2084	27.3396
2084.5	27.0814
2085	26.7534
2085.5	26.8022
2086	27.5679
2086.5	28.6409
2087	29.2697
2087.5	28.9473
2088	27.8362
2088.5	26.7735
2089	26.3302
2089.5	26.4862
2090	26.7865
2090.5	26.8447
2091	26.7659
2091.5	26.8373
2092	27.1521
2092.5	27.3687
2093	27.0708
2093.5	26.1911
2094	25.062
2094.5	24.2211
2095	23.9052
2095.5	24.079
2096	24.6678
2096.5	25.7123
2097	27.1036
2097.5	28.4265
2098	29.0793
2098.5	28.6133
2099	27.3303
2099.5	25.9683
2100	25.1077
2100.5	24.8719
2101	24.9055
2101.5	24.8994
2102	24.8662
2102.5	25.0146
2103	25.4681
2103.5	26.0146
2104	26.3239
2104.5	26.1669
2105	25.5998
2105.5	25.0297
2106	24.7996
2106.5	25.0138
2107	25.4824
2107.5	25.8923
2108	26.1517
2108.5	26.3397
2109	26.5035
2109.5	26.4583
2110	25.9732
2110.5	25.054
2111	24.0722
2111.5	23.6244
2112	23.9821
2112.5	24.9968
2113	26.1774
2113.5	26.8533
2114	26.6635
2114.5	25.6562
2115	24.2514
2115.5	23.0546
2116	22.3117
2116.5	21.8338
2117	21.3456
2117.5	20.9255
2118	21.0949
2118.5	22.1666
2119	23.8496
2119.5	25.3119
2120	25.9155
2120.5	25.8922
2121	25.8934
2121.5	26.3948
2122	27.2032
2122.5	27.7918
2123	27.9251
2123.5	27.7406
2124	27.5107
2124.5	27.3008
2125	27.0685
2125.5	26.8607
2126	26.8134
2126.5	26.8543
2127	26.7143
2127.5	26.198
2128	25.4608
2128.5	24.9675
2129	24.9038
2129.5	25.0159
2130	24.8177
2130.5	24.1716
2131	23.4959
2131.5	23.2714
2132	23.6224
2132.5	24.1343
2133	24.3761
2133.5	24.326
2134	24.2593
2134.5	24.3821
2135	24.5087
2135.5	24.3994
2136	24.0722
2136.5	23.8719
2137	24.018
2137.5	24.2929
2138	24.257
2138.5	23.6446
2139	22.8162
2139.5	22.39
2140	22.7782
2140.5	23.9523
2141	25.359
2141.5	26.377
2142	26.6206
2142.5	26.0204
2143	24.8902
2143.5	23.7474
2144	22.9913
2144.5	22.8557
2145	23.4187
2145.5	24.4609
2146	25.6038
2146.5	26.326
2147	26.176
2147.5	25.4299
2148	24.8348
2148.5	25.0089
2149	25.813
2149.5	26.239
2150	25.6711
2150.5	24.5221
2151	24.0547
2151.5	25.1497
2152	27.1046
2152.5	28.4551
2153	28.0902
2153.5	26.357
2154	24.767
2154.5	24.3403
2155	25.0687
2155.5	26.0359
2156	26.434
2156.5	26.2066
2157	25.7081
2157.5	25.253
2158	24.8226
2158.5	24.3355
2159	23.924
2159.5	23.9935
2160	24.8725
2160.5	26.4226
2161	28.0868
2161.5	29.0924
2162	29.0098
2162.5	28.2086
2163	27.361
2163.5	26.8906
2164	26.4459
2164.5	25.3332
2165	23.4936
2165.5	21.7802
2166	21.4889
2166.5	22.6411
2167	24.1391
2167.5	24.6841
2168	23.8056
2168.5	22.4439
2169	21.5099
2169.5	21.1656
2170	20.9745
2170.5	20.7814
2171	21.1368
2171.5	22.5828
2172	24.9243
2172.5	26.968
2173	27.693
2173.5	26.9545
2174	25.3669
2174.5	23.8083
2175	22.7508
2175.5	22.3343
2176	22.6021
2176.5	23.5083
2177	24.6019
2177.5	25.335
2178	25.3518
2178.5	24.7335
2179	24.0051
2179.5	23.5227
2180	23.3606
2180.5	23.4427
2181	23.6776
2181.5	23.9525
2182	24.0616
2182.5	23.7771
2183	23.1205
2183.5	22.4346
2184	22.0123
2184.5	21.8797
2185	21.8257
2185.5	21.8128
2186	22.1127
2186.5	22.9767
2187	24.1841
2187.5	24.9527
2188	24.7745
2188.5	23.8294
2189	22.9671
2189.5	22.9149
2190	23.5608
2190.5	24.3155
2191	24.7279
2191.5	24.9914
2192	25.4345
2192.5	25.9168
2193	25.8417
2193.5	24.8408
2194	23.5395
2194.5	22.9192
2195	23.5211
2195.5	24.8286
2196	25.7184
2196.5	25.7126
2197	25.1138
2197.5	24.5873
2198	24.3477
2198.5	24.1667
2199	23.8833
2199.5	23.6697
2200	23.7911
2200.5	24.2098
2201	24.6868
2201.5	24.9946
2202	25.0203
2202.5	24.6906
2203	24.0222
2203.5	23.3198
2204	23.1781
2204.5	23.8127
2205	24.8692
2205.5	25.7089
2206	25.9551
2206.5	25.9025
2207	25.8765
2207.5	25.9091
2208	25.8011
2208.5	25.5568
2209	25.3577
2209.5	25.2306
2210	24.9098
2210.5	24.2372
2211	23.5378
2211.5	23.2735
2212	23.5911
2212.5	24.1303
2213	24.5858
2213.5	25.0004
2214	25.4989
2214.5	25.832
2215	25.5285
2215.5	24.4978
2216	23.2784
2216.5	22.846
2217	23.5631
2217.5	25.0485
2218	26.5307
2218.5	27.2944
2219	27.2604
2219.5	26.7827
2220	26.3493
2220.5	26.3495
2221	26.8164
2221.5	27.4551
2222	27.8309
2222.5	27.4887
2223	26.2146
2223.5	24.2926
2224	22.3482
2224.5	21.1853
2225	21.3733
2225.5	22.5738
2226	23.992
2226.5	24.8285
2227	24.7834
2227.5	24.441
2228	24.4481
2228.5	25.0136
2229	25.693
2229.5	25.751
2230	24.9171
2230.5	23.505
2231	22.2348
2231.5	21.6902
2232	21.8852
2232.5	22.519
2233	23.2238
2233.5	23.7216
2234	23.8842
2234.5	23.7132
2235	23.424
2235.5	23.4441
2236	23.9026
2236.5	24.4328
2237	24.4766
2237.5	23.8329
2238	23.1904
2238.5	23.3223
2239	24.45
2239.5	25.9248
2240	26.6422
2240.5	26.0837
2241	24.4563
2241.5	22.5047
2242	21.0809
2242.5	20.57
2243	20.9587
2243.5	21.9657
2244	23.2647
2244.5	24.6671
2245	26.0245
2245.5	27.0684
2246	27.4097
2246.5	26.9861
2247	26.0451
2247.5	24.9768
2248	24.0412
2248.5	23.2123
2249	22.453
2249.5	21.8652
2250	21.6491
2250.5	21.8209
2251	22.2271
2251.5	22.7041
2252	23.1161
2252.5	23.3344
2253	23.2897
2253.5	23.0468
2254	22.8372
2254.5	22.9513
2255	23.4726
2255.5	24.32
2256	25.3088
2256.5	26.1251
2257	26.3745
2257.5	25.8008
2258	24.4993
2258.5	23.0392
2259	22.1106
2259.5	21.9102
2260	22.1569
2260.5	22.398
2261	22.5485
2261.5	22.9477
2262	23.892
2262.5	25.2224
2263	26.1642
2263.5	26.0536
2264	24.9102
2264.5	23.4218
2265	22.5371
2265.5	22.5484
2266	23.1209
2266.5	23.681
2267	23.842
2267.5	23.6763
2268	23.3513
2268.5	23.0093
2269	22.8692
2269.5	23.2194
2270	24.0614
2270.5	24.873
2271	24.7764
2271.5	23.5345
2272	22.0126
2272.5	21.4401
2273	22.4476
2273.5	24.144
2274	25.108
2274.5	24.8223
2275	23.9905
2275.5	23.8462
2276	24.4315
2276.5	24.8518
2277	24.4314
2277.5	23.6214
2278	23.5499
2278.5	24.5063
2279	25.751
2279.5	26.1703
2280	25.7194
2280.5	25.2312
2281	25.3942
2281.5	26.0563
2282	26.3316
2282.5	25.8109
2283	24.7173
2283.5	23.5639
2284	22.6853
2284.5	22.0638
2285	21.601
2285.5	21.2346
2286	20.9677
2286.5	20.8865
2287	21.1687
2287.5	21.9466
2288	23.1145
2288.5	24.2502
2289	25.02
2289.5	25.3351
2290	25.3598
2290.5	25.355
2291	25.4057
2291.5	25.4305
2292	25.218
2292.5	24.5687
2293	23.5401
2293.5	22.4722
2294	21.86
2294.5	21.9403
2295	22.3288
2295.5	22.4405
2296	21.9837
2296.5	21.4272
2297	21.6124
2297.5	22.8494
2298	24.6222
2298.5	25.828
2299	26.0549
2299.5	25.724
2300	25.4505
2300.5	25.2901
2301	24.5219
2301.5	22.6994
2302	20.3424
2302.5	18.949
2303	19.7632
2303.5	22.167
2304	24.3146
2304.5	24.4116
2305	22.3786
2305.5	20.1356
2306	19.5898
2306.5	21.3679
2307	24.1764
2307.5	26.0498
2308	26.26
2308.5	25.4507
2309	24.9116
2309.5	25.1363
2310	25.7572
2310.5	26.1752
2311	25.9934
2311.5	25.3287
2312	24.6012
2312.5	24.317
2313	24.8269
2313.5	25.7409
2314	26.1616
2314.5	25.5088
2315	24.0299
2315.5	22.8337
2316	22.6733
2316.5	23.3524
2317	24.0282
2317.5	23.9251
2318	23.2073
2318.5	22.5149
2319	22.3758
2319.5	22.9686
2320	24.0182
2320.5	25.2093
2321	26.2522
2321.5	26.8391
2322	26.7008
2322.5	25.7228
2323	24.1251
2323.5	22.5963
2324	21.9462
2324.5	22.3218
2325	23.223
2325.5	23.9416
2326	24.2872
2326.5	24.7312
2327	25.5142
2327.5	26.1424
2328	25.6273
2328.5	23.9404
2329	21.9365
2329.5	20.6391
2330	20.494
2330.5	20.9889
2331	21.6619
2331.5	22.4004
2332	23.2064
2332.5	23.7986
2333	23.9501
2333.5	23.8816
2334	24.2276
2334.5	25.3548
2335	26.7323
2335.5	27.449
2336	26.8771
2336.5	25.3468
2337	23.986
2337.5	23.547
2338	24.0728
2338.5	24.786
2339	24.7147
2339.5	23.5738
2340	21.9043
2340.5	20.8906
2341	21.2649
2341.5	22.7145
2342	24.4266
2342.5	25.5945
2343	25.9119
2343.5	25.4651
2344	24.4783
2344.5	23.4098
2345	23.0537
2345.5	23.7929
2346	25.2586
2346.5	26.5181
2347	26.7777
2347.5	26.3134
2348	25.8501
2348.5	25.8583
2349	26.0937
2349.5	25.9167
2350	25.1591
2350.5	24.1455
2351	23.4956
2351.5	23.6253
2352	24.4693
2352.5	25.507
2353	25.8693
2353.5	24.9703
2354	23.1976
2354.5	21.3737
2355	20.2472
2355.5	20.0169
2356	20.4702
2356.5	21.4669
2357	22.8253
2357.5	23.9726
2358	24.3354
2358.5	23.9584
2359	23.4518
2359.5	23.385
2360	23.4198
2360.5	22.9373
2361	21.8797
2361.5	21.1378
2362	21.5742
2362.5	23.0234
2363	24.7599
2363.5	26.1469
2364	27.0269
2364.5	27.3062
2365	26.6501
2365.5	24.7961
2366	22.3831
2366.5	20.5854
2367	20.1727
2367.5	21.0886
2368	22.4267
2368.5	23.2379
2369	23.2866
2369.5	22.965
2370	22.8892
2370.5	23.158
2371	23.4995
2371.5	23.7242
2372	23.9867
2372.5	24.4771
2373	24.8936
2373.5	24.6837
2374	23.7416
2374.5	22.8876
2375	22.939
2375.5	23.8737
2376	24.7879
2376.5	24.5989
2377	23.2474
2377.5	21.4728
2378	20.1365
2378.5	19.8363
2379	20.4417
2379.5	21.4066
2380	21.9683
2380.5	21.5254
2381	20.4951
2381.5	19.7629
2382	19.9924
2382.5	21.2662
2383	22.9836
2383.5	24.4855
2384	25.2252
2384.5	24.8141
2385	23.5999
2385.5	22.5016
2386	22.2504
2386.5	22.7513
2387	22.9426
2387.5	22.2028
2388	21.1512
2388.5	21.0309
2389	22.2989
2389.5	23.8055
2390	24.4582
2390.5	24.1494
2391	23.8284
2391.5	24.2664
2392	25.064
2392.5	25.3585
2393	24.5934
2393.5	23.1404
2394	21.8304
2394.5	21.4365
2395	22.3744
2395.5	24.0343
2396	25.2024
2396.5	25.1229
2397	24.1004
2397.5	23.4867
2398	24.0335
2398.5	25.1412
2399	25.5458
2399.5	24.7395
2400	23.7161
2400.5	23.408
2401	23.9242
2401.5	24.5895
2402	24.8549
2402.5	24.8543
2403	24.845
2403.5	24.8643
2404	24.8511
2404.5	24.8805
2405	24.9737
2405.5	24.839
2406	24.1003
2406.5	22.979
2407	22.1559
2407.5	22.2714
2408	23.2509
2408.5	24.1879
2409	24.3265
2409.5	23.6709
2410	23.0071
2410.5	23.0975
2411	23.9118
2411.5	24.7406
2412	24.6622
2412.5	23.6598
2413	22.5206
2413.5	22.0649
2414	22.6742
2414.5	23.9126
2415	24.9805
2415.5	25.1604
2416	24.1932
2416.5	22.6195
2417	21.4458
2417.5	21.3582
2418	22.2813
2418.5	23.2533
2419	23.3806
2419.5	22.6555
2420	21.6128
2420.5	20.821
2421	20.4281
2421.5	20.5045
2422	21.291
2422.5	22.9
2423	24.6506
2423.5	25.551
2424	25.1007
2424.5	23.8136
2425	22.9603
2425.5	22.98
2426	23.3128
2426.5	23.3059
2427	23.1527
2427.5	23.5113
2428	24.3674
2428.5	24.831
2429	24.1392
2429.5	22.9091
2430	22.0657
2430.5	21.868
2431	21.6603
2431.5	21.0027
2432	20.4614
2432.5	20.696
2433	21.5963
2433.5	22.2531
2434	22.2578
2434.5	21.9507
2435	21.8598
2435.5	21.8926
2436	21.7165
2436.5	21.4199
2437	21.507
2437.5	22.2597
2438	23.1164
2438.5	23.465
2439	23.2936
2439.5	23.3433
2440	24.1107
2440.5	25.1165
2441	25.247
2441.5	23.8417
2442	21.7901
2442.5	20.299
2443	19.8766
2443.5	19.9983
2444	19.8806
2444.5	19.6573
2445	19.8095
2445.5	20.3943
2446	20.8127
2446.5	20.7919
2447	20.7917
2447.5	21.405
2448	22.471
2448.5	23.189
2449	23.1138
2449.5	22.4827
2450	21.9887
2450.5	21.8665
2451	21.8878
2451.5	21.8121
2452	21.7424
2452.5	22.0517
2453	22.7786
2453.5	23.5006
2454	23.6528
2454.5	23.2534
2455	22.8712
2455.5	22.8881
2456	22.9217
2456.5	22.2326
2457	20.9371
2457.5	19.9193
2458	20.0603
2458.5	21.2792
2459	22.5402
2459.5	23.2841
2460	23.5128
2460.5	23.4055
2461	22.9523
2461.5	22.1166
2462	21.1517
2462.5	20.4976
2463	20.4224
2463.5	20.9948
2464	22.1878
2464.5	23.7132
2465	24.9341
2465.5	25.3982
2466	25.141
2466.5	24.6158
2467	24.2049
2467.5	23.756
2468	23.0602
2468.5	22.2502
2469	21.8282
2469.5	22.0076
2470	22.4556
2470.5	22.6166
2471	22.2602
2471.5	21.8587
2472	21.9458
2472.5	22.6333
2473	23.3846
2473.5	23.731
2474	23.8973
2474.5	24.4028
2475	25.3183
2475.5	25.7164
2476	24.9456
2476.5	23.4322
2477	22.4464
2477.5	22.8155
2478	23.6797
2478.5	23.6071
2479	21.9669
2479.5	19.5525
2480	17.7463
2480.5	17.1818
2481	17.5992
2481.5	18.3474
2482	19.0713
2482.5	19.7706
2483	20.5032
2483.5	21.2668
2484	22.0035
2484.5	22.6101
2485	22.9046
2485.5	22.706
2486	22.1734
2486.5	21.8195
2487	21.991
2487.5	22.5594
2488	22.9262
2488.5	22.741
2489	22.2195
2489.5	21.8204
2490	21.7602
2490.5	21.9119
2491	22.2621
2491.5	22.9972
2492	24.1885
2492.5	25.4107
2493	26.0919
2493.5	25.8293
2494	24.5581
2494.5	22.9209
2495	21.6794
2495.5	21.3843
2496	22.0188
2496.5	22.7742
2497	23.0198
2497.5	22.8992
2498	22.9603
2498.5	23.2999
2499	23.2114
2499.5	22.2063
2500	20.652
2500.5	19.5618
2501	19.4957
2501.5	20.4192
2502	22.0658
2502.5	24.1113
2503	25.7927
2503.5	26.1683
2504	24.8161
2504.5	22.673
2505	21.5519
2505.5	22.1322
2506	23.778
2506.5	25.1045
2507	25.2133
2507.5	24.4482
2508	23.4867
2508.5	22.9143
2509	22.9781
2509.5	23.4698
2510	24.0629
2510.5	24.5584
2511	25.035
2511.5	25.7217
2512	26.6297
2512.5	27.4818
2513	27.8675
2513.5	27.5773
2514	26.5725
2514.5	24.9607
2515	23.0386
2515.5	21.3245
2516	20.3591
2516.5	20.5921
2517	22.0871
2517.5	24.0591
2518	25.2883
2518.5	24.9525
2519	23.3092
2519.5	21.9809
2520	21.9299
2520.5	22.6263
2521	22.8675
2521.5	22.2356
2522	21.9393
2522.5	22.644
2523	23.7614
2523.5	24.0614
2524	23.4663
2524.5	22.8395
2525	22.4203
2525.5	21.5857
2526	20.1515
2526.5	19.1967
2527	19.6357
2527.5	21.094
2528	22.1916
2528.5	22.428
2529	22.3627
2529.5	22.5498
2530	22.8108
2530.5	22.8694
2531	22.855
2531.5	22.8709
2532	22.5622
2532.5	21.7908
2533	21.0337
2533.5	20.8813
2534	21.2212
2534.5	21.4881
2535	21.7082
2535.5	22.2678
2536	23.0883
2536.5	23.3895
2537	23.0696
2537.5	22.8608
2538	23.4386
2538.5	24.1018
2539	23.8375
2539.5	22.8628
2540	22.4541
2540.5	23.5387
2541	24.9008
2541.5	25.2386
2542	24.4197
2542.5	23.686
2543	23.9348
2543.5	24.592
2544	24.7184
2544.5	24.0192
2545	23.21
2545.5	22.7772
2546	22.5638
2546.5	22.2013
2547	21.6782
2547.5	21.2842
2548	21.2079
2548.5	21.5276
2549	22.2461
2549.5	23.0751
2550	23.4904
2550.5	23.1991
2551	22.601
2551.5	22.3999
2552	22.6593
2552.5	22.8726
2553	22.8182
2553.5	22.9697
2554	23.511
2554.5	23.8263
2555	23.2184
2555.5	22.213
2556	21.882
2556.5	22.5412
2557	23.2847
2557.5	23.2474
2558	22.5778
2558.5	21.7174
2559	20.7676
2559.5	19.7304
2560	19.1212
2560.5	19.5368
2561	20.9458
2561.5	22.535
2562	23.7244
2562.5	24.3924
2563	24.4324
2563.5	23.7359
2564	22.8072
2564.5	22.4144
2565	22.8467
2565.5	23.3439
2566	23.0703
2566.5	22.327
2567	21.9829
2567.5	22.4126
2568	22.7331
2568.5	22.2597
2569	21.3001
2569.5	20.9137
2570	21.6833
2570.5	22.8997
2571	23.6081
2571.5	23.3152
2572	22.4762
2572.5	21.8863
2573	21.7672
2573.5	21.8668
2574	21.8553
2574.5	21.9084
2575	22.4005
2575.5	23.4164
2576	24.4583
2576.5	24.7943
2577	24.2847
2577.5	23.3351
2578	22.6062
2578.5	22.3821
2579	22.3931
2579.5	22.359
2580	22.2708
2580.5	22.3969
2581	22.8152
2581.5	23.386
2582	23.936
2582.5	24.3676
2583	24.5602
2583.5	24.318
2584	23.6194
2584.5	22.8599
2585	22.4719
2585.5	22.3538
2586	22.1632
2586.5	21.8716
2587	21.9413
2587.5	22.3718
2588	22.5286
2588.5	21.7958
2589	20.8995
2589.5	20.9956
2590	22.1069
2590.5	22.8127
2591	21.7287
2591.5	19.8005
2592	18.7636
2592.5	19.4786
2593	20.8023
2593.5	21.2981
2594	21.0283
2594.5	20.8976
2595	21.3872
2595.5	21.8481
2596	21.7728
2596.5	21.3267
2597	21.1322
2597.5	21.4437
2598	21.9893
2598.5	22.3834
2599	22.4282
2599.5	22.3942
2600	22.7205
2600.5	23.4845
2601	24.0845
2601.5	23.6463
2602	22.2423
2602.5	20.6496
2603	19.6457
2603.5	19.3939
2604	19.7026
2604.5	20.6158
2605	21.9647
2605.5	22.9362
2606	22.8815
2606.5	22.2581
2607	22.1913
2607.5	23.2011
2608	24.4293
2608.5	24.766
2609	23.9217
2609.5	22.4702
2610	21.2682
2610.5	20.9342
2611	21.5853
2611.5	22.6589
2612	23.1214
2612.5	22.5725
2613	21.6942
2613.5	21.4192
2614	21.9517
2614.5	22.4747
2615	22.5065
2615.5	22.3214
2616	22.5042
2616.5	23.1757
2617	23.9609
2617.5	24.5589
2618	24.8493
2618.5	24.7647
2619	24.279
2619.5	23.4313
2620	22.3934
2620.5	21.4894
2621	20.9736
2621.5	20.9277
2622	21.2109
2622.5	21.4573
2623	21.4431
2623.5	21.2247
2624	20.9661
2624.5	20.7403
2625	20.4846
2625.5	20.1931
2626	20.1064
2626.5	20.233
2627	20.3139
2627.5	20.3833
2628	20.3429
2628.5	20.03
2629	19.2895
2629.5	17.9263
2630	16.8453
2630.5	15.7233
2631	15.6082
2631.5	15.9874
2632	17.1155
2632.5	18.2624
2633	19.2001
2633.5	19.1876
2634	18.6925
2634.5	17.844
2635	17.4485
2635.5	17.396
2636	17.9192
2636.5	18.4322
2637	18.8231
2637.5	18.541
2638	18.092
2638.5	17.5027
2639	17.7374
2639.5	18.4153
2640	19.8801
2640.5	21.4445
2641	22.9502
2641.5	23.7209
2642	24.0333
2642.5	23.9046
2643	23.1825
2643.5	22.189
2644	20.7017
2644.5	18.9893
2645	17.2544
2645.5	16.3966
2646	16.4169
2646.5	17.4042
2647	18.9633
2647.5	20.2224
2648	20.3956
2648.5	19.2695
2649	17.438
2649.5	15.1671
2650	13.5179
2650.5	12.6536
2651	13.2741
2651.5	14.3753
2652	16.1106
2652.5	17.4063
2653	18.4105
2653.5	17.8476
2654	16.9446
2654.5	15.5487
2655	14.7178
2655.5	14.2874
2656	14.9345
2656.5	15.7487
2657	16.6802
2657.5	16.9657
2658	17.087
2658.5	16.9547
2659	17.0993
2659.5	17.3827
2660	17.9521
2660.5	18.3437
2661	18.5921
2661.5	18.1793
2662	17.696
2662.5	17.1476
2663	17.1612
2663.5	17.4972
2664	18.6474
2664.5	19.8325
2665	21.0498
2665.5	21.7666
2666	22.2771
2666.5	22.4289
2667	22.193
2667.5	21.7198
2668	20.5532
2668.5	19.4322
2669	18.3595
2669.5	18.6494
2670	19.4453
2670.5	21.0926
2671	21.9485
2671.5	22.2861
2672	20.6945
2672.5	18.9472
2673	17.0116
2673.5	16.3678
2674	16.2691
2674.5	17.1561
2675	18.1778
2675.5	19.2606
2676	19.6897
2676.5	19.6475
2677	18.9515
2677.5	17.7302
2678	16.5668
2678.5	16.0968
2679	16.3791
2679.5	17.166
2680	17.6587
2680.5	17.7264
2681	17.1196
2681.5	16.7667
2682	16.6964
2682.5	17.6418
2683	18.4381
2683.5	19.1194
2684	18.3413
2684.5	17.434
2685	16.4061
2685.5	16.3745
2686	16.7249
2686.5	17.3264
2687	17.2643
2687.5	16.6162
2688	15.4414
2688.5	14.6175
2689	14.6408
2689.5	15.7393
2690	17.2712
2690.5	18.7659
2691	19.5997
2691.5	19.7653
2692	19.0562
2692.5	18.2225
2693	17.346
2693.5	16.6853
2694	16.1398
2694.5	15.7554
2695	15.5018
2695.5	15.3997
2696	15.7152
2696.5	16.1207
2697	16.587
2697.5	16.835
2698	16.9655
2698.5	17.1917
2699	17.6353
2699.5	18.3675
2700	19.0738
2700.5	19.6977
2701	20.0427
2701.5	20.5846
2702	21.2538
2702.5	22.3253
2703	23.0522
2703.5	23.2534
2704	22.2979
2704.5	20.9756
2705	19.3954
2705.5	18.3822
2706	17.7872
2706.5	17.88
2707	17.8265
2707.5	17.4759
2708	16.6835
2708.5	15.8521
2709	15.6187
2709.5	16.1199
2710	17.2425
2710.5	18.321
2711	18.938
2711.5	18.6169
2712	17.9864
2712.5	17.3594
2713	17.6819
2713.5	18.2741
2714	19.1276
2714.5	19.3207
2715	19.3031
2715.5	18.9538
2716	18.8345
2716.5	18.8307
2717	18.9524
2717.5	18.9842
2718	18.9164
2718.5	18.7781
2719	18.5471
2719.5	18.0837
2720	17.3426
2720.5	16.478
2721	16.0918
2721.5	16.2195
2722	17.0006
2722.5	18.1718
2723	19.3195
2723.5	20.1212
2724	20.6685
2724.5	21.0548
2725	21.0617
2725.5	20.8067
2726	20.1693
2726.5	19.3863
2727	18.6773
2727.5	18.4304
2728	18.49
2728.5	18.7661
2729	19.2372
2729.5	19.7743
2730	20.4158
2730.5	20.8012
2731	20.9911
2731.5	20.5614
2732	20.0802
2732.5	19.5573
2733	19.5004
2733.5	19.4685
2734	19.4333
2734.5	19.2275
2735	18.9973
2735.5	19.0322
2736	19.1646
2736.5	19.3875
2737	19.2665
2737.5	19.1164
2738	18.9756
2738.5	19.3063
2739	19.8428
2739.5	20.3998
2740	20.4273
2740.5	19.892
2741	18.6586
2741.5	17.5768
2742	17.1624
2742.5	17.7008
2743	18.7198
2743.5	19.7312
2744	20.1717
2744.5	19.917
2745	18.5946
2745.5	16.9312
2746	14.8054
2746.5	13.1713
2747	11.8789
2747.5	12.7863
2748	14.2285
2748.5	16.4179
2749	17.6273
2749.5	18.3045
2750	17.7971
2750.5	17.4927
2751	17.3254
2751.5	17.8191
2752	18.1791
2752.5	18.3132
2753	17.9796
2753.5	17.5201
2754	17.1032
2754.5	16.9686
2755	17.0531
2755.5	17.2768
2756	17.1695
2756.5	16.4349
2757	14.4204
2757.5	11.8299
2758	8.39563
2758.5	5.30117
2759	2.50893
2759.5	1.49841
2760	1.47786
2760.5	3.27824
2761	6.49408
2761.5	10.2843
2762	14.0164
2762.5	16.5209
2763	17.7753
2763.5	16.9597
2764	15.8947
2764.5	14.8546
2765	14.8539
2765.5	15.376
2766	16.2111
2766.5	16.754
2767	16.9564
2767.5	17.4615
2768	18.2198
2768.5	19.5892
2769	20.4488
2769.5	20.9683
2770	19.9581
2770.5	18.846
2771	17.5979
2771.5	17.0875
2772	16.8267
2772.5	16.8911
2773	16.8152
2773.5	16.6486
2774	16.2619
2774.5	15.8611
2775	15.4388
2775.5	15.1423
2776	14.9547
2776.5	15.1071
2777	15.5196
2777.5	16.1253
2778	16.9797
2778.5	17.7521
2779	18.3638
2779.5	18.3788
2780	18.1281
2780.5	17.467
2781	16.8827
2781.5	16.3637
2782	15.9985
2782.5	15.6933
2783	15.4892
2783.5	15.4818
2784	15.5136
2784.5	15.2513
2785	14.771
2785.5	14.0781
2786	14.3292
2786.5	15.0301
2787	16.5629
2787.5	17.6246
2788	18.3756
2788.5	18.0205
2789	17.6167
2789.5	17.1586
2790	16.7173
2790.5	16.2994
2791	15.941
2791.5	16.0848
2792	16.5057
2792.5	17.1184
2793	17.4606
2793.5	17.4565
2794	17.6327
2794.5	17.9848
2795	18.8175
2795.5	19.1966
2796	19.2806
2796.5	18.089
2797	16.95
2797.5	15.8884
2798	15.7147
2798.5	15.8394
2799	16.2759
2799.5	16.3774
2800	16.2406
2800.5	16.0323
2801	16.103
2801.5	16.6496
2802	17.11
2802.5	17.3358
2803	16.4489
2803.5	15.6369
2804	14.886
2804.5	15.9572
2805	17.3031
2805.5	18.9761
2806	19.1842
2806.5	18.7515
2807	17.6099
2807.5	17.2225
2808	17.5401
2808.5	18.3908
2809	18.759
2809.5	17.8982
2810	16.2843
2810.5	14.4441
2811	13.6356
2811.5	13.6501
2812	14.5452
2812.5	15.8493
2813	17.022
2813.5	17.6819
2814	17.6621
2814.5	17.2754
2815	16.5341
2815.5	16.0503
2816	15.8824
2816.5	16.2879
2817	16.8401
2817.5	17.5205
2818	17.8517
2818.5	17.9522
2819	16.9712
2819.5	15.7716
2820	14.2643
2820.5	13.6835
2821	13.635
2821.5	14.8245
2822	15.8978
2822.5	16.892
2823	16.2859
2823.5	15.3363
2824	13.8605
2824.5	13.368
2825	13.4475
2825.5	14.9434
2826	16.2615
2826.5	17.4406
2827	16.9541
2827.5	16.3287
2828	15.5913
2828.5	15.5692
2829	15.7598
2829.5	15.7095
2830	15.4214
2830.5	14.9203
2831	15.387
2831.5	16.1567
2832	17.4062
2832.5	18.0649
2833	18.4548
2833.5	18.6276
2834	18.9373
2834.5	19.3874
2835	18.8602
2835.5	17.9549
2836	16.3979
2836.5	15.5645
2837	15.162
2837.5	15.8799
2838	16.4432
2838.5	16.8248
2839	17.145
2839.5	17.6227
2840	18.6141
2840.5	19.2073
2841	19.5163
2841.5	18.0709
2842	16.3738
2842.5	14.3376
2843	13.4234
2843.5	13.0099
2844	13.5352
2844.5	14.1138
2845	14.7272
2845.5	15.3601
2846	16.066
2846.5	16.8851
2847	17.1383
2847.5	17.0443
2848	16.0662
2848.5	15.4272
2849	15.0417
2849.5	16.0581
2850	17.0951
2850.5	18.079
2851	18.2418
2851.5	18.1393
2852	18.0718
2852.5	18.3086
2853	18.8065
2853.5	18.3456
2854	17.278
2854.5	15.0956
2855	13.2046
2855.5	11.682
2856	12.1898
2856.5	13.3718
2857	15.2162
2857.5	16.0099
2858	16.2532
2858.5	15.4464
2859	14.8603
2859.5	14.4533
2860	14.9654
2860.5	15.307
2861	15.4569
2861.5	15.1048
2862	14.9007
2862.5	15.3529
2863	16.2117
2863.5	17.2401
2864	17.197
2864.5	16.8689
2865	16.1732
2865.5	16.1835
2866	16.3866
2866.5	16.7576
2867	16.5315
2867.5	15.9321
2868	15.1452
2868.5	14.6097
2869	14.4467
2869.5	14.2763
2870	14.0956
2870.5	13.8785
2871	14.0489
2871.5	14.4968
2872	15.2053
2872.5	15.7238
2873	15.9065
2873.5	15.9358
2874	15.9546
2874.5	16.1763
2875	16.2891
2875.5	16.3123
2876	15.6005
2876.5	14.6125
2877	13.1664
2877.5	12.0084
2878	11.183
2878.5	11.9793
2879	13.4425
2879.5	15.5335
2880	16.7343
2880.5	17.3139
2881	16.663
2881.5	15.8927
2882	15.1666
2882.5	15.4398
2883	15.918
2883.5	16.6171
2884	16.7149
2884.5	16.5031
2885	15.6808
2885.5	14.7629
2886	13.8356
2886.5	13.5969
2887	13.696
2887.5	14.2121
2888	14.643
2888.5	14.9359
2889	14.8298
2889.5	14.54
2890	14.136
2890.5	13.489
2891	12.758
2891.5	11.908
2892	11.4327
2892.5	11.2901
2893	12.1187
2893.5	13.5268
2894	15.332
2894.5	17.0487
2895	18.2951
2895.5	18.7757
2896	18.1389
2896.5	17.1563
2897	16.084
2897.5	15.5963
2898	15.5685
2898.5	16.1474
2899	16.7257
2899.5	17.2463
2900	17.6305
2900.5	17.9031
2901	17.7599
2901.5	17.1898
2902	16.2347
2902.5	15.2622
2903	14.6093
2903.5	14.6636
2904	15.0358
2904.5	15.476
2905	15.3255
2905.5	15.0722
2906	14.7127
2906.5	14.7973
2907	14.9034
2907.5	14.9166
2908	14.5983
2908.5	14.1488
2909	14.1419
2909.5	14.5172
2910	15.3442
2910.5	15.9729
2911	16.3511
2911.5	16.0628
2912	15.6004
2912.5	15.053
2913	14.9325
2913.5	15.0829
2914	15.6006
2914.5	16.428
2915	17.2137
2915.5	17.5856
2916	17.3644
2916.5	16.7546
2917	16.2474
2917.5	16.1667
2918	16.7511
2918.5	17.417
2919	17.8694
2919.5	17.2253
2920	16.1244
2920.5	14.6791
2921	14.1889
2921.5	14.2365
2922	15.1887
2922.5	16.2818
2923	17.2975
2923.5	17.5704
2924	17.4062
2924.5	16.8644
2925	16.3333
2925.5	15.9145
2926	15.7294
2926.5	15.4857
2927	15.1832
2927.5	14.5928
2928	14.1255
2928.5	13.78
2929	14.0567
2929.5	14.4916
2930	15.1379
2930.5	15.6246
2931	16.0218
2931.5	16.2324
2932	16.3452
2932.5	16.3471
2933	15.9612
2933.5	15.4495
2934	14.7522
2934.5	14.2672
2935	13.9173
2935.5	14.0302
2936	14.2609
2936.5	14.6447
2937	15.1796
2937.5	15.7321
2938	16.2362
2938.5	16.4293
2939	16.424
2939.5	15.9838
2940	15.6552
2940.5	15.4928
2941	15.6473
2941.5	15.8228
2942	15.734
2942.5	15.3151
2943	14.658
2943.5	14.1906
2944	14.0431
2944.5	14.4376
2945	15.1501
2945.5	15.9022
2946	16.3236
2946.5	16.4035
2947	16.2009
2947.5	15.8157
2948	15.5199
2948.5	15.4258
2949	15.6211
2949.5	15.9308
2950	16.2815
2950.5	16.4282
2951	16.3816
2951.5	15.9007
2952	15.3127
2952.5	14.5792
2953	13.941
2953.5	13.3725
2954	13.095
2954.5	12.9797
2955	13.0402
2955.5	13.2669
2956	13.5073
2956.5	13.7184
2957	13.8573
2957.5	13.9547
2958	13.9789
2958.5	13.9078
2959	13.7184
2959.5	13.1942
2960	12.5645
2960.5	11.799
2961	11.2858
2961.5	10.9371
2962	11.2911
2962.5	11.7757
2963	12.4465
2963.5	12.9272
2964	13.294
2964.5	13.3869
2965	13.4178
2965.5	13.4058
2966	13.4352
2966.5	13.4517
2967	13.446
2967.5	13.3546
2968	13.2247
2968.5	13.028
2969	12.8286
2969.5	12.6271
2970	12.4966
2970.5	12.4377
2971	12.5078
2971.5	12.8444
2972	13.3292
2972.5	14.1693
2973	15.075
2973.5	16.0402
2974	16.5777
2974.5	16.8297
2975	16.5336
2975.5	15.8946
2976	15.1269
2976.5	14.5047
2977	14.107
2977.5	13.9426
2978	13.957
2978.5	13.9711
2979	13.9226
2979.5	13.8742
2980	13.8349
2980.5	13.9317
2981	14.0615
2981.5	14.2304
2982	14.4112
2982.5	14.6296
2983	14.9585
2983.5	15.3395
2984	15.7375
2984.5	15.7132
2985	15.3871
2985.5	14.6486
2986	13.8134
2986.5	13.1315
2987	13.1111
2987.5	13.7008
2988	14.693
2988.5	15.8759
2989	16.7981
2989.5	17.3094
2990	17.1867
2990.5	16.813
2991	16.0895
2991.5	15.2919
2992	14.438
2992.5	13.7137
2993	13.1812
2993.5	12.9875
2994	13.3571
2994.5	13.9813
2995	15.0017
2995.5	15.931
2996	16.7811
2996.5	17.0436
2997	17.0421
2997.5	16.5792
2998	15.831
2998.5	14.9765
2999	14.1878
2999.5	13.6529
3000	13.371
3000.5	13.6214
3001	13.9978
3001.5	14.5301
3002	14.8574
3002.5	15.051
3003	14.7731
3003.5	14.3606
3004	13.7945
3004.5	13.3374
3005	13.0114
3005.5	13.0188
3006	13.3236
3006.5	13.7945
3007	14.3556
3007.5	14.7431
3008	14.9035
3008.5	14.6212
3009	14.2126
3009.5	13.6858
3010	13.3216
3010.5	13.0613
3011	12.9782
3011.5	12.8034
3012	12.4907
3012.5	11.9437
3013	11.3652
3013.5	10.9168
3014	10.796
3014.5	10.9132
3015	11.4239
3015.5	11.9065
3016	12.321
3016.5	12.4627
3017	12.501
3017.5	12.4466
3018	12.5617
3018.5	12.8181
3019	13.4708
3019.5	14.1662
3020	14.8956
3020.5	15.2426
3021	15.3528
3021.5	14.7784
3022	14.0059
3022.5	13.0442
3023	12.4143
3023.5	12.0694
3024	12.3129
3024.5	13.0063
3025	13.9039
3025.5	14.8388
3026	15.5525
3026.5	16.0244
3027	16.0172
3027.5	15.8659
3028	15.511
3028.5	15.2141
3029	14.9597
3029.5	14.933
3030	14.9239
3030.5	14.9371
3031	14.7163
3031.5	14.3869
3032	13.8465
3032.5	13.4031
3033	13.0269
3033.5	13.1549
3034	13.3999
3034.5	13.813
3035	13.9804
3035.5	13.9909
3036	13.6068
3036.5	13.2419
3037	12.8903
3037.5	13.1665
3038	13.6647
3038.5	14.5129
3039	15.2717
3039.5	15.9111
3040	16.0746
3040.5	15.977
3041	15.6709
3041.5	15.1242
3042	14.4892
3042.5	13.7093
3043	12.8702
3043.5	12.0663
3044	11.6445
3044.5	11.7019
3045	12.1977
3045.5	13.2848
3046	14.3216
3046.5	15.1242
3047	15.1796
3047.5	14.8553
3048	13.9376
3048.5	13.1744
3049	12.573
3049.5	12.5383
3050	12.6228
3050.5	12.8211
3051	12.8365
3051.5	12.7634
3052	12.7256
3052.5	12.9852
3053	13.6014
3053.5	14.6924
3054	15.7489
3054.5	16.4291
3055	16.3338
3055.5	15.7727
3056	14.5486
3056.5	13.5636
3057	12.9074
3057.5	13.249
3058	13.9559
3058.5	15.1883
3059	16.139
3059.5	16.9025
3060	16.6974
3060.5	16.3337
3061	15.7282
3061.5	15.3528
3062	15.1162
3062.5	15.2327
3063	15.3779
3063.5	15.545
3064	15.4031
3064.5	15.1349
3065	14.659
3065.5	14.1818
3066	13.7376
3066.5	13.5
3067	13.4249
3067.5	13.4923
3068	13.7619
3068.5	14.0639
3069	14.4006
3069.5	14.6659
3070	14.8916
3070.5	15.0263
3071	15.163
3071.5	15.3018
3072	15.5014
3072.5	15.6984
3073	15.8709
3073.5	15.8665
3074	15.7559
3074.5	15.3546
3075	14.8812
3075.5	14.3247
3076	13.8216
3076.5	13.3712
3077	13.0511
3077.5	12.8454
3078	12.7109
3078.5	12.7839
3079	12.9864
3079.5	13.3594
3080	13.9312
3080.5	14.5204
3081	15.0202
3081.5	15.1859
3082	15.1364
3082.5	14.513
3083	13.8289
3083.5	13.0528
3084	12.6627
3084.5	12.5245
3085	13.0502
3085.5	13.8471
3086	14.8423
3086.5	15.7434
3087	16.4552
3087.5	16.8416
3088	16.8829
3088.5	16.8111
3089	16.7249
3089.5	16.7882
3090	16.9769
3090.5	17.3725
3091	17.7042
3091.5	17.8781
3092	17.5983
3092.5	17.0717
3093	15.9888
3093.5	14.8156
3094	13.5557
3094.5	12.807
3095	12.3809
3095.5	12.5909
3096	13.2945
3096.5	14.2263
3097	15.2261
3097.5	15.962
3098	16.4075
3098.5	16.3263
3099	16.1085
3099.5	15.7298
3100	15.5724
3100.5	15.5494
3101	15.8825
3101.5	16.1829
3102	16.4421
3102.5	16.0216
3103	15.2073
3103.5	13.5164
3104	11.3398
3104.5	8.86791
3105	6.38433
3105.5	4.28625
3106	2.74635
3106.5	2.27729
3107	2.32866
3107.5	3.43548
3108	5.11002
3108.5	7.18201
3109	9.52764
3109.5	11.7972
3110	13.9313
3110.5	15.5254
3111	16.8184
3111.5	17.3945
3112	17.5547
3112.5	17.3805
3113	16.8001
3113.5	16.231
3114	15.7274
3114.5	15.5122
3115	15.4553
3115.5	15.7674
3116	16.1282
3116.5	16.5339
3117	16.774
3117.5	16.9293
3118	16.9286
3118.5	16.9844
3119	17.0972
3119.5	17.5283
3120	18.1485
3120.5	18.9678
3121	19.7629
3121.5	20.4361
3122	20.7937
3122.5	20.7073
3123	20.3781
3123.5	19.7258
3124	19.0848
3124.5	18.4575
3125	18.0514
3125.5	17.7078
3126	17.4351
3126.5	17.0777
3127	16.6661
3127.5	16.0621
3128	15.4823
3128.5	14.9358
3129	14.7064
3129.5	14.6592
3130	15.0329
3130.5	15.6209
3131	16.3526
3131.5	17.1684
3132	17.9211
3132.5	18.5722
3133	19.0097
3133.5	19.3232
3134	19.3313
3134.5	19.1321
3135	18.7733
3135.5	18.0741
3136	17.3192
3136.5	16.4892
3137	15.7899
3137.5	15.1995
3138	15.0087
3138.5	15.0176
3139	15.2028
3139.5	15.5729
3140	15.972
3140.5	16.4009
3141	16.9342
3141.5	17.566
3142	18.6799
3142.5	20.1244
3143	21.9029
3143.5	24.1776
3144	26.513
3144.5	28.8477
3145	30.8604
3145.5	32.6663
3146	33.7686
3146.5	34.6432
3147	35.2542
3147.5	35.6104
3148	35.8524
3148.5	35.8797
3149	35.5288
3149.5	34.9333
3150	33.4142
3150.5	31.5471
3151	29.2186
3151.5	26.6326
3152	24.0943
3152.5	21.9291
3153	20.4017
3153.5	19.2855
3154	19.0957
3154.5	19.087
3155	19.3546
3155.5	19.4735
3156	19.4644
3156.5	19.0602
3157	18.3801
3157.5	17.4968
3158	16.5094
3158.5	15.6049
3159	14.8521
3159.5	14.3692
3160	14.0244
3160.5	13.9694
3161	14.0035
3161.5	14.1129
3162	14.2732
3162.5	14.4466
3163	14.6395
3163.5	14.8704
3164	15.1192
3164.5	15.3926
3165	15.6174
3165.5	15.7951
3166	15.6897
3166.5	15.4554
3167	14.9864
3167.5	14.3705
3168	13.7013
3168.5	13.1845
3169	12.9379
3169.5	12.9909
3170	13.5452
3170.5	14.2703
3171	15.2628
3171.5	16.1538
3172	16.965
3172.5	17.2472
3173	17.283
3173.5	17.0057
3174	16.4888
3174.5	15.9576
3175	15.5407
3175.5	15.3591
3176	15.3254
3176.5	15.5615
3177	15.778
3177.5	15.966
3178	15.8476
3178.5	15.563
3179	14.9035
3179.5	14.1038
3180	13.2053
3180.5	12.4344
3181	11.8295
3181.5	11.4993
3182	11.523
3182.5	11.6872
3183	12.023
3183.5	12.291
3184	12.5042
3184.5	12.4403
3185	12.3052
3185.5	12.0618
3186	11.96
3186.5	11.9725
3187	12.4211
3187.5	13.1155
3188	14.0381
3188.5	15.1101
3189	16.1031
3189.5	16.8838
3190	17.214
3190.5	17.3018
3191	16.9158
3191.5	16.4154
3192	15.7934
3192.5	15.3009
3193	14.924
3193.5	14.8094
3194	14.8306
3194.5	14.919
3195	14.9861
3195.5	14.9664
3196	14.8411
3196.5	14.5245
3197	14.1558
3197.5	13.7331
3198	13.3781
3198.5	13.068
3199	12.9665
3199.5	12.9665
3200	13.1081
3200.5	13.4393
3201	13.8518
3201.5	14.4091
3202	15.0519
3202.5	15.7522
3203	16.4698
3203.5	17.1176
3204	17.6529
3204.5	17.942
3205	18.0842
3205.5	17.8551
3206	17.4477
3206.5	16.902
3207	16.2835
3207.5	15.7361
3208	15.3271
3208.5	15.1895
3209	15.1969
3209.5	15.5284
3210	15.9241
3210.5	16.3768
3211	16.6926
3211.5	16.9079
3212	16.9307
3212.5	16.7517
3213	16.4778
3213.5	16.0979
3214	15.7513
3214.5	15.4385
3215	15.2949
3215.5	15.217
3216	15.2524
3216.5	15.3552
3217	15.4908
3217.5	15.6329
3218	15.7556
3218.5	15.8557
3219	15.8969
3219.5	15.9079
3220	15.8576
3220.5	15.7307
3221	15.558
3221.5	15.3029
3222	15.0407
3222.5	14.769
3223	14.5865
3223.5	14.4687
3224	14.5167
3224.5	14.7349
3225	15.063
3225.5	15.5457
3226	16.0224
3226.5	16.4896
3227	16.7903
3227.5	16.9884
3228	16.925
3228.5	16.6537
3229	16.2282
3229.5	15.6286
3230	15.0288
3230.5	14.4388
3231	14.0161
3231.5	13.6948
3232	13.6443
3232.5	13.7906
3233	14.1041
3233.5	14.5725
3234	15.0428
3234.5	15.4944
3235	15.7819
3235.5	15.9726
3236	15.9056
3236.5	15.6898
3237	15.3291
3237.5	14.8633
3238	14.3998
3238.5	13.9703
3239	13.6849
3239.5	13.4843
3240	13.5035
3240.5	13.6393
3241	13.9053
3241.5	14.3279
3242	14.7983
3242.5	15.3356
3243	15.8854
3243.5	16.4397
3244	16.9456
3244.5	17.4079
3245	17.8144
3245.5	18.0845
3246	18.2919
3246.5	18.3786
3247	18.3666
3247.5	18.292
3248	18.0782
3248.5	17.834
3249	17.5451
3249.5	17.245
3250	16.9544
3250.5	16.7165
3251	16.5501
3251.5	16.4345
3252	16.4947
3252.5	16.6179
3253	16.841
3253.5	17.1305
3254	17.4363
3254.5	17.7198
3255	17.9218
3255.5	18.0574
3256	17.9845
3256.5	17.8046
3257	17.4388
3257.5	16.9376
3258	16.3764
3258.5	15.7438
3259	15.1379
3259.5	14.5571
3260	14.1097
3260.5	13.7349
3261	13.4968
3261.5	13.4362
3262	13.4711
3262.5	13.6899
3263	13.9855
3263.5	14.3634
3264	14.8078
3264.5	15.2379
3265	15.6039
3265.5	15.806
3266	15.8994
3266.5	15.5629
3267	15.0387
3267.5	14.2845
3268	13.3007
3268.5	12.2767
3269	11.2619
3269.5	10.4513
3270	9.77164
3270.5	9.55742
3271	9.55322
3271.5	9.84424
3272	10.3606
3272.5	10.9381
3273	11.5468
3273.5	12.0941
3274	12.5997
3274.5	12.9963
3275	13.3772
3275.5	13.7346
3276	14.0649
3276.5	14.3546
3277	14.483
3277.5	14.3884
3278	14.1199
3278.5	13.3222
3279	12.2871
3279.5	10.8543
3280	9.2453
3280.5	7.59357
3281	6.06222
3281.5	4.80317
3282	3.78773
3282.5	3.32011
3283	3.01824
3283.5	2.97555
3284	2.98873
3284.5	3.00214
3285	2.8115
3285.5	2.48577
3286	2.02167
3286.5	1.42504
3287	0.84508
3287.5	0.35107
3288	0.10059
3288.5	0
3289	0.34455
3289.5	0.93209
3290	1.80463
3290.5	3.10722
3291	4.56513
3291.5	6.27185
3292	8.09167
3292.5	9.97289
3293	11.7893
3293.5	13.454
3294	14.9145
3294.5	15.9062
3295	16.645
3295.5	16.8303
3296	16.58
3296.5	16.0465
3297	15.1507
3297.5	14.2374
3298	13.2974
3298.5	12.5842
3299	12.0209
3299.5	11.8614
3300	11.9502
3300.5	12.2248
3301	12.7671
3301.5	13.3327
3302	13.9228
3302.5	14.3769
3303	14.7502
3303.5	14.9118
3304	14.9712
3304.5	14.9429
3305	14.8996
3305.5	14.9127
3306	15.0453
3306.5	15.3609
3307	15.7704
3307.5	16.357
3308	16.9345
3308.5	17.503
3309	17.8223
3309.5	17.9889
3310	17.8528
3310.5	17.4246
3311	16.8414
3311.5	16.0177
3312	15.2225
3312.5	14.4594
3313	13.9197
3313.5	13.4972
3314	13.3113
3314.5	13.2789
3315	13.3291
3315.5	13.3839
3316	13.3848
3316.5	13.3165
3317	13.1339
3317.5	12.9212
3318	12.6853
3318.5	12.5216
3319	12.4046
3319.5	12.4536
3320	12.5466
3320.5	12.7046
3321	12.8271
3321.5	12.9069
3322	12.8436
3322.5	12.6791
3323	12.4422
3323.5	12.1546
3324	11.9246
3324.5	11.7948
3325	11.9302
3325.5	12.2011
3326	12.7586
3326.5	13.4309
3327	14.1975
3327.5	14.9543
3328	15.6134
3328.5	16.0802
3329	16.2736
3329.5	16.3229
3330	16.069
3330.5	15.7028
3331	15.2312
3331.5	14.7172
3332	14.2292
3332.5	13.8113
3333	13.4901
3333.5	13.221
3334	13.0524
3334.5	12.909
3335	12.7927
3335.5	12.6843
3336	12.5826
3336.5	12.4958
3337	12.4616
3337.5	12.4627
3338	12.6068
3338.5	12.8415
3339	13.1881
3339.5	13.7038
3340	14.2719
3340.5	14.9069
3341	15.521
3341.5	16.1196
3342	16.5758
3342.5	16.9401
3343	17.1744
3343.5	17.2271
3344	17.21
3344.5	17.0876
3345	16.9404
3345.5	16.7763
3346	16.6427
3346.5	16.5343
3347	16.4661
3347.5	16.433
3348	16.4086
3348.5	16.3759
3349	16.3123
3349.5	16.2245
3350	16.0657
3350.5	15.883
3351	15.662
3351.5	15.4392
3352	15.225
3352.5	15.0699
3353	14.9787
3353.5	14.945
3354	15.0443
3354.5	15.1947
3355	15.4318
3355.5	15.7133
3356	16.0087
3356.5	16.2624
3357	16.45
3357.5	16.5692
3358	16.5227
3358.5	16.4033
3359	16.1505
3359.5	15.8106
3360	15.4268
3360.5	15.0203
3361	14.6434
3361.5	14.3013
3362	14.0449
3362.5	13.8244
3363	13.6689
3363.5	13.5389
3364	13.4232
3364.5	13.3041
3365	13.1848
3365.5	13.0654
3366	12.9884
3366.5	12.946
3367	12.9977
3367.5	13.1447
3368	13.354
3368.5	13.6945
3369	14.0422
3369.5	14.4008
3370	14.6448
3370.5	14.8101
3371	14.7564
3371.5	14.5271
3372	14.1657
3372.5	13.5628
3373	12.9111
3373.5	12.1876
3374	11.5277
3374.5	10.9232
3375	10.5223
3375.5	10.2853
3376	10.1898
3376.5	10.3765
3377	10.6653
3377.5	11.1235
3378	11.7069
3378.5	12.3507
3379	13.0828
3379.5	13.8236
3380	14.5729
3380.5	15.2705
3381	15.9241
3381.5	16.4842
3382	16.9066
3382.5	17.2458
3383	17.3536
3383.5	17.341
3384	17.1922
3384.5	16.8558
3385	16.4686
3385.5	16.0209
3386	15.6027
3386.5	15.2066
3387	14.9518
3387.5	14.7818
3388	14.7216
3388.5	14.8045
3389	14.937
3389.5	15.1398
3390	15.3194
3390.5	15.4833
3391	15.5072
3391.5	15.457
3392	15.2962
3392.5	15.0069
3393	14.6694
3393.5	14.2666
3394	13.8833
3394.5	13.5138
3395	13.284
3395.5	13.1438
3396	13.1513
3396.5	13.3304
3397	13.5876
3397.5	13.9773
3398	14.3967
3398.5	14.8407
3399	15.2296
3399.5	15.5637
3400	15.7958
3400.5	15.8765
3401	15.8744
3401.5	15.6823
3402	15.3958
3402.5	15.0199
3403	14.5649
3403.5	14.1017
3404	13.6387
3404.5	13.2327
3405	12.8646
3405.5	12.6305
3406	12.4858
3406.5	12.4378
3407	12.5631
3407.5	12.7629
3408	13.099
3408.5	13.5428
3409	14.0472
3409.5	14.6449
3410	15.2603
3410.5	15.8975
3411	16.5109
3411.5	17.0951
3412	17.5977
3412.5	17.982
3413	18.2905
3413.5	18.3405
3414	18.2643
3414.5	18.0081
3415	17.5139
3415.5	16.9229
3416	16.1732
3416.5	15.418
3417	14.659
3417.5	14.0764
3418	13.62
3418.5	13.3666
3419	13.403
3419.5	13.5743
3420	13.9946
3420.5	14.477
3421	15.0086
3421.5	15.4244
3422	15.7263
3422.5	15.8228
3423	15.6189
3423.5	15.272
3424	14.6847
3424.5	14.0705
3425	13.4318
3425.5	12.9659
3426	12.6246
3426.5	12.5256
3427	12.6908
3427.5	12.9919
3428	13.5242
3428.5	14.0808
3429	14.6625
3429.5	15.1054
3430	15.4516
3430.5	15.5933
3431	15.5346
3431.5	15.3655
3432	15.0215
3432.5	14.6555
3433	14.2632
3433.5	13.9045
3434	13.565
3434.5	13.267
3435	12.9776
3435.5	12.692
3436	12.3707
3436.5	12.0309
3437	11.6656
3437.5	11.3136
3438	10.9909
3438.5	10.768
3439	10.686
3439.5	10.697
3440	10.9898
3440.5	11.3732
3441	11.8969
3441.5	12.4746
3442	13.0513
3442.5	13.5531
3443	13.9432
3443.5	14.2488
3444	14.3608
3444.5	14.4268
3445	14.4233
3445.5	14.4471
3446	14.5025
3446.5	14.6943
3447	14.9913
3447.5	15.3796
3448	15.8829
3448.5	16.3833
3449	16.8592
3449.5	17.1767
3450	17.3914
3450.5	17.2791
3451	16.9636
3451.5	16.4458
3452	15.6678
3452.5	14.8263
3453	13.9037
3453.5	13.0396
3454	12.2216
3454.5	11.6369
3455	11.2148
3455.5	10.9779
3456	11.0535
3456.5	11.2582
3457	11.6938
3457.5	12.2659
3458	12.9161
3458.5	13.6548
3459	14.3818
3459.5	15.0936
3460	15.6961
3460.5	16.2291
3461	16.5965
3461.5	16.8053
3462	16.9126
3462.5	16.7588
3463	16.5122
3463.5	16.1264
3464	15.6285
3464.5	15.092
3465	14.515
3465.5	13.9581
3466	13.4157
3466.5	12.9658
3467	12.5638
3467.5	12.2403
3468	12.0119
3468.5	11.8305
3469	11.7429
3469.5	11.7058
3470	11.7107
3470.5	11.7879
3471	11.8905
3471.5	12.0345
3472	12.2071
3472.5	12.3906
3473	12.5753
3473.5	12.7329
3474	12.8649
3474.5	12.8952
3475	12.8675
3475.5	12.7285
3476	12.471
3476.5	12.149
3477	11.7017
3477.5	11.2274
3478	10.7236
3478.5	10.2691
3479	9.86747
3479.5	9.59268
3480	9.48072
3480.5	9.46725
3481	9.71003
3481.5	10.0565
3482	10.5326
3482.5	11.1332
3483	11.7669
3483.5	12.4305
3484	13.052
3484.5	13.6456
3485	14.0946
3485.5	14.4672
3486	14.7301
3486.5	14.8447
3487	14.8932
3487.5	14.8195
3488	14.6835
3488.5	14.5043
3489	14.2658
3489.5	14.0168
3490	13.7521
3490.5	13.4861
3491	13.2226
3491.5	12.9738
3492	12.7472
3492.5	12.5385
3493	12.3971
3493.5	12.2958
3494	12.2645
3494.5	12.3323
3495	12.4537
3495.5	12.6967
3496	12.9967
3496.5	13.3487
3497	13.738
3497.5	14.1149
3498	14.4564
3498.5	14.6991
3499	14.8809
3499.5	14.8842
3500	14.7905
