#Imported=	16.12.2021 13:56:07
50	0.26103
50.5	0.10515
51	0
51.5	0.03837
52	0.23296
52.5	0.57019
53	1.02045
53.5	1.51679
54	2.04909
54.5	2.68464
55	3.4852
55.5	4.47744
56	5.62764
56.5	6.7462
57	7.56645
57.5	7.81168
58	7.5551
58.5	7.02002
59	6.60961
59.5	6.75864
60	7.78269
60.5	9.76232
61	12.2161
61.5	14.7157
62	16.8769
62.5	18.5844
63	19.9731
63.5	21.3748
64	23.0645
64.5	25.0714
65	27.3186
65.5	29.6398
66	31.9809
66.5	34.5752
67	37.7981
67.5	41.9019
68	47.1556
68.5	53.5101
69	60.7935
69.5	69.1498
70	78.7723
70.5	89.7262
71	102.087
71.5	115.198
72	127.831
72.5	138.014
73	143.18
73.5	143.02
74	137.216
74.5	127.046
75	114.821
75.5	102.634
76	92.6625
76.5	85.4641
77	80.8481
77.5	77.9995
78	75.8259
78.5	73.6459
79	71.0766
79.5	68.2558
80	65.5413
80.5	63.2943
81	61.6587
81.5	60.7249
82	60.4578
82.5	60.6029
83	60.901
83.5	61.0768
84	60.9609
84.5	60.4497
85	59.5359
85.5	58.4156
86	57.3163
86.5	56.452
87	55.8368
87.5	55.3889
88	54.8928
88.5	54.1094
89	52.809
89.5	50.9683
90	48.8936
90.5	46.9219
91	45.5754
91.5	45.1484
92	45.9013
92.5	47.9182
93	50.4818
93.5	53.0398
94	54.8415
94.5	55.5337
95	54.9573
95.5	53.0994
96	50.8419
96.5	48.7621
97	47.4529
97.5	46.9806
98	47.2633
98.5	48.096
99	49.0401
99.5	49.9298
100	50.8066
100.5	51.8244
101	53.1071
101.5	54.7294
102	56.4706
102.5	58.0238
103	59.0317
103.5	59.4658
104	59.4434
104.5	59.252
105	59.357
105.5	60.1759
106	62.0227
106.5	64.6933
107	67.9105
107.5	71.302
108	74.4172
108.5	76.9365
109	78.5953
109.5	79.6593
110	80.4331
110.5	81.2723
111	82.4743
111.5	84.1445
112	86.2587
112.5	88.4526
113	90.4283
113.5	91.9823
114	93.1804
114.5	94.2436
115	95.4847
115.5	97.1546
116	99.1747
116.5	101.258
117	102.994
117.5	104.098
118	104.346
118.5	103.863
119	103.021
119.5	102.223
120	101.733
120.5	101.594
121	101.764
121.5	102.072
122	102.344
122.5	102.451
123	102.348
123.5	102.05
124	101.56
124.5	100.929
125	100.253
125.5	99.6637
126	99.3022
126.5	99.1815
127	99.2724
127.5	99.4631
128	99.625
128.5	99.6737
129	99.5874
129.5	99.4303
130	99.2292
130.5	98.9569
131	98.5739
131.5	98.0531
132	97.46
132.5	96.9974
133	96.8883
133.5	97.2424
134	97.874
134.5	98.4961
135	98.6871
135.5	98.2447
136	97.1697
136.5	95.9495
137	95.1609
137.5	95.2057
138	96.2869
138.5	97.9746
139	99.7463
139.5	100.78
140	100.868
140.5	100.088
141	98.7737
141.5	97.5006
142	96.6351
142.5	96.4597
143	96.8145
143.5	97.5071
144	98.5027
144.5	99.8494
145	101.733
145.5	104.476
146	107.964
146.5	111.931
147	115.707
147.5	118.698
148	120.512
148.5	120.733
149	119.785
149.5	118.047
150	116.025
150.5	114.221
151	112.768
151.5	111.675
152	110.736
152.5	109.801
153	108.762
153.5	107.658
154	106.599
154.5	105.723
155	105.069
155.5	104.629
156	104.382
156.5	104.246
157	104.188
157.5	104.242
158	104.456
158.5	104.882
159	105.577
159.5	106.469
160	107.432
160.5	108.24
161	108.716
161.5	108.848
162	108.735
162.5	108.688
163	109.026
163.5	110.14
164	112.183
164.5	115.03
165	118.506
165.5	122.411
166	126.709
166.5	131.666
167	137.653
167.5	145.095
168	154.697
168.5	166.664
169	181.003
169.5	198.062
170	217.654
170.5	239.087
171	261.367
171.5	282.216
172	299.372
172.5	310.045
173	312.333
173.5	306.387
174	292.161
174.5	271.507
175	247.664
175.5	223.552
176	201.54
176.5	182.562
177	167.199
177.5	155.309
178	145.956
178.5	138.779
179	133.34
179.5	129.156
180	126.218
180.5	124.496
181	123.674
181.5	123.516
182	123.635
182.5	123.589
183	123.13
183.5	122.19
184	120.961
184.5	119.632
185	118.41
185.5	117.37
186	116.496
186.5	115.712
187	115.018
187.5	114.545
188	114.559
188.5	115.156
189	116.372
189.5	118.074
190	119.826
190.5	121.35
191	122.575
191.5	123.794
192	125.417
192.5	128.103
193	132.067
193.5	137.505
194	144.442
194.5	152.542
195	161.976
195.5	173.682
196	188.187
196.5	206.343
197	229.806
197.5	257.5
198	287.719
198.5	317.665
199	343.912
199.5	363.422
200	371.584
200.5	368.432
201	353.778
201.5	329.033
202	299.274
202.5	267.856
203	238.257
203.5	212.574
204	191.701
204.5	176.506
205	165.57
205.5	157.348
206	151.121
206.5	145.988
207	141.615
207.5	138.018
208	135.094
208.5	132.722
209	130.6
209.5	128.317
210	125.67
210.5	122.643
211	119.582
211.5	116.926
212	115.239
212.5	114.691
213	114.918
213.5	115.403
214	115.573
214.5	115.168
215	114.183
215.5	113.031
216	112.195
216.5	112.106
217	112.665
217.5	113.525
218	114.298
218.5	114.684
219	114.644
219.5	114.289
220	113.901
220.5	113.711
221	113.819
221.5	114.201
222	114.769
222.5	115.472
223	116.243
223.5	117.015
224	117.71
224.5	118.295
225	118.841
225.5	119.502
226	120.459
226.5	121.748
227	123.268
227.5	124.644
228	125.369
228.5	124.994
229	123.361
229.5	120.81
230	117.692
230.5	114.49
231	111.58
231.5	109.184
232	107.468
232.5	106.356
233	105.934
233.5	106.331
234	107.422
234.5	109.081
235	111.017
235.5	112.823
236	114.164
236.5	114.883
237	115.15
237.5	115.109
238	114.924
238.5	114.753
239	114.708
239.5	114.998
240	115.828
240.5	117.394
241	119.857
241.5	122.893
242	126.134
242.5	128.989
243	131.052
243.5	132.113
244	132.074
244.5	131.575
245	131.015
245.5	130.751
246	130.831
246.5	131.165
247	131.54
247.5	131.703
248	131.452
248.5	130.593
249	129.205
249.5	127.344
250	125.117
250.5	122.863
251	120.921
251.5	119.844
252	119.937
252.5	121.307
253	123.982
253.5	127.504
254	131.547
254.5	135.908
255	140.456
255.5	145.23
256	150.355
256.5	155.664
257	160.714
257.5	164.634
258	166.707
258.5	166.475
259	163.46
259.5	158.346
260	152.067
260.5	145.768
261	140.326
261.5	135.92
262	132.432
262.5	129.337
263	126.282
263.5	123.243
264	120.562
264.5	118.724
265	118.081
265.5	118.327
266	118.854
266.5	118.973
267	118.236
267.5	116.709
268	114.785
268.5	113.213
269	112.489
269.5	112.708
270	113.494
270.5	114.362
271	115.015
271.5	115.503
272	116.195
272.5	117.63
273	120.183
273.5	123.468
274	126.811
274.5	129.275
275	130.293
275.5	129.56
276	127.453
276.5	124.966
277	123.201
277.5	123.117
278	124.63
278.5	127.42
279	130.796
279.5	134.107
280	137.133
280.5	140.104
281	143.524
281.5	147.882
282	153.119
282.5	158.563
283	163.551
283.5	167.608
284	171.106
284.5	174.936
285	180.681
285.5	189.403
286	201.695
286.5	217.153
287	234.127
287.5	251.462
288	268.137
288.5	283.869
289	298.655
289.5	312.369
290	324.659
290.5	334.489
291	339.949
291.5	340.616
292	336.042
292.5	325.818
293	311.937
293.5	295.7
294	278.475
294.5	261.66
295	245.87
295.5	231.595
296	218.599
296.5	206.799
297	196.283
297.5	186.772
298	178.264
298.5	171.095
299	165.294
299.5	160.868
300	157.903
300.5	155.813
301	154.113
301.5	152.288
302	150.104
302.5	147.692
303	145.608
303.5	144.518
304	144.661
304.5	146.024
305	147.858
305.5	149.479
306	150.253
306.5	150.218
307	149.842
307.5	150.029
308	151.621
308.5	154.787
309	159.523
309.5	165.208
310	171.383
310.5	177.945
311	185.073
311.5	193.113
312	202.56
312.5	213.251
313	224.38
313.5	234.823
314	243.406
314.5	249.399
315	251.968
315.5	251.252
316	247.858
316.5	242.155
317	234.932
317.5	226.996
318	218.756
318.5	210.566
319	202.632
319.5	195.134
320	188.185
320.5	181.815
321	176.147
321.5	171.247
322	166.984
322.5	163.309
323	160.085
323.5	157.135
324	154.379
324.5	151.775
325	149.32
325.5	147.072
326	145.097
326.5	143.387
327	141.963
327.5	140.863
328	140.093
328.5	139.718
329	139.78
329.5	140.183
330	140.843
330.5	141.628
331	142.432
331.5	143.268
332	144.238
332.5	145.416
333	146.818
333.5	148.33
334	149.724
334.5	150.787
335	151.378
335.5	151.706
336	152.146
336.5	153.213
337	155.12
337.5	157.937
338	161.544
338.5	165.456
339	169.329
339.5	172.841
340	175.937
340.5	178.614
341	180.78
341.5	182.332
342	182.992
342.5	182.228
343	180.074
343.5	176.574
344	171.888
344.5	166.771
345	161.812
345.5	157.673
346	154.444
346.5	152.085
347	150.466
347.5	149.13
348	147.805
348.5	146.279
349	144.572
349.5	142.81
350	141.269
350.5	140.124
351	139.475
351.5	139.465
352	140.008
352.5	141.064
353	142.648
353.5	144.581
354	146.688
354.5	148.712
355	150.438
355.5	151.852
356	153.111
356.5	154.566
357	156.498
357.5	159.132
358	162.251
358.5	165.462
359	168.205
359.5	170.071
360	171.003
360.5	171.137
361	170.855
361.5	170.405
362	169.832
362.5	169.035
363	167.877
363.5	166.209
364	164.108
364.5	161.773
365	159.429
365.5	157.214
366	155.107
366.5	152.989
367	150.698
367.5	148.152
368	145.35
368.5	142.482
369	139.832
369.5	137.793
370	136.597
370.5	136.084
371	135.95
371.5	135.661
372	134.822
372.5	133.249
373	131.21
373.5	129.286
374	128.105
374.5	128.068
375	128.902
375.5	130.034
376	130.847
376.5	131.157
377	131.212
377.5	131.702
378	133.22
378.5	136.136
379	140.263
379.5	144.739
380	148.614
380.5	151.107
381	152.25
381.5	152.255
382	151.579
382.5	150.751
383	150.001
383.5	149.37
384	148.727
384.5	147.927
385	146.831
385.5	145.466
386	143.873
386.5	142.106
387	140.257
387.5	138.384
388	136.564
388.5	134.876
389	133.436
389.5	132.483
390	132.136
390.5	132.533
391	133.689
391.5	135.223
392	136.821
392.5	138.163
393	139.261
393.5	140.364
394	142.076
394.5	144.784
395	148.658
395.5	153.61
396	158.732
396.5	163.321
397	166.655
397.5	168.786
398	169.883
398.5	170.099
399	169.784
399.5	168.998
400	167.638
400.5	165.841
401	163.859
401.5	162.228
402	161.37
402.5	161.492
403	162.719
403.5	164.644
404	166.902
404.5	169.142
405	171.116
405.5	172.723
406	173.878
406.5	174.662
407	175.211
407.5	175.691
408	176.285
408.5	177.062
409	177.949
409.5	178.665
410	178.893
410.5	178.225
411	176.596
411.5	174.18
412	171.255
412.5	168.323
413	165.671
413.5	163.452
414	161.552
414.5	159.749
415	157.787
415.5	155.486
416	152.841
416.5	149.967
417	147.163
417.5	144.727
418	142.856
418.5	141.433
419	140.154
419.5	138.732
420	137.079
420.5	135.448
421	134.374
421.5	134.428
422	135.699
422.5	137.929
423	140.185
423.5	141.469
424	141.215
424.5	139.691
425	137.932
425.5	137.075
426	138.033
426.5	140.673
427	144.408
427.5	148.066
428	150.667
428.5	151.648
429	150.986
429.5	149.438
430	147.438
430.5	145.235
431	142.913
431.5	140.515
432	138.26
432.5	136.458
433	135.418
433.5	135.257
434	135.522
434.5	135.622
435	134.82
435.5	133.078
436	130.671
436.5	128.24
437	126.387
437.5	125.389
438	125.194
438.5	125.22
439	124.997
439.5	124.145
440	122.837
440.5	121.436
441	120.513
441.5	120.247
442	120.574
442.5	121.201
443	121.682
443.5	121.799
444	121.53
444.5	121.243
445	121.29
445.5	122.047
446	123.325
446.5	124.719
447	125.442
447.5	125.098
448	123.626
448.5	121.3
449	118.995
449.5	117.415
450	117.329
450.5	118.656
451	121.099
451.5	124.207
452	127.305
452.5	129.992
453	131.93
453.5	133.14
454	133.629
454.5	133.299
455	132.33
455.5	130.935
456	129.432
456.5	128.237
457	127.646
457.5	127.938
458	128.993
458.5	130.57
459	132.385
459.5	134.132
460	135.693
460.5	137.064
461	138.409
461.5	139.954
462	142.061
462.5	145.061
463	149.21
463.5	154.95
464	162.368
464.5	171.276
465	181.435
465.5	191.946
466	201.819
466.5	209.865
467	215.216
467.5	217.67
468	217.001
468.5	213.767
469	208.857
469.5	202.796
470	196.062
470.5	188.911
471	181.401
471.5	173.749
472	166.377
472.5	159.844
473	154.615
473.5	150.653
474	147.786
474.5	145.519
475	143.345
475.5	141.064
476	138.79
476.5	136.823
477	135.47
477.5	134.851
478	134.693
478.5	134.683
479	134.566
479.5	134.313
480	134.011
480.5	133.742
481	133.434
481.5	132.866
482	131.719
482.5	129.962
483	127.733
483.5	125.468
484	123.669
484.5	122.712
485	122.692
485.5	123.224
486	124.024
486.5	124.888
487	125.781
487.5	126.781
488	127.958
488.5	129.185
489	130.243
489.5	130.807
490	130.85
490.5	130.503
491	130.135
491.5	130.153
492	130.717
492.5	131.79
493	132.955
493.5	133.859
494	134.09
494.5	133.646
495	132.605
495.5	131.14
496	129.654
496.5	128.478
497	128.118
497.5	128.748
498	130.475
498.5	133.196
499	136.241
499.5	139.058
500	141.058
500.5	142.217
501	142.794
501.5	143.302
502	144.281
502.5	145.955
503	148.279
503.5	150.694
504	152.659
504.5	153.578
505	153.406
505.5	152.441
506	151.149
506.5	150.106
507	149.647
507.5	149.98
508	150.875
508.5	151.994
509	152.952
509.5	153.507
510	153.658
510.5	153.557
511	153.502
511.5	153.67
512	154.077
512.5	154.488
513	154.665
513.5	154.442
514	153.861
514.5	153.052
515	152.053
515.5	150.809
516	149.241
516.5	147.341
517	145.439
517.5	144.065
518	143.894
518.5	145.182
519	147.465
519.5	149.758
520	150.719
520.5	149.681
521	146.433
521.5	141.759
522	136.943
522.5	133.123
523	131.005
523.5	130.389
524	130.837
524.5	131.613
525	132.161
525.5	132.276
526	132.079
526.5	131.88
527	131.932
527.5	132.332
528	132.953
528.5	133.633
529	134.187
529.5	134.539
530	134.681
530.5	134.682
531	134.654
531.5	134.652
532	134.673
532.5	134.66
533	134.552
533.5	134.307
534	133.958
534.5	133.529
535	133.011
535.5	132.385
536	131.628
536.5	130.787
537	130.033
537.5	129.572
538	129.682
538.5	130.364
539	131.582
539.5	133.24
540	135.088
540.5	136.986
541	138.786
541.5	140.365
542	141.591
542.5	142.28
543	142.606
543.5	142.796
544	143.231
544.5	144.098
545	145.351
545.5	146.634
546	147.453
546.5	147.509
547	146.693
547.5	145.553
548	144.621
548.5	144.471
549	145.084
549.5	146.2
550	147.397
550.5	148.356
551	149.087
551.5	149.778
552	150.581
552.5	151.435
553	152.061
553.5	152.228
554	151.923
554.5	151.373
555	151.052
555.5	151.269
556	152.144
556.5	153.3
557	154.285
557.5	154.673
558	154.477
558.5	154.003
559	153.699
559.5	153.803
560	154.22
560.5	154.627
561	154.661
561.5	154.206
562	153.364
562.5	152.526
563	152.029
563.5	152.094
564	152.592
564.5	153.209
565	153.599
565.5	153.539
566	153.048
566.5	152.241
567	151.367
567.5	150.639
568	150.24
568.5	150.298
569	150.845
569.5	151.912
570	153.327
570.5	154.758
571	155.791
571.5	156.059
572	155.534
572.5	154.358
573	152.983
573.5	151.889
574	151.401
574.5	151.561
575	152.059
575.5	152.558
576	152.714
576.5	152.44
577	151.711
577.5	150.537
578	148.99
578.5	147.076
579	144.884
579.5	142.655
580	140.654
580.5	139.153
581	138.151
581.5	137.55
582	137.132
582.5	136.683
583	136.15
583.5	135.625
584	135.24
584.5	135.068
585	135.087
585.5	135.16
586	135.23
586.5	135.337
587	135.558
587.5	135.926
588	136.351
588.5	136.621
589	136.55
589.5	136.013
590	135.24
590.5	134.527
591	134.325
591.5	134.8
592	135.979
592.5	137.779
593	139.795
593.5	141.761
594	143.405
594.5	144.68
595	145.611
595.5	146.266
596	146.849
596.5	147.525
597	148.556
597.5	150.097
598	152.302
598.5	155.43
599	159.356
599.5	163.911
600	168.761
600.5	173.311
601	177.029
601.5	179.202
602	179.747
602.5	178.756
603	176.329
603.5	173.066
604	169.384
604.5	165.611
605	161.991
605.5	158.631
606	155.626
606.5	152.938
607	150.52
607.5	148.404
608	146.648
608.5	145.372
609	144.802
609.5	144.898
610	145.421
610.5	145.993
611	146.211
611.5	145.966
612	145.437
612.5	145.121
613	145.391
613.5	146.399
614	147.779
614.5	149.019
615	149.806
615.5	150.391
616	151.386
616.5	153.533
617	157.109
617.5	161.716
618	166.724
618.5	171.37
619	175.314
619.5	178.479
620	180.985
620.5	182.841
621	183.609
621.5	182.73
622	180.125
622.5	175.962
623	171.088
623.5	166.522
624	162.951
624.5	160.491
625	158.587
625.5	156.679
626	154.415
626.5	151.91
627	149.409
627.5	147.077
628	144.785
628.5	142.279
629	139.401
629.5	136.405
630	133.794
630.5	132.237
631	131.86
631.5	132.516
632	133.67
632.5	134.647
633	135.106
633.5	135.007
634	134.716
634.5	134.537
635	134.69
635.5	135.104
636	135.653
636.5	136.183
637	136.588
637.5	136.78
638	136.592
638.5	135.987
639	134.962
639.5	133.632
640	132.3
640.5	131.161
641	130.313
641.5	129.595
642	128.876
642.5	128.17
643	127.734
643.5	127.92
644	129.175
644.5	131.231
645	133.641
645.5	135.657
646	136.835
646.5	137.158
647	136.999
647.5	137.056
648	137.688
648.5	138.92
649	140.203
649.5	141.101
650	141.413
650.5	141.551
651	142.04
651.5	143.448
652	145.691
652.5	148.349
653	150.725
653.5	152.255
654	152.731
654.5	152.074
655	150.654
655.5	148.751
656	146.524
656.5	144.179
657	141.919
657.5	140.061
658	138.825
658.5	138.25
659	138.226
659.5	138.323
660	138.161
660.5	137.463
661	136.327
661.5	135.078
662	134.131
662.5	133.728
663	133.816
663.5	134.185
664	134.481
664.5	134.497
665	134.203
665.5	133.838
666	133.714
666.5	134.126
667	135.116
667.5	136.455
668	137.825
668.5	138.903
669	139.609
669.5	140.057
670	140.565
670.5	141.384
671	142.584
671.5	143.915
672	144.956
672.5	145.292
673	144.784
673.5	143.801
674	142.925
674.5	142.881
675	143.932
675.5	145.986
676	148.325
676.5	150.03
677	150.4
677.5	149.204
678	147.122
678.5	144.983
679	143.757
679.5	143.763
680	144.931
680.5	146.771
681	148.633
681.5	150.238
682	151.645
682.5	153.152
683	154.936
683.5	156.91
684	158.702
684.5	159.978
685	160.578
685.5	160.881
686	161.325
686.5	162.347
687	163.836
687.5	165.41
688	166.415
688.5	166.565
689	165.891
689.5	164.725
690	163.618
690.5	162.78
691	162.091
691.5	161.129
692	159.588
692.5	157.274
693	154.543
693.5	151.697
694	148.978
694.5	146.343
695	143.618
695.5	140.601
696	137.402
696.5	134.301
697	131.796
697.5	130.073
698	129.084
698.5	128.583
699	128.093
699.5	127.392
700	126.501
700.5	125.742
701	125.415
701.5	125.779
702	126.649
702.5	127.743
703	128.76
703.5	129.576
704	130.27
704.5	131.033
705	131.982
705.5	133.059
706	134.021
706.5	134.574
707	134.545
707.5	133.826
708	132.638
708.5	131.28
709	130.1
709.5	129.375
710	129.212
710.5	129.627
711	130.328
711.5	130.944
712	131.084
712.5	130.608
713	129.697
713.5	128.696
714	127.982
714.5	127.6
715	127.23
715.5	126.255
716	124.283
716.5	121.262
717	117.936
717.5	115.371
718	114.678
718.5	116.266
719	119.48
719.5	123.3
720	126.404
720.5	128.12
721	128.313
721.5	127.563
722	126.674
722.5	126.1
723	125.866
723.5	125.655
724	125.192
724.5	124.461
725	123.751
725.5	123.395
726	123.578
726.5	124.108
727	124.725
727.5	125.21
728	125.61
728.5	126.128
729	126.95
729.5	127.938
730	128.737
730.5	128.817
731	128.025
731.5	126.44
732	124.479
732.5	122.738
733	121.62
733.5	121.394
734	121.866
734.5	122.868
735	124.193
735.5	125.558
736	126.749
736.5	127.491
737	127.72
737.5	127.441
738	126.782
738.5	126.066
739	125.502
739.5	125.235
740	125.171
740.5	125.187
741	125.13
741.5	124.918
742	124.509
742.5	123.838
743	122.947
743.5	121.885
744	120.815
744.5	120.014
745	119.756
745.5	120.428
746	121.936
746.5	124.079
747	126.449
747.5	128.459
748	129.706
748.5	129.83
749	129.152
749.5	128.134
750	127.429
750.5	127.451
751	128.213
751.5	129.358
752	130.173
752.5	130.173
753	129.101
753.5	127.442
754	125.805
754.5	124.789
755	124.488
755.5	124.651
756	124.923
756.5	125.072
757	125.166
757.5	125.466
758	126.117
758.5	126.988
759	127.727
759.5	127.997
760	127.78
760.5	127.345
761	127.176
761.5	127.514
762	128.287
762.5	129
763	129.211
763.5	128.716
764	127.878
764.5	127.3
765	127.554
765.5	128.734
766	130.423
766.5	132.071
767	133.244
767.5	133.95
768	134.425
768.5	134.939
769	135.461
769.5	135.647
770	135.12
770.5	133.952
771	132.633
771.5	132.053
772	132.753
772.5	134.833
773	137.608
773.5	140.054
774	141.455
774.5	141.741
775	141.653
775.5	141.997
776	143.352
776.5	145.5
777	147.954
777.5	150.152
778	151.988
778.5	153.731
779	155.849
779.5	158.48
780	161.467
780.5	164.426
781	167.158
781.5	169.827
782	172.96
782.5	176.901
783	181.715
783.5	187.087
784	192.429
784.5	197.467
785	202.265
785.5	207.18
786	212.412
786.5	217.807
787	222.835
787.5	227.028
788	230.092
788.5	232.543
789	234.876
789.5	237.404
790	239.763
790.5	241.167
791	240.269
791.5	236.959
792	231.522
792.5	224.726
793	217.918
793.5	211.699
794	206.174
794.5	200.715
795	194.844
795.5	188.371
796	181.851
796.5	175.972
797	171.595
797.5	168.665
798	166.805
798.5	165.377
799	163.673
799.5	161.416
800	158.618
800.5	155.692
801	152.991
801.5	150.828
802	149.172
802.5	147.855
803	146.629
803.5	145.216
804	143.478
804.5	141.378
805	139.14
805.5	137.043
806	135.42
806.5	134.37
807	133.775
807.5	133.379
808	132.821
808.5	131.909
809	130.615
809.5	129.198
810	127.949
810.5	127.105
811	126.626
811.5	126.27
812	125.725
812.5	124.794
813	123.54
813.5	122.193
814	121.078
814.5	120.343
815	119.985
815.5	119.818
816	119.709
816.5	119.748
817	120.207
817.5	121.273
818	122.963
818.5	124.845
819	126.308
819.5	126.786
820	126.119
820.5	124.717
821	123.066
821.5	121.631
822	120.517
822.5	119.639
823	118.89
823.5	118.334
824	118.227
824.5	118.776
825	119.776
825.5	120.811
826	121.349
826.5	121.292
827	120.933
827.5	120.942
828	121.736
828.5	123.294
829	124.985
829.5	125.981
830	125.752
830.5	124.295
831	122.418
831.5	120.857
832	120.168
832.5	120.121
833	120.223
833.5	119.821
834	118.736
834.5	117.148
835	115.575
835.5	114.495
836	114.093
836.5	114.275
837	114.575
837.5	114.675
838	114.388
838.5	113.898
839	113.446
839.5	113.319
840	113.535
840.5	113.987
841	114.439
841.5	114.656
842	114.509
842.5	113.911
843	113.06
843.5	112.165
844	111.587
844.5	111.567
845	112.222
845.5	113.539
846	115.065
846.5	116.41
847	117.216
847.5	117.589
848	117.81
848.5	118.228
849	118.889
849.5	119.542
850	119.675
850.5	119.062
851	117.819
851.5	116.341
852	115.1
852.5	114.211
853	113.477
853.5	112.574
854	111.5
854.5	110.733
855	110.908
855.5	112.297
856	114.674
856.5	116.958
857	118.158
857.5	117.54
858	115.549
858.5	113.152
859	111.394
859.5	110.741
860	110.912
860.5	111.293
861	111.275
861.5	110.787
862	110.197
862.5	110.108
863	110.823
863.5	112.337
864	114.112
864.5	115.519
865	116.008
865.5	115.46
866	114.239
866.5	112.862
867	111.912
867.5	111.601
868	111.824
868.5	112.105
869	112.006
869.5	111.359
870	110.452
870.5	109.801
871	109.809
871.5	110.468
872	111.299
872.5	111.8
873	111.736
873.5	111.445
874	111.507
874.5	112.45
875	114.121
875.5	115.938
876	116.93
876.5	116.558
877	114.685
877.5	111.778
878	108.789
878.5	106.469
879	105.413
879.5	105.536
880	106.662
880.5	108.401
881	110.167
881.5	111.519
882	112.058
882.5	111.862
883	111.143
883.5	110.308
884	109.732
884.5	109.544
885	109.667
885.5	109.815
886	109.828
886.5	109.698
887	109.612
887.5	109.738
888	110.185
888.5	110.791
889	111.361
889.5	111.627
890	111.507
890.5	110.999
891	110.162
891.5	109.256
892	108.507
892.5	108.257
893	108.592
893.5	109.489
894	110.757
894.5	111.928
895	112.648
895.5	112.58
896	111.91
896.5	110.947
897	110.156
897.5	109.865
898	110.132
898.5	110.777
899	111.299
899.5	111.296
900	110.433
900.5	108.948
901	107.274
901.5	106.02
902	105.512
902.5	105.713
903	106.337
903.5	106.897
904	107.165
904.5	107.183
905	107.274
905.5	107.679
906	108.455
906.5	109.321
907	109.965
907.5	110.167
908	110.033
908.5	109.799
909	109.665
909.5	109.655
910	109.678
910.5	109.696
911	109.832
911.5	110.276
912	111.155
912.5	112.226
913	112.995
913.5	112.869
914	111.646
914.5	109.719
915	107.801
915.5	106.736
916	106.841
916.5	108.013
917	109.5
917.5	110.469
918	110.298
918.5	108.936
919	106.96
919.5	105.09
920	104.048
920.5	104.038
921	104.987
921.5	106.429
922	107.813
922.5	108.786
923	109.21
923.5	109.214
924	108.876
924.5	108.237
925	107.371
925.5	106.39
926	105.579
926.5	105.219
927	105.479
927.5	106.245
928	107.073
928.5	107.576
929	107.544
929.5	107.215
930	106.916
930.5	106.93
931	107.169
931.5	107.359
932	107.175
932.5	106.66
933	106.088
933.5	105.918
934	106.278
934.5	106.996
935	107.56
935.5	107.529
936	106.752
936.5	105.393
937	104.025
937.5	103.07
938	102.909
938.5	103.435
939	104.521
939.5	106.011
940	107.587
940.5	109
941	109.869
941.5	110.092
942	109.679
942.5	108.794
943	107.874
943.5	107.174
944	106.816
944.5	106.586
945	106.254
945.5	105.611
946	104.73
946.5	103.782
947	102.993
947.5	102.455
948	102.168
948.5	102.148
949	102.386
949.5	102.926
950	103.818
950.5	104.867
951	105.781
951.5	106.123
952	105.732
952.5	104.729
953	103.516
953.5	102.728
954	102.788
954.5	103.949
955	105.79
955.5	107.699
956	108.959
956.5	109.206
957	108.529
957.5	107.291
958	106.187
958.5	105.723
959	106.255
959.5	107.628
960	109.436
960.5	111.242
961	112.687
961.5	113.673
962	114.21
962.5	114.437
963	114.423
963.5	114.063
964	113.229
964.5	111.921
965	110.276
965.5	108.693
966	107.574
966.5	107.231
967	107.602
967.5	108.272
968	108.779
968.5	108.802
969	108.448
969.5	108.109
970	108.347
970.5	109.405
971	111.236
971.5	113.34
972	115.078
972.5	115.959
973	115.825
973.5	115.043
974	114.025
974.5	113.21
975	112.767
975.5	112.667
976	112.715
976.5	112.697
977	112.529
977.5	112.289
978	112.194
978.5	112.479
979	113.325
979.5	114.572
980	115.927
980.5	116.877
981	117.081
981.5	116.378
982	114.87
982.5	113.105
983	111.535
983.5	110.581
984	110.249
984.5	110.455
985	111.071
985.5	111.858
986	112.644
986.5	113.106
987	112.947
987.5	111.906
988	109.811
988.5	107.213
989	104.715
989.5	103.167
990	102.771
990.5	103.394
991	104.59
991.5	105.641
992	106.229
992.5	106.249
993	105.992
993.5	105.643
994	105.297
994.5	104.973
995	104.716
995.5	104.689
996	104.999
996.5	105.653
997	106.512
997.5	107.265
998	107.701
998.5	107.658
999	107.21
999.5	106.399
1000	105.161
1000.5	103.589
1001	101.921
1001.5	100.718
1002	100.519
1002.5	101.524
1003	103.513
1003.5	105.469
1004	106.456
1004.5	105.824
1005	104.076
1005.5	102.151
1006	101.072
1006.5	101.166
1007	102.037
1007.5	102.976
1008	103.4
1008.5	103.321
1009	103.139
1009.5	103.316
1010	103.882
1010.5	104.47
1011	104.557
1011.5	103.977
1012	102.919
1012.5	101.911
1013	101.292
1013.5	101.083
1014	100.971
1014.5	100.729
1015	100.471
1015.5	100.663
1016	101.631
1016.5	103.372
1017	105.278
1017.5	106.594
1018	106.763
1018.5	105.859
1019	104.573
1019.5	103.618
1020	103.439
1020.5	103.798
1021	104.141
1021.5	103.81
1022	102.674
1022.5	101.035
1023	99.6966
1023.5	99.3657
1024	100.457
1024.5	102.79
1025	105.467
1025.5	107.57
1026	108.236
1026.5	107.453
1027	105.585
1027.5	103.395
1028	101.614
1028.5	100.576
1029	100.228
1029.5	100.067
1030	99.6783
1030.5	98.7836
1031	97.5702
1031.5	96.3961
1032	95.8136
1032.5	96.0827
1033	97.3026
1033.5	99.3888
1034	101.852
1034.5	104.333
1035	106.45
1035.5	108.043
1036	108.991
1036.5	109.089
1037	108.451
1037.5	107.199
1038	105.585
1038.5	104.085
1039	103.015
1039.5	102.605
1040	102.58
1040.5	102.664
1041	102.647
1041.5	102.646
1042	102.977
1042.5	104.111
1043	105.959
1043.5	108.176
1044	110.103
1044.5	111.287
1045	111.666
1045.5	111.504
1046	111.4
1046.5	111.685
1047	112.445
1047.5	113.376
1048	114.247
1048.5	114.953
1049	115.613
1049.5	116.358
1050	117.243
1050.5	118.129
1051	118.841
1051.5	119.242
1052	119.506
1052.5	120.008
1053	121.402
1053.5	124.078
1054	128.077
1054.5	133.198
1055	138.686
1055.5	143.958
1056	148.765
1056.5	153.489
1057	158.656
1057.5	164.657
1058	171.215
1058.5	177.735
1059	183.762
1059.5	189.614
1060	196.257
1060.5	205.067
1061	216.477
1061.5	229.529
1062	242.297
1062.5	252.394
1063	258.615
1063.5	260.378
1064	258.658
1064.5	254.885
1065	249.654
1065.5	243.208
1066	235.665
1066.5	227.213
1067	218.57
1067.5	210.493
1068	203.44
1068.5	197.253
1069	191.305
1069.5	185.102
1070	178.523
1070.5	171.937
1071	165.862
1071.5	160.703
1072	156.365
1072.5	152.66
1073	149.329
1073.5	146.211
1074	143.331
1074.5	140.696
1075	138.145
1075.5	135.458
1076	132.445
1076.5	129.22
1077	126.114
1077.5	123.68
1078	122.164
1078.5	121.58
1079	121.538
1079.5	121.339
1080	120.492
1080.5	118.797
1081	116.732
1081.5	114.898
1082	114.019
1082.5	114.154
1083	115.06
1083.5	116.224
1084	117.112
1084.5	117.506
1085	117.414
1085.5	117.163
1086	116.98
1086.5	117.032
1087	117.27
1087.5	117.612
1088	117.968
1088.5	118.304
1089	118.673
1089.5	119.273
1090	120.297
1090.5	121.915
1091	124.226
1091.5	126.82
1092	129.229
1092.5	130.812
1093	131.55
1093.5	131.844
1094	132.711
1094.5	135.033
1095	139.142
1095.5	144.769
1096	150.491
1096.5	155.152
1097	157.847
1097.5	159.202
1098	160.317
1098.5	162.573
1099	166.396
1099.5	171.425
1100	176.78
1100.5	181.385
1101	184.644
1101.5	186.082
1102	185.984
1102.5	184.737
1103	182.751
1103.5	180.691
1104	178.977
1104.5	177.701
1105	176.362
1105.5	174.284
1106	170.937
1106.5	166.831
1107	163.034
1107.5	160.871
1108	160.778
1108.5	162.104
1109	163.612
1109.5	164.017
1110	163.037
1110.5	161.24
1111	159.978
1111.5	160.258
1112	162.688
1112.5	166.914
1113	172.149
1113.5	177.79
1114	183.42
1114.5	188.939
1115	194.45
1115.5	200.277
1116	206.82
1116.5	214.622
1117	223.926
1117.5	234.315
1118	245.028
1118.5	254.826
1119	262.779
1119.5	268.105
1120	270.602
1120.5	270.954
1121	269.705
1121.5	267.391
1122	264.412
1122.5	260.69
1123	255.938
1123.5	250.109
1124	243.277
1124.5	235.952
1125	228.902
1125.5	222.681
1126	217.452
1126.5	212.683
1127	207.819
1127.5	202.518
1128	197.131
1128.5	192.3
1129	188.734
1129.5	186.323
1130	184.607
1130.5	182.751
1131	180.171
1131.5	176.76
1132	172.892
1132.5	169.305
1133	166.555
1133.5	165.106
1134	164.707
1134.5	165.038
1135	165.654
1135.5	166.133
1136	166.322
1136.5	166.258
1137	166.217
1137.5	166.392
1138	166.83
1138.5	167.233
1139	167.279
1139.5	166.684
1140	165.805
1140.5	165.241
1141	166.04
1141.5	168.328
1142	171.74
1142.5	175.21
1143	177.453
1143.5	177.764
1144	175.858
1144.5	172.898
1145	169.897
1145.5	167.684
1146	166.107
1146.5	164.529
1147	162.004
1147.5	158.224
1148	153.491
1148.5	148.362
1149	143.413
1149.5	138.808
1150	134.526
1150.5	130.481
1151	126.8
1151.5	123.881
1152	121.903
1152.5	120.816
1153	120.474
1153.5	120.503
1154	120.683
1154.5	120.881
1155	120.909
1155.5	120.513
1156	119.327
1156.5	117.332
1157	114.833
1157.5	112.355
1158	110.453
1158.5	109.339
1159	109.011
1159.5	109.113
1160	109.311
1160.5	109.467
1161	109.659
1161.5	110.066
1162	110.899
1162.5	112.178
1163	113.673
1163.5	114.973
1164	115.612
1164.5	115.462
1165	114.725
1165.5	114.12
1166	114.373
1166.5	115.943
1167	118.52
1167.5	121.293
1168	123.514
1168.5	124.743
1169	125.11
1169.5	124.766
1170	123.784
1170.5	122.143
1171	119.706
1171.5	116.63
1172	113.487
1172.5	110.904
1173	109.301
1173.5	108.475
1174	108.086
1174.5	107.703
1175	107.084
1175.5	106.173
1176	104.994
1176.5	103.653
1177	102.263
1177.5	101.063
1178	100.292
1178.5	100.121
1179	100.526
1179.5	101.192
1180	101.916
1180.5	102.611
1181	103.321
1181.5	104.037
1182	104.534
1182.5	104.512
1183	103.721
1183.5	102.085
1184	100.082
1184.5	98.1379
1185	96.5983
1185.5	95.3949
1186	94.3589
1186.5	93.2932
1187	92.1232
1187.5	90.8721
1188	89.6113
1188.5	88.4481
1189	87.5313
1189.5	87.2112
1190	87.6273
1190.5	88.7623
1191	90.4188
1191.5	92.0578
1192	93.3171
1192.5	93.9101
1193	93.9983
1193.5	93.7573
1194	93.3185
1194.5	92.7891
1195	92.2033
1195.5	91.6162
1196	91.0872
1196.5	90.6151
1197	90.1326
1197.5	89.581
1198	88.994
1198.5	88.5161
1199	88.2526
1199.5	88.1698
1200	88.085
1200.5	87.8004
1201	87.3129
1201.5	86.8605
1202	86.7217
1202.5	86.9502
1203	87.3703
1203.5	87.6496
1204	87.6677
1204.5	87.6024
1205	87.8702
1205.5	88.733
1206	90.222
1206.5	91.9151
1207	93.3847
1207.5	94.3862
1208	95.0022
1208.5	95.4056
1209	95.6341
1209.5	95.6133
1210	95.281
1210.5	94.6755
1211	94.059
1211.5	93.696
1212	93.7305
1212.5	93.9898
1213	94.181
1213.5	94.0231
1214	93.3676
1214.5	92.249
1215	90.7087
1215.5	88.9085
1216	87.0883
1216.5	85.5134
1217	84.4043
1217.5	83.7191
1218	83.3012
1218.5	82.9594
1219	82.6587
1219.5	82.5585
1220	82.8457
1220.5	83.4358
1221	84.0337
1221.5	84.2228
1222	83.9377
1222.5	83.5125
1223	83.6323
1223.5	84.6074
1224	86.2982
1224.5	87.9814
1225	88.8947
1225.5	88.6544
1226	87.4601
1226.5	86.1208
1227	85.2791
1227.5	85.3302
1228	85.9522
1228.5	86.7926
1229	87.5673
1229.5	88.2502
1230	88.9781
1230.5	90.0017
1231	91.4766
1231.5	93.5497
1232	96.333
1232.5	99.4974
1233	102.51
1233.5	104.429
1234	104.775
1234.5	103.374
1235	100.466
1235.5	97.1723
1236	94.3003
1236.5	92.5657
1237	91.7949
1237.5	91.6597
1238	91.7165
1238.5	91.6746
1239	91.5201
1239.5	91.3304
1240	91.1529
1240.5	90.9353
1241	90.5348
1241.5	89.9118
1242	89.1264
1242.5	88.4288
1243	88.1518
1243.5	88.5441
1244	89.853
1244.5	91.807
1245	94.0502
1245.5	96.0644
1246	97.4679
1246.5	98.1386
1247	98.1426
1247.5	97.998
1248	98.2104
1248.5	99.3369
1249	101.466
1249.5	104.388
1250	107.57
1250.5	110.161
1251	111.526
1251.5	111.144
1252	109.437
1252.5	107.139
1253	104.953
1253.5	103.071
1254	101.155
1254.5	98.599
1255	95.2387
1255.5	91.5545
1256	88.5981
1256.5	87.3169
1257	87.8917
1257.5	89.7004
1258	91.3731
1258.5	91.9908
1259	91.1817
1259.5	89.5157
1260	87.8075
1260.5	86.6465
1261	86.1181
1261.5	85.9641
1262	86.063
1262.5	86.544
1263	87.5902
1263.5	89.1954
1264	90.7736
1264.5	91.5114
1265	90.6388
1265.5	88.1149
1266	84.7975
1266.5	81.8182
1267	80.0954
1267.5	79.5896
1268	79.8399
1268.5	80.0813
1269	79.8712
1269.5	79.1631
1270	78.2191
1270.5	77.3291
1271	76.6449
1271.5	76.2594
1272	76.2467
1272.5	76.7509
1273	77.778
1273.5	79.0025
1274	80.0404
1274.5	80.5611
1275	80.6449
1275.5	80.4925
1276	80.2481
1276.5	79.8054
1277	78.9659
1277.5	77.7861
1278	76.8025
1278.5	76.5912
1279	77.4168
1279.5	78.6047
1280	79.4373
1280.5	80.0389
1281	82.1264
1281.5	88.1377
1282	100.752
1282.5	118.315
1283	137.518
1283.5	152.146
1284	158.1
1284.5	153.344
1285	139.016
1285.5	121.504
1286	104.954
1286.5	92.9734
1287	85.3371
1287.5	81.0025
1288	78.6247
1288.5	76.6623
1289	74.7331
1289.5	73.0096
1290	71.7955
1290.5	71.3239
1291	71.8366
1291.5	73.0439
1292	74.6199
1292.5	76.0524
1293	76.9043
1293.5	76.9968
1294	76.425
1294.5	75.6985
1295	75.197
1295.5	75.2053
1296	75.5783
1296.5	76.024
1297	76.1235
1297.5	75.6398
1298	74.5724
1298.5	73.1019
1299	71.6295
1299.5	70.5019
1300	70.138
1300.5	70.6525
1301	71.9445
1301.5	73.6791
1302	75.0982
1302.5	75.5829
1303	74.7283
1303.5	73.0021
1304	71.2331
1304.5	70.3742
1305	70.7605
1305.5	71.9888
1306	73.2188
1306.5	73.6192
1307	73.1277
1307.5	72.1179
1308	71.2188
1308.5	70.6871
1309	70.4054
1309.5	70.0327
1310	69.4502
1310.5	68.8815
1311	68.7246
1311.5	69.1121
1312	69.945
1312.5	70.8778
1313	71.6503
1313.5	72.1663
1314	72.4747
1314.5	72.6407
1315	72.6736
1315.5	72.6333
1316	72.6398
1316.5	72.7771
1317	72.9265
1317.5	72.7759
1318	71.9658
1318.5	70.4482
1319	68.7833
1319.5	67.7783
1320	68.1287
1320.5	69.7416
1321	72.1706
1321.5	74.562
1322	76.2414
1322.5	76.8548
1323	76.3902
1323.5	75.3394
1324	74.022
1324.5	72.7777
1325	71.8325
1325.5	71.31
1326	71.2109
1326.5	71.3339
1327	71.548
1327.5	71.8381
1328	72.2862
1328.5	72.9512
1329	73.7069
1329.5	74.2214
1330	74.1771
1330.5	73.3788
1331	72.1768
1331.5	70.9804
1332	70.1154
1332.5	69.4903
1333	68.8777
1333.5	68.1006
1334	67.3701
1334.5	67.122
1335	67.9813
1335.5	69.6216
1336	71.4519
1336.5	72.5023
1337	72.4244
1337.5	71.4066
1338	70.1833
1338.5	69.6091
1339	69.9529
1339.5	70.8837
1340	71.6425
1340.5	71.8873
1341	71.7123
1341.5	71.7459
1342	72.4693
1342.5	74.1781
1343	76.3531
1343.5	78.3704
1344	79.5024
1344.5	79.4648
1345	78.1594
1345.5	75.5174
1346	72.1295
1346.5	68.69
1347	66.204
1347.5	65.1548
1348	65.516
1348.5	66.9159
1349	68.4885
1349.5	69.7142
1350	70.3671
1350.5	70.6365
1351	70.6734
1351.5	70.3613
1352	69.566
1352.5	68.3319
1353	66.976
1353.5	66.0282
1354	65.8008
1354.5	66.3396
1355	67.186
1355.5	67.9846
1356	68.5874
1356.5	69.0616
1357	69.4629
1357.5	69.6629
1358	69.4424
1358.5	68.7691
1359	67.8473
1359.5	67.0833
1360	66.7264
1360.5	66.8077
1361	67.054
1361.5	67.173
1362	66.9998
1362.5	66.5973
1363	66.0967
1363.5	65.6036
1364	65.2755
1364.5	65.3203
1365	66.0518
1365.5	67.6232
1366	69.6982
1366.5	71.7084
1367	73.0248
1367.5	73.4677
1368	73.1566
1368.5	72.5461
1369	72.0513
1369.5	71.7771
1370	71.5324
1370.5	71.0973
1371	70.3656
1371.5	69.3715
1372	68.2585
1372.5	67.1326
1373	66.1428
1373.5	65.4427
1374	65.231
1374.5	65.6876
1375	66.6852
1375.5	68.0196
1376	69.293
1376.5	70.075
1377	70.0342
1377.5	69.0164
1378	67.4043
1378.5	65.6809
1379	64.5433
1379.5	64.3069
1380	64.9859
1380.5	66.2619
1381	67.6159
1381.5	68.9093
1382	70.1274
1382.5	71.1567
1383	71.7042
1383.5	71.7015
1384	72.5752
1384.5	77.0406
1385	89.9124
1385.5	111.669
1386	140.542
1386.5	170.081
1387	191.116
1387.5	196.326
1388	181.208
1388.5	154.225
1389	123.04
1389.5	96.7876
1390	79.3703
1390.5	70.6493
1391	68.5638
1391.5	68.156
1392	67.6032
1392.5	66.554
1393	65.5403
1393.5	64.8356
1394	64.3885
1394.5	64.0134
1395	63.8141
1395.5	64.0994
1396	64.7922
1396.5	65.4947
1397	65.5966
1397.5	65.0242
1398	64.313
1398.5	64.5092
1399	66.0573
1399.5	68.6119
1400	71.1577
1400.5	72.5276
1401	72.2477
1401.5	70.3633
1402	67.9757
1402.5	65.8728
1403	64.4536
1403.5	63.5529
1404	62.9047
1404.5	62.4989
1405	62.6386
1405.5	63.6395
1406	65.6904
1406.5	68.3443
1407	70.8561
1407.5	72.3612
1408	72.4318
1408.5	71.3309
1409	69.7577
1409.5	68.5561
1410	68.0657
1410.5	68.1602
1411	68.2117
1411.5	67.6652
1412	66.2816
1412.5	64.4833
1413	62.8438
1413.5	61.7722
1414	61.3096
1414.5	61.1898
1415	61.2259
1415.5	61.3919
1416	61.7559
1416.5	62.3247
1417	62.8996
1417.5	63.2438
1418	63.2684
1418.5	63.2007
1419	63.417
1419.5	64.1172
1420	65.1603
1420.5	66.1303
1421	66.6596
1421.5	66.5525
1422	65.9693
1422.5	65.0922
1423	64.0791
1423.5	63.0805
1424	62.2834
1424.5	61.9657
1425	62.1891
1425.5	62.7996
1426	63.3191
1426.5	63.3556
1427	62.7841
1427.5	61.8045
1428	60.8725
1428.5	60.2864
1429	60.1285
1429.5	60.2146
1430	60.4689
1430.5	60.8831
1431	61.3549
1431.5	61.662
1432	61.348
1432.5	60.4185
1433	59.1642
1433.5	58.3207
1434	58.4518
1434.5	59.718
1435	61.7803
1435.5	63.6132
1436	64.5853
1436.5	64.2879
1437	63.2178
1437.5	61.8325
1438	60.6373
1438.5	59.9081
1439	59.7423
1439.5	60.3152
1440	61.4752
1440.5	62.9869
1441	64.2702
1441.5	64.6376
1442	63.7387
1442.5	61.7015
1443	59.5602
1443.5	58.2766
1444	58.7855
1444.5	60.7381
1445	63.2015
1445.5	64.801
1446	64.8896
1446.5	63.6043
1447	61.6331
1447.5	60.0555
1448	59.487
1448.5	59.9876
1449	60.8761
1449.5	61.5459
1450	61.5068
1450.5	60.7879
1451	59.7141
1451.5	58.8202
1452	58.53
1452.5	58.9374
1453	59.8937
1453.5	60.8576
1454	61.3264
1454.5	60.8845
1455	59.7756
1455.5	58.4847
1456	57.544
1456.5	57.2399
1457	57.4758
1457.5	57.9646
1458	58.3074
1458.5	58.3692
1459	58.2165
1459.5	58.1073
1460	58.2628
1460.5	58.8193
1461	59.6275
1461.5	60.3803
1462	60.7544
1462.5	60.5543
1463	59.848
1463.5	58.7831
1464	57.6295
1464.5	56.5802
1465	55.7584
1465.5	55.2996
1466	55.3239
1466.5	56.0128
1467	57.3358
1467.5	58.8093
1468	59.8772
1468.5	60.0464
1469	59.3943
1469.5	58.2996
1470	57.4398
1470.5	57.1059
1471	57.142
1471.5	57.0571
1472	56.5329
1472.5	55.6437
1473	54.9419
1473.5	54.8869
1474	55.5317
1474.5	56.459
1475	57.0664
1475.5	57.0338
1476	56.4106
1476.5	55.6932
1477	55.1569
1477.5	54.8462
1478	54.589
1478.5	54.3181
1479	54.1977
1479.5	54.4458
1480	55.148
1480.5	56.1676
1481	57.1069
1481.5	57.6571
1482	57.5584
1482.5	57.0447
1483	56.3971
1483.5	56.0102
1484	56.0965
1484.5	56.6675
1485	57.4216
1485.5	57.7787
1486	57.43
1486.5	56.4021
1487	55.4506
1487.5	55.2721
1488	56.548
1488.5	58.5928
1489	60.5722
1489.5	61.5406
1490	61.4744
1490.5	60.8111
1491	60.3002
1491.5	60.2513
1492	60.3992
1492.5	60.1093
1493	59.0235
1493.5	57.2039
1494	55.1226
1494.5	53.5097
1495	52.7506
1495.5	53.0999
1496	54.2036
1496.5	55.6231
1497	56.7556
1497.5	57.2231
1498	56.9792
1498.5	56.2068
1499	55.4269
1499.5	55.0516
1500	55.3731
1500.5	56.1699
1501	57.1194
1501.5	57.8637
1502	58.1757
1502.5	58.0077
1503	57.4317
1503.5	56.7252
1504	56.1036
1504.5	55.7051
1505	55.4884
1505.5	55.3208
1506	55.1037
1506.5	54.8712
1507	54.7155
1507.5	54.6656
1508	54.5604
1508.5	54.154
1509	53.3167
1509.5	52.2994
1510	51.5522
1510.5	51.5402
1511	52.3381
1511.5	53.4747
1512	54.2301
1512.5	54.0257
1513	52.841
1513.5	50.9593
1514	49.0976
1514.5	47.9537
1515	48.0257
1515.5	49.4606
1516	51.8856
1516.5	54.8296
1517	57.5307
1517.5	59.4425
1518	60.3223
1518.5	60.3006
1519	59.8314
1519.5	59.1906
1520	58.4603
1520.5	57.5677
1521	56.465
1521.5	55.2987
1522	54.3411
1522.5	53.8116
1523	53.6906
1523.5	53.6599
1524	53.4949
1524.5	53.1125
1525	52.6586
1525.5	52.3032
1526	52.2682
1526.5	52.4731
1527	52.7862
1527.5	53.0889
1528	53.2934
1528.5	53.3958
1529	53.3932
1529.5	53.3341
1530	53.2257
1530.5	52.9577
1531	52.4339
1531.5	51.6634
1532	50.7863
1532.5	50.155
1533	50.2091
1533.5	51.2354
1534	53.1228
1534.5	55.3917
1535	57.0421
1535.5	57.4397
1536	56.6966
1536.5	55.3169
1537	54.1059
1537.5	53.6082
1538	54.0039
1538.5	54.736
1539	55.2268
1539.5	55.117
1540	54.4582
1540.5	53.5664
1541	52.9205
1541.5	52.6842
1542	52.815
1542.5	53.0807
1543	53.2901
1543.5	53.2723
1544	52.9756
1544.5	52.3241
1545	51.3841
1545.5	50.321
1546	49.5257
1546.5	49.3028
1547	49.7479
1547.5	50.6945
1548	51.775
1548.5	52.6911
1549	53.3849
1549.5	54.0324
1550	54.7852
1550.5	55.5887
1551	56.2366
1551.5	56.3647
1552	56.0255
1552.5	55.4227
1553	54.9096
1553.5	54.6777
1554	54.7337
1554.5	54.8007
1555	54.7118
1555.5	54.4754
1556	54.3011
1556.5	54.3651
1557	54.6691
1557.5	54.8903
1558	54.7066
1558.5	53.9919
1559	52.9313
1559.5	51.9206
1560	51.3543
1560.5	51.2816
1561	51.5607
1561.5	51.8962
1562	52.1303
1562.5	52.2615
1563	52.3797
1563.5	52.4596
1564	52.3512
1564.5	51.9278
1565	51.1436
1565.5	50.3359
1566	49.8484
1566.5	49.9482
1567	50.5261
1567.5	51.354
1568	52.0494
1568.5	52.4531
1569	52.5279
1569.5	52.3707
1570	52.0539
1570.5	51.6512
1571	51.34
1571.5	51.3242
1572	51.7634
1572.5	52.5422
1573	53.3788
1573.5	53.7876
1574	53.6135
1574.5	53.0012
1575	52.4493
1575.5	52.3435
1576	52.9085
1576.5	53.8093
1577	54.5799
1577.5	54.8739
1578	54.7246
1578.5	54.3698
1579	54.2451
1579.5	54.5729
1580	55.3202
1580.5	56.1157
1581	56.5863
1581.5	56.3265
1582	55.2639
1582.5	53.6104
1583	51.8988
1583.5	50.5896
1584	50.1099
1584.5	50.4436
1585	51.3671
1585.5	52.4878
1586	53.5814
1586.5	54.6309
1587	55.7203
1587.5	56.8526
1588	57.817
1588.5	58.2991
1589	58.1401
1589.5	57.2609
1590	55.9638
1590.5	54.516
1591	53.177
1591.5	52.0283
1592	51.1345
1592.5	50.5583
1593	50.3198
1593.5	50.4271
1594	50.6609
1594.5	50.8685
1595	51.0041
1595.5	51.1971
1596	51.6225
1596.5	52.364
1597	53.1869
1597.5	53.7931
1598	53.9763
1598.5	53.7669
1599	53.3332
1599.5	52.9668
1600	52.7975
1600.5	52.8807
1601	53.1745
1601.5	53.6409
1602	54.111
1602.5	54.2901
1603	53.8618
1603.5	52.862
1604	51.6263
1604.5	50.8064
1605	50.8847
1605.5	51.8787
1606	53.1706
1606.5	54.1125
1607	54.3427
1607.5	54.0699
1608	53.8326
1608.5	54.127
1609	54.7888
1609.5	55.3832
1610	55.3187
1610.5	54.4696
1611	53.0298
1611.5	51.6894
1612	50.9348
1612.5	51.0112
1613	51.6376
1613.5	52.3324
1614	52.4123
1614.5	51.6688
1615	50.3206
1615.5	48.9977
1616	48.3417
1616.5	48.8005
1617	50.2644
1617.5	52.0676
1618	53.5506
1618.5	54.4434
1619	54.8402
1619.5	55.0155
1620	55.2056
1620.5	55.3413
1621	55.1649
1621.5	54.5674
1622	53.5629
1622.5	52.4053
1623	51.3545
1623.5	50.6495
1624	50.3255
1624.5	50.4027
1625	50.8601
1625.5	51.5028
1626	52.0629
1626.5	52.2041
1627	51.9076
1627.5	51.3794
1628	51.0923
1628.5	51.3895
1629	52.4811
1629.5	53.9185
1630	55.1584
1630.5	55.7072
1631	55.5245
1631.5	54.75
1632	53.7811
1632.5	52.892
1633	52.1424
1633.5	51.4186
1634	50.6744
1634.5	50.0331
1635	49.745
1635.5	50.1163
1636	51.1428
1636.5	52.4748
1637	53.6607
1637.5	54.299
1638	54.2963
1638.5	53.7595
1639	53.1529
1639.5	52.7341
1640	52.6171
1640.5	52.7302
1641	53.0325
1641.5	53.5326
1642	54.2397
1642.5	55.0432
1643	55.639
1643.5	55.7365
1644	55.0913
1644.5	53.9692
1645	52.8556
1645.5	52.3754
1646	52.6714
1646.5	53.615
1647	54.6554
1647.5	55.3191
1648	55.1891
1648.5	54.472
1649	53.4672
1649.5	52.5471
1650	51.9523
1650.5	51.826
1651	52.1569
1651.5	52.76
1652	53.374
1652.5	53.7457
1653	53.7666
1653.5	53.4406
1654	53.0099
1654.5	52.701
1655	52.6464
1655.5	52.7772
1656	52.9931
1656.5	53.1871
1657	53.3233
1657.5	53.3851
1658	53.3669
1658.5	53.2574
1659	53.0701
1659.5	52.8764
1660	52.7491
1660.5	52.735
1661	52.8155
1661.5	52.9631
1662	53.1565
1662.5	53.3688
1663	53.5042
1663.5	53.4331
1664	53.0472
1664.5	52.4356
1665	51.9026
1665.5	51.7274
1666	51.9614
1666.5	52.3622
1667	52.5189
1667.5	52.1667
1668	51.4677
1668.5	50.8809
1669	50.7918
1669.5	51.3537
1670	52.3554
1670.5	53.3455
1671	53.8519
1671.5	53.6978
1672	52.9556
1672.5	51.8101
1673	50.6758
1673.5	49.902
1674	49.8307
1674.5	50.3019
1675	50.9635
1675.5	51.3281
1676	51.1891
1676.5	50.5962
1677	49.997
1677.5	49.7875
1678	50.1302
1678.5	50.7245
1679	51.2872
1679.5	51.6331
1680	51.8635
1680.5	52.2183
1681	52.8849
1681.5	53.7484
1682	54.492
1682.5	54.7742
1683	54.4102
1683.5	53.4161
1684	52.227
1684.5	51.4011
1685	51.4371
1685.5	52.366
1686	53.9438
1686.5	55.4257
1687	56.1591
1687.5	55.4657
1688	53.7488
1688.5	51.693
1689	50.27
1689.5	49.9929
1690	51.0014
1690.5	52.6842
1691	54.1818
1691.5	54.7146
1692	54.3022
1692.5	53.3197
1693	52.3462
1693.5	51.7179
1694	51.4057
1694.5	51.0335
1695	50.3803
1695.5	49.5493
1696	48.9127
1696.5	48.6764
1697	48.7779
1697.5	48.7523
1698	48.2277
1698.5	47.2889
1699	46.5036
1699.5	46.417
1700	47.1638
1700.5	48.314
1701	49.176
1701.5	49.219
1702	48.5666
1702.5	47.7126
1703	47.1997
1703.5	47.3149
1704	48.1109
1704.5	49.4154
1705	51.1322
1705.5	52.9945
1706	54.6625
1706.5	55.6043
1707	55.5584
1707.5	54.5093
1708	52.791
1708.5	51.0732
1709	49.8639
1709.5	49.3731
1710	49.5116
1710.5	50.2132
1711	51.2801
1711.5	52.5144
1712	53.5596
1712.5	54.0722
1713	53.9211
1713.5	53.2915
1714	52.6306
1714.5	52.3115
1715	52.3951
1715.5	52.5906
1716	52.4313
1716.5	51.8222
1717	50.987
1717.5	50.3704
1718	50.2156
1718.5	50.5111
1719	50.9434
1719.5	51.2226
1720	51.3034
1720.5	51.379
1721	51.5654
1721.5	51.7908
1722	51.7949
1722.5	51.3719
1723	50.523
1723.5	49.616
1724	48.9826
1724.5	48.7385
1725	48.7424
1725.5	48.812
1726	48.8739
1726.5	49.0368
1727	49.4964
1727.5	50.1378
1728	50.677
1728.5	50.7041
1729	50.0853
1729.5	48.8706
1730	47.4701
1730.5	46.3078
1731	45.7896
1731.5	45.9735
1732	46.8491
1732.5	48.282
1733	49.8893
1733.5	51.2289
1734	51.7571
1734.5	51.2481
1735	49.7989
1735.5	48.0555
1736	46.6648
1736.5	46.343
1737	47.1213
1737.5	48.7339
1738	50.3815
1738.5	51.2918
1739	51.0471
1739.5	49.9483
1740	48.7031
1740.5	48.2206
1741	48.9362
1741.5	50.7401
1742	52.8827
1742.5	54.3798
1743	54.6498
1743.5	53.6723
1744	51.9963
1744.5	50.2463
1745	48.9729
1745.5	48.3285
1746	48.2259
1746.5	48.2797
1747	48.3109
1747.5	48.283
1748	48.2949
1748.5	48.4397
1749	48.6722
1749.5	48.8086
1750	48.6226
1750.5	48.1696
1751	47.6782
1751.5	47.4958
1752	47.6954
1752.5	48.0949
1753	48.2232
1753.5	47.7769
1754	46.8549
1754.5	46.0758
1755	45.9355
1755.5	46.7161
1756	47.9348
1756.5	48.985
1757	49.2457
1757.5	48.7561
1758	47.9664
1758.5	47.4534
1759	47.3552
1759.5	47.4695
1760	47.3664
1760.5	46.8743
1761	46.1813
1761.5	45.8568
1762	46.3013
1762.5	47.5036
1763	48.998
1763.5	50.3095
1764	51.1666
1764.5	51.6582
1765	52.0054
1765.5	52.365
1766	52.6235
1766.5	52.5016
1767	51.9309
1767.5	50.9921
1768	49.9818
1768.5	49.1704
1769	48.7835
1769.5	48.9188
1770	49.5883
1770.5	50.7423
1771	51.983
1771.5	52.8369
1772	52.7799
1772.5	51.8706
1773	50.5554
1773.5	49.7503
1774	49.9451
1774.5	50.9091
1775	51.6053
1775.5	51.2125
1776	49.3123
1776.5	46.6831
1777	44.3118
1777.5	43.184
1778	43.3747
1778.5	44.429
1779	45.621
1779.5	46.6187
1780	47.3175
1780.5	47.7776
1781	47.9295
1781.5	47.5974
1782	46.8428
1782.5	46.0033
1783	45.6773
1783.5	46.1729
1784	47.5446
1784.5	49.2528
1785	50.7568
1785.5	51.5773
1786	51.8235
1786.5	51.8176
1787	51.9562
1787.5	52.2134
1788	52.2119
1788.5	51.4453
1789	49.7868
1789.5	47.5303
1790	45.6059
1790.5	44.8441
1791	45.695
1791.5	47.4374
1792	49.2153
1792.5	50.149
1793	50.0488
1793.5	49.0829
1794	47.8637
1794.5	46.8093
1795	46.242
1795.5	46.1555
1796	46.5478
1796.5	47.3023
1797	48.1099
1797.5	48.6161
1798	48.6157
1798.5	48.2801
1799	48.0728
1799.5	48.4295
1800	49.285
1800.5	50.0962
1801	50.287
1801.5	49.6047
1802	48.3508
1802.5	47.1076
1803	46.3139
1803.5	45.9283
1804	45.6299
1804.5	45.1981
1805	44.8743
1805.5	45.0821
1806	46.1957
1806.5	47.9588
1807	49.8302
1807.5	51.0648
1808	51.3598
1808.5	50.7259
1809	49.7523
1809.5	48.8119
1810	48.124
1810.5	47.6389
1811	47.2676
1811.5	46.8852
1812	46.3791
1812.5	45.6198
1813	44.6097
1813.5	43.5764
1814	42.9565
1814.5	43.0137
1815	43.7307
1815.5	44.7286
1816	45.5008
1816.5	45.7991
1817	45.8255
1817.5	46.0058
1818	46.5939
1818.5	47.3285
1819	47.8233
1819.5	47.7535
1820	47.335
1820.5	46.9242
1821	46.8677
1821.5	47.0961
1822	47.2963
1822.5	47.1432
1823	46.6975
1823.5	46.2875
1824	46.3031
1824.5	46.9134
1825	48.0518
1825.5	49.3054
1826	50.2653
1826.5	50.5774
1827	50.2556
1827.5	49.5486
1828	48.8764
1828.5	48.4123
1829	48.0283
1829.5	47.3451
1830	46.1231
1830.5	44.5244
1831	43.1879
1831.5	42.8641
1832	43.8291
1832.5	45.5836
1833	47.3717
1833.5	48.4945
1834	48.7291
1834.5	48.1398
1835	47.1843
1835.5	46.1969
1836	45.5159
1836.5	45.3437
1837	45.8058
1837.5	46.7114
1838	47.735
1838.5	48.4798
1839	48.7764
1839.5	48.6464
1840	48.2335
1840.5	47.6983
1841	47.0948
1841.5	46.5217
1842	46.1639
1842.5	46.2699
1843	46.8216
1843.5	47.5773
1844	48.1296
1844.5	48.3027
1845	48.2146
1845.5	48.2767
1846	48.7524
1846.5	49.6084
1847	50.3804
1847.5	50.7297
1848	50.5121
1848.5	49.9924
1849	49.3997
1849.5	48.8488
1850	48.2923
1850.5	47.6974
1851	47.1705
1851.5	46.8623
1852	46.8133
1852.5	46.8019
1853	46.6332
1853.5	46.2722
1854	45.9992
1854.5	46.1046
1855	46.7185
1855.5	47.5639
1856	48.2551
1856.5	48.4709
1857	48.2092
1857.5	47.5738
1858	46.7028
1858.5	45.6465
1859	44.5377
1859.5	43.6716
1860	43.3677
1860.5	43.7422
1861	44.4635
1861.5	45.0371
1862	45.1048
1862.5	44.8474
1863	44.777
1863.5	45.2299
1864	46.1297
1864.5	46.9746
1865	47.3063
1865.5	46.9707
1866	46.3125
1866.5	45.7973
1867	45.758
1867.5	46.0935
1868	46.5532
1868.5	46.9526
1869	47.288
1869.5	47.5881
1870	47.7835
1870.5	47.7306
1871	47.284
1871.5	46.5463
1872	45.8155
1872.5	45.5424
1873	45.9459
1873.5	46.954
1874	48.2314
1874.5	49.2901
1875	49.7183
1875.5	49.294
1876	48.1829
1876.5	46.7216
1877	45.4929
1877.5	44.8872
1878	45.1754
1878.5	45.9919
1879	46.8703
1879.5	47.2838
1880	47.0669
1880.5	46.254
1881	45.2001
1881.5	44.2815
1882	43.8722
1882.5	44.0641
1883	44.7596
1883.5	45.6664
1884	46.398
1884.5	46.7679
1885	46.8886
1885.5	47.0449
1886	47.4408
1886.5	47.9576
1887	48.2888
1887.5	48.0812
1888	47.463
1888.5	46.8212
1889	46.7283
1889.5	47.3023
1890	48.2534
1890.5	48.8934
1891	48.8431
1891.5	47.996
1892	46.7543
1892.5	45.4921
1893	44.5303
1893.5	43.9422
1894	43.7606
1894.5	43.9563
1895	44.3689
1895.5	44.7605
1896	44.8625
1896.5	44.6602
1897	44.3724
1897.5	44.349
1898	44.7389
1898.5	45.402
1899	45.9561
1899.5	46.1178
1900	45.888
1900.5	45.5308
1901	45.3219
1901.5	45.3458
1902	45.5114
1902.5	45.7295
1903	46.01
1903.5	46.3967
1904	46.8221
1904.5	47.0923
1905	46.9989
1905.5	46.5359
1906	45.9057
1906.5	45.3764
1907	45.0691
1907.5	44.9179
1908	44.7429
1908.5	44.4338
1909	43.9565
1909.5	43.3077
1910	42.5207
1910.5	41.7039
1911	41.1478
1911.5	41.1318
1912	41.8964
1912.5	43.111
1913	44.3121
1913.5	44.9566
1914	44.9852
1914.5	44.6488
1915	44.3787
1915.5	44.3165
1916	44.3768
1916.5	44.3743
1917	44.2827
1917.5	44.2223
1918	44.2828
1918.5	44.4122
1919	44.4316
1919.5	44.282
1920	44.0955
1920.5	44.1818
1921	44.6828
1921.5	45.515
1922	46.2951
1922.5	46.7139
1923	46.5631
1923.5	45.9814
1924	45.1689
1924.5	44.4212
1925	43.9208
1925.5	43.7729
1926	43.878
1926.5	44.0904
1927	44.2754
1927.5	44.424
1928	44.6069
1928.5	44.8705
1929	45.1398
1929.5	45.2903
1930	45.2865
1930.5	45.2433
1931	45.3441
1931.5	45.6003
1932	45.8177
1932.5	45.6043
1933	44.7978
1933.5	43.4355
1934	41.8694
1934.5	40.4853
1935	39.6157
1935.5	39.4588
1936	40.1067
1936.5	41.6124
1937	43.4666
1937.5	45.067
1938	45.7427
1938.5	45.5218
1939	44.8611
1939.5	44.559
1940	44.8945
1940.5	45.5769
1941	45.8743
1941.5	45.5261
1942	44.9542
1942.5	44.8746
1943	45.5502
1943.5	46.4437
1944	46.7161
1944.5	45.7934
1945	44.0716
1945.5	42.3952
1946	41.7084
1946.5	42.147
1947	43.4239
1947.5	44.9547
1948	46.2235
1948.5	46.8567
1949	46.6512
1949.5	45.7051
1950	44.3147
1950.5	43.1007
1951	42.4325
1951.5	42.3255
1952	42.2274
1952.5	41.7049
1953	40.7834
1953.5	40.0901
1954	40.3906
1954.5	41.8578
1955	43.8554
1955.5	45.2089
1956	45.0803
1956.5	43.5337
1957	41.4744
1957.5	40.0878
1958	40.0824
1958.5	41.3159
1959	42.9498
1959.5	44.1124
1960	44.4492
1960.5	44.2496
1961	44.1591
1961.5	44.5894
1962	45.452
1962.5	46.1657
1963	46.2496
1963.5	45.5801
1964	44.6603
1964.5	44.0415
1965	44.0281
1965.5	44.3173
1966	44.4776
1966.5	44.1281
1967	43.408
1967.5	42.6722
1968	42.3772
1968.5	42.6332
1969	43.3315
1969.5	44.1169
1970	44.7752
1970.5	45.2532
1971	45.6804
1971.5	46.1014
1972	46.3339
1972.5	46.0909
1973	45.1053
1973.5	43.4892
1974	41.7732
1974.5	40.8112
1975	41.292
1975.5	43.3956
1976	46.8354
1976.5	50.5273
1977	53.6252
1977.5	55.6481
1978	56.9203
1978.5	57.9015
1979	58.8145
1979.5	59.2895
1980	58.4296
1980.5	55.9425
1981	52.2417
1981.5	48.4186
1982	45.4362
1982.5	43.7076
1983	42.9903
1983.5	42.8164
1984	42.965
1984.5	43.2787
1985	43.5403
1985.5	43.2786
1986	42.3226
1986.5	40.9264
1987	39.9854
1987.5	40.2101
1988	41.8058
1988.5	43.9233
1989	45.5331
1989.5	45.8457
1990	45.2468
1990.5	44.3633
1991	43.7071
1991.5	43.1981
1992	42.549
1992.5	41.6823
1993	40.9668
1993.5	40.9538
1994	41.7512
1994.5	42.9137
1995	43.632
1995.5	43.5082
1996	42.7284
1996.5	42.0535
1997	42.072
1997.5	42.8663
1998	43.8178
1998.5	44.3103
1999	44.0664
1999.5	43.5472
2000	43.2047
2000.5	43.2286
2001	43.2926
2001.5	43.0778
2002	42.5907
2002.5	42.2411
2003	42.471
2003.5	43.2499
2004	44.1148
2004.5	44.4233
2005	44.0238
2005.5	43.1764
2006	42.426
2006.5	42.0818
2007	42.154
2007.5	42.4258
2008	42.7693
2008.5	43.2256
2009	43.8256
2009.5	44.4623
2010	44.8961
2010.5	45.0229
2011	44.87
2011.5	44.5621
2012	44.1722
2012.5	43.6673
2013	43.0545
2013.5	42.4628
2014	42.1259
2014.5	42.1292
2015	42.3835
2015.5	42.662
2016	42.8001
2016.5	42.7653
2017	42.5842
2017.5	42.2269
2018	41.5717
2018.5	40.6649
2019	39.7784
2019.5	39.465
2020	39.9636
2020.5	41.1526
2021	42.4022
2021.5	43.011
2022	42.5223
2022.5	41.1553
2023	39.6291
2023.5	38.8825
2024	39.4177
2024.5	41.1348
2025	43.3989
2025.5	45.2794
2026	46.1988
2026.5	46.0577
2027	45.2885
2027.5	44.3078
2028	43.4735
2028.5	42.9371
2029	42.8596
2029.5	43.2038
2030	43.8078
2030.5	44.2399
2031	44.1299
2031.5	43.3625
2032	42.2944
2032.5	41.3579
2033	40.7986
2033.5	40.4698
2034	40.1772
2034.5	39.9015
2035	39.8443
2035.5	40.1895
2036	40.8797
2036.5	41.5758
2037	41.9286
2037.5	41.8135
2038	41.394
2038.5	40.9746
2039	40.8512
2039.5	41.1357
2040	41.7489
2040.5	42.3763
2041	42.7481
2041.5	42.7878
2042	42.7122
2042.5	42.8022
2043	43.1002
2043.5	43.3579
2044	43.1651
2044.5	42.5596
2045	41.8936
2045.5	41.738
2046	42.239
2046.5	43.1913
2047	44.0122
2047.5	44.2992
2048	43.8448
2048.5	42.9542
2049	42.0391
2049.5	41.6107
2050	41.7729
2050.5	42.286
2051	42.4903
2051.5	41.983
2052	40.8581
2052.5	39.9881
2053	40.1084
2053.5	41.5452
2054	43.4597
2054.5	45.0231
2055	45.7278
2055.5	45.8999
2056	45.8864
2056.5	45.6744
2057	44.9557
2057.5	43.562
2058	42.0956
2058.5	41.2756
2059	41.5271
2059.5	42.2384
2060	42.7592
2060.5	42.7999
2061	42.732
2061.5	42.9683
2062	43.4524
2062.5	43.7825
2063	43.6054
2063.5	43.1358
2064	42.6958
2064.5	42.3785
2065	41.8835
2065.5	40.9655
2066	39.8872
2066.5	39.2461
2067	39.5733
2067.5	40.6438
2068	41.8743
2068.5	42.6157
2069	42.7402
2069.5	42.3119
2070	41.4226
2070.5	40.2108
2071	38.9387
2071.5	38.1997
2072	38.4069
2072.5	39.6634
2073	41.2416
2073.5	42.4565
2074	42.8614
2074.5	42.7284
2075	42.3541
2075.5	41.8692
2076	41.2349
2076.5	40.5613
2077	40.2975
2077.5	40.7672
2078	41.9274
2078.5	42.9804
2079	43.2218
2079.5	42.3392
2080	40.9068
2080.5	39.6139
2081	38.9561
2081.5	38.884
2082	39.2274
2082.5	39.8217
2083	40.6692
2083.5	41.7438
2084	42.784
2084.5	43.5115
2085	43.7889
2085.5	43.8039
2086	43.7932
2086.5	43.8728
2087	43.9375
2087.5	43.7843
2088	43.4061
2088.5	42.9708
2089	42.7831
2089.5	42.944
2090	43.3302
2090.5	43.5171
2091	43.1587
2091.5	42.0962
2092	40.7674
2092.5	39.7924
2093	39.9245
2093.5	41.141
2094	43.0542
2094.5	44.8282
2095	45.8561
2095.5	45.8615
2096	45.1417
2096.5	44.1933
2097	43.5175
2097.5	43.3519
2098	43.6599
2098.5	44.168
2099	44.5057
2099.5	44.491
2100	44.2763
2100.5	44.2252
2101	44.6549
2101.5	45.4477
2102	46.1706
2102.5	46.1502
2103	45.1505
2103.5	43.2741
2104	41.1099
2104.5	39.43
2105	38.8789
2105.5	39.5821
2106	41.04
2106.5	42.4832
2107	43.2306
2107.5	43.1561
2108	42.5408
2108.5	41.8974
2109	41.4188
2109.5	41.0383
2110	40.6661
2110.5	40.3848
2111	40.3295
2111.5	40.4336
2112	40.4168
2112.5	40.1262
2113	39.7643
2113.5	39.8945
2114	40.7576
2114.5	42.1454
2115	43.2723
2115.5	43.5448
2116	42.6851
2116.5	41.1455
2117	39.4564
2117.5	38.1818
2118	37.617
2118.5	37.9593
2119	39.1674
2119.5	40.7474
2120	42.0543
2120.5	42.526
2121	42.1899
2121.5	41.5246
2122	41.2985
2122.5	41.8562
2123	42.9945
2123.5	43.9321
2124	44.0018
2124.5	43.0841
2125	41.8418
2125.5	41.1977
2126	41.6184
2126.5	42.7463
2127	43.6804
2127.5	43.8602
2128	43.4894
2128.5	43.3969
2129	43.955
2129.5	44.7394
2130	44.6874
2130.5	43.4107
2131	41.3738
2131.5	39.8174
2132	39.3264
2132.5	39.6483
2133	39.8708
2133.5	39.5899
2134	39.0922
2134.5	38.8129
2135	38.7611
2135.5	38.5021
2136	37.9176
2136.5	37.5235
2137	38.0214
2137.5	39.5395
2138	41.3285
2138.5	42.3955
2139	42.3175
2139.5	41.6672
2140	41.2882
2140.5	41.6771
2141	42.4777
2141.5	43.1473
2142	43.2858
2142.5	43.0904
2143	42.8455
2143.5	42.7091
2144	42.5303
2144.5	42.0592
2145	41.251
2145.5	40.3616
2146	39.8659
2146.5	40.0251
2147	40.7461
2147.5	41.5156
2148	41.7675
2148.5	41.242
2149	40.2433
2149.5	39.3578
2150	39.0824
2150.5	39.4155
2151	40.0586
2151.5	40.6544
2152	41.0514
2152.5	41.2575
2153	41.3035
2153.5	41.1888
2154	40.8918
2154.5	40.5254
2155	40.2896
2155.5	40.4493
2156	41.0932
2156.5	42.1781
2157	43.5203
2157.5	44.7635
2158	45.5441
2158.5	45.5402
2159	44.8101
2159.5	43.6346
2160	42.6361
2160.5	42.2176
2161	42.4734
2161.5	42.7973
2162	42.559
2162.5	41.3652
2163	39.6936
2163.5	38.3163
2164	37.8553
2164.5	38.0893
2165	38.3067
2165.5	37.9259
2166	37.1523
2166.5	36.9049
2167	37.7642
2167.5	39.5562
2168	41.2116
2168.5	41.9093
2169	41.566
2169.5	41.1168
2170	41.3185
2170.5	42.2942
2171	43.1468
2171.5	43.0877
2172	41.8381
2172.5	40.1843
2173	39.0452
2173.5	39.0902
2174	40.1585
2174.5	41.729
2175	43.0063
2175.5	43.5863
2176	43.3979
2176.5	43.0653
2177	43.223
2177.5	44.3072
2178	45.9145
2178.5	47.194
2179	47.2263
2179.5	45.9227
2180	43.8411
2180.5	42.1162
2181	41.3314
2181.5	41.455
2182	41.7517
2182.5	41.7118
2183	41.2696
2183.5	40.759
2184	40.4605
2184.5	40.3391
2185	40.2152
2185.5	39.9901
2186	39.7647
2186.5	39.5966
2187	39.3502
2187.5	38.8608
2188	38.1767
2188.5	37.7387
2189	37.919
2189.5	38.8088
2190	39.8671
2190.5	40.6241
2191	40.9422
2191.5	41.2595
2192	41.9437
2192.5	42.9231
2193	43.6683
2193.5	43.6255
2194	42.7603
2194.5	41.4863
2195	40.3891
2195.5	39.8946
2196	40.2059
2196.5	41.3753
2197	42.9785
2197.5	44.3717
2198	44.6858
2198.5	43.6367
2199	41.4464
2199.5	39.182
2200	37.6687
2200.5	37.427
2201	38.0186
2201.5	38.9944
2202	39.9557
2202.5	40.7871
2203	41.4657
2203.5	41.9692
2204	42.2772
2204.5	42.3775
2205	42.3563
2205.5	42.2882
2206	42.2588
2206.5	42.3219
2207	42.4911
2207.5	42.7143
2208	42.9614
2208.5	43.3234
2209	43.9326
2209.5	44.722
2210	45.2381
2210.5	44.9852
2211	43.8545
2211.5	42.4591
2212	41.6495
2212.5	41.7707
2213	42.1421
2213.5	41.8883
2214	40.6679
2214.5	39.3552
2215	38.8439
2215.5	39.4897
2216	40.4747
2216.5	41.1176
2217	41.4294
2217.5	42.01
2218	43.1478
2218.5	44.1113
2219	43.9896
2219.5	42.2926
2220	40.0519
2220.5	38.3652
2221	37.8773
2221.5	38.0463
2222	38.2672
2222.5	38.381
2223	38.7013
2223.5	39.4035
2224	40.0042
2224.5	39.9717
2225	39.1828
2225.5	38.4475
2226	38.5357
2226.5	39.6624
2227	41.0973
2227.5	41.9446
2228	41.7454
2228.5	40.7983
2229	39.7802
2229.5	39.3932
2230	39.9241
2230.5	41.2518
2231	42.6666
2231.5	43.438
2232	43.0852
2232.5	41.9026
2233	40.5579
2233.5	39.7733
2234	39.6663
2234.5	39.9114
2235	39.9998
2235.5	39.8195
2236	39.6191
2236.5	39.6855
2237	40.1305
2237.5	40.7841
2238	41.3871
2238.5	41.6417
2239	41.4136
2239.5	40.7711
2240	40.0929
2240.5	39.8789
2241	40.3738
2241.5	41.2356
2242	41.7923
2242.5	41.5819
2243	40.9834
2243.5	40.7516
2244	41.54
2244.5	42.8424
2245	43.7145
2245.5	43.2033
2246	41.6095
2246.5	39.8392
2247	39.0022
2247.5	39.2814
2248	40.2406
2248.5	41.0559
2249	41.4394
2249.5	41.5798
2250	41.8787
2250.5	42.4044
2251	42.7697
2251.5	42.5543
2252	41.6235
2252.5	40.5175
2253	39.9099
2253.5	40.2863
2254	41.111
2254.5	41.5041
2255	40.6124
2255.5	38.8514
2256	37.285
2256.5	37.121
2257	38.3214
2257.5	39.9734
2258	40.8184
2258.5	40.602
2259	39.9618
2259.5	39.8571
2260	40.5254
2260.5	41.4426
2261	41.9667
2261.5	41.8304
2262	41.1819
2262.5	40.1523
2263	38.7275
2263.5	37.2729
2264	36.4993
2264.5	37.3755
2265	39.6307
2265.5	42.1537
2266	43.1398
2266.5	41.9691
2267	39.0699
2267.5	36.2399
2268	34.8247
2268.5	35.6241
2269	37.7224
2269.5	39.9945
2270	41.1746
2270.5	40.9798
2271	39.726
2271.5	38.4109
2272	37.7541
2272.5	38.0495
2273	38.8494
2273.5	39.7209
2274	40.4451
2274.5	41.1048
2275	41.7098
2275.5	42.0104
2276	41.7573
2276.5	40.8425
2277	39.5718
2277.5	38.2786
2278	37.1494
2278.5	36.1507
2279	35.3048
2279.5	34.8421
2280	34.9624
2280.5	35.7891
2281	37.1318
2281.5	38.6132
2282	39.8334
2282.5	40.5197
2283	40.6242
2283.5	40.2627
2284	39.8655
2284.5	39.7793
2285	40.1884
2285.5	40.8676
2286	41.4522
2286.5	41.6096
2287	41.3342
2287.5	40.8254
2288	40.4237
2288.5	40.2789
2289	40.325
2289.5	40.2682
2290	39.8525
2290.5	39.0082
2291	37.9754
2291.5	37.1319
2292	36.7873
2292.5	36.9368
2293	37.3082
2293.5	37.4311
2294	37.0454
2294.5	36.2351
2295	35.5124
2295.5	35.4714
2296	36.4385
2296.5	38.1288
2297	39.8484
2297.5	40.7435
2298	40.4475
2298.5	39.1092
2299	37.6581
2299.5	36.895
2300	37.1754
2300.5	38.021
2301	38.6958
2301.5	38.6452
2302	37.9989
2302.5	37.3669
2303	37.3452
2303.5	37.9959
2304	38.7977
2304.5	39.0908
2305	38.5316
2305.5	37.3291
2306	35.9691
2306.5	34.8971
2307	34.3741
2307.5	34.5238
2308	35.5124
2308.5	37.0808
2309	38.8288
2309.5	40.0814
2310	40.4854
2310.5	39.9348
2311	38.7841
2311.5	37.4512
2312	36.3255
2312.5	35.6758
2313	35.6783
2313.5	36.4584
2314	37.7553
2314.5	39.2194
2315	40.3265
2315.5	40.7776
2316	40.4439
2316.5	39.6829
2317	38.9777
2317.5	38.8929
2318	39.4933
2318.5	40.4791
2319	41.1948
2319.5	41.2135
2320	40.4327
2320.5	39.2856
2321	38.2924
2321.5	37.8394
2322	37.801
2322.5	37.8336
2323	37.5649
2323.5	37.0867
2324	36.8154
2324.5	37.2557
2325	38.3086
2325.5	39.4478
2326	40.1445
2326.5	40.681
2327	42.2279
2327.5	45.3992
2328	49.6334
2328.5	52.8689
2329	53.483
2329.5	51.0339
2330	47.0716
2330.5	43.4133
2331	41.0759
2331.5	39.6423
2332	38.5148
2332.5	37.6026
2333	37.2379
2333.5	37.5648
2334	38.1126
2334.5	38.2953
2335	38.0112
2335.5	37.8299
2336	38.1479
2336.5	38.8846
2337	39.4168
2337.5	39.3696
2338	38.7969
2338.5	38.1862
2339	37.8655
2339.5	37.8441
2340	37.8779
2340.5	37.7236
2341	37.3278
2341.5	36.8391
2342	36.625
2342.5	36.9974
2343	38.0071
2343.5	39.1884
2344	39.8073
2344.5	39.3118
2345	38.0027
2345.5	36.8266
2346	36.9045
2346.5	38.2755
2347	40.0534
2347.5	40.6323
2348	39.3963
2348.5	36.7966
2349	34.5217
2349.5	33.8502
2350	35.2176
2350.5	37.4781
2351	39.4874
2351.5	40.4306
2352	40.3888
2352.5	39.5037
2353	37.9038
2353.5	36.0172
2354	34.577
2354.5	34.5139
2355	35.946
2355.5	38.2039
2356	39.809
2356.5	39.9674
2357	38.7765
2357.5	37.5863
2358	37.3901
2358.5	38.409
2359	39.8631
2359.5	40.8342
2360	40.792
2360.5	39.9209
2361	38.7456
2361.5	37.8637
2362	37.458
2362.5	37.3484
2363	37.1544
2363.5	36.6998
2364	36.2026
2364.5	36.0977
2365	36.8208
2365.5	38.3073
2366	40.1366
2366.5	41.5638
2367	42.071
2367.5	41.5233
2368	40.3743
2368.5	39.4102
2369	39.1907
2369.5	39.5941
2370	39.9874
2370.5	39.6222
2371	38.4511
2371.5	36.9695
2372	35.9445
2372.5	35.6742
2373	36.0601
2373.5	36.6131
2374	36.9058
2374.5	36.69
2375	36.0835
2375.5	35.3923
2376	35.0862
2376.5	35.4375
2377	36.5052
2377.5	38.047
2378	39.6085
2378.5	40.7946
2379	41.2367
2379.5	40.7559
2380	39.2237
2380.5	37.1762
2381	35.4039
2381.5	34.984
2382	36.0423
2382.5	38.0339
2383	39.5821
2383.5	39.752
2384	38.4923
2384.5	37.0063
2385	36.3705
2385.5	37.1539
2386	38.5783
2386.5	39.7404
2387	39.9471
2387.5	39.4217
2388	38.5545
2388.5	37.6224
2389	36.5917
2389.5	35.4712
2390	34.6614
2390.5	34.5661
2391	35.3264
2391.5	36.284
2392	36.8214
2392.5	36.6986
2393	36.3717
2393.5	36.347
2394	36.6577
2394.5	36.8549
2395	36.4443
2395.5	35.6502
2396	35.0832
2396.5	35.2899
2397	35.932
2397.5	36.3298
2398	35.9234
2398.5	34.9908
2399	34.2687
2399.5	34.3745
2400	35.2178
2400.5	36.216
2401	36.759
2401.5	36.6902
2402	36.2329
2402.5	35.6768
2403	35.1692
2403.5	34.8598
2404	34.8646
2404.5	35.175
2405	35.3689
2405.5	35.0131
2406	33.9687
2406.5	32.9476
2407	32.8357
2407.5	34.0188
2408	35.7234
2408.5	36.7972
2409	36.5519
2409.5	35.4006
2410	34.5211
2410.5	34.9234
2411	36.7358
2411.5	39.0889
2412	40.691
2412.5	40.6459
2413	39.1085
2413.5	37.0202
2414	35.3496
2414.5	34.5876
2415	34.6786
2415.5	35.4358
2416	36.5477
2416.5	37.8041
2417	38.7056
2417.5	38.7426
2418	37.633
2418.5	36.1769
2419	35.5183
2419.5	36.6532
2420	38.9476
2420.5	41.1019
2421	41.6318
2421.5	40.6498
2422	39.0967
2422.5	38.1835
2423	37.9292
2423.5	37.4321
2424	35.9747
2424.5	33.9913
2425	32.8348
2425.5	33.2402
2426	34.9303
2426.5	36.6885
2427	37.6692
2427.5	37.8396
2428	37.8328
2428.5	37.9273
2429	37.7999
2429.5	37.0697
2430	35.8305
2430.5	34.6805
2431	34.1877
2431.5	34.5752
2432	35.6128
2432.5	36.8001
2433	37.6425
2433.5	37.8472
2434	37.5809
2434.5	37.3242
2435	37.4377
2435.5	37.7753
2436	37.7229
2436.5	37.0267
2437	36.036
2437.5	35.5979
2438	35.9451
2438.5	36.5019
2439	36.2681
2439.5	35.0784
2440	33.6386
2440.5	32.9159
2441	33.2552
2441.5	34.2807
2442	35.3867
2442.5	36.2807
2443	36.9338
2443.5	37.3183
2444	37.3097
2444.5	37.0465
2445	36.8288
2445.5	37.0471
2446	37.711
2446.5	38.5916
2447	39.2262
2447.5	39.2882
2448	38.5364
2448.5	37.2332
2449	35.9126
2449.5	35.3155
2450	35.6171
2450.5	36.5372
2451	37.3207
2451.5	37.4755
2452	36.9473
2452.5	36.1827
2453	35.5454
2453.5	35.1171
2454	34.7047
2454.5	34.1934
2455	33.6551
2455.5	33.3643
2456	33.6621
2456.5	34.7583
2457	36.3601
2457.5	37.7906
2458	38.2744
2458.5	37.756
2459	36.8526
2459.5	36.5304
2460	37.0773
2460.5	37.8425
2461	37.8381
2461.5	36.6177
2462	34.903
2462.5	33.78
2463	33.8825
2463.5	34.6552
2464	35.3387
2464.5	35.4075
2465	35.1295
2465.5	34.8795
2466	34.8078
2466.5	34.692
2467	34.33
2467.5	33.9057
2468	33.7645
2468.5	34.227
2469	35.1399
2469.5	36.1992
2470	36.9889
2470.5	37.297
2471	37.0412
2471.5	36.4562
2472	35.9659
2472.5	36.0535
2473	36.8851
2473.5	38.2349
2474	39.4962
2474.5	40.0126
2475	39.39
2475.5	37.6658
2476	35.5659
2476.5	33.8795
2477	33.228
2477.5	33.6168
2478	34.7166
2478.5	35.8556
2479	36.7053
2479.5	37.2191
2480	37.5773
2480.5	37.7889
2481	37.7064
2481.5	37.2986
2482	36.6964
2482.5	36.1788
2483	35.8396
2483.5	35.5969
2484	35.3786
2484.5	35.3937
2485	36.0622
2485.5	37.3444
2486	38.7124
2486.5	39.1877
2487	38.3909
2487.5	36.697
2488	35.4822
2488.5	35.6736
2489	37.2127
2489.5	38.7534
2490	39.17
2490.5	38.1255
2491	36.4411
2491.5	35.0572
2492	34.4151
2492.5	34.2718
2493	34.2817
2493.5	34.4041
2494	34.78
2494.5	35.3672
2495	35.8152
2495.5	35.8405
2496	35.5538
2496.5	35.3308
2497	35.3759
2497.5	35.4269
2498	35.1973
2498.5	34.6865
2499	34.3592
2499.5	34.5612
2500	35.1444
2500.5	35.4895
2501	35.1782
2501.5	34.5679
2502	34.3419
2502.5	35.0391
2503	36.2415
2503.5	37.2291
2504	37.3166
2504.5	36.6702
2505	35.7711
2505.5	35.0981
2506	34.78
2506.5	34.8841
2507	35.3824
2507.5	36.1272
2508	36.7215
2508.5	36.8227
2509	36.5027
2509.5	36.2207
2510	36.2209
2510.5	36.2924
2511	35.9853
2511.5	35.3365
2512	34.9139
2512.5	35.1568
2513	35.7137
2513.5	35.6704
2514	34.7533
2514.5	33.4661
2515	32.8826
2515.5	33.3785
2516	34.6764
2516.5	35.9304
2517	36.6921
2517.5	36.642
2518	35.754
2518.5	34.1361
2519	32.5124
2519.5	31.8824
2520	32.8335
2520.5	34.4927
2521	35.5461
2521.5	35.2063
2522	34.2704
2522.5	33.8744
2523	34.7035
2523.5	35.8638
2524	36.2528
2524.5	35.5172
2525	34.5304
2525.5	34.325
2526	35.1857
2526.5	36.4792
2527	37.2593
2527.5	37.2066
2528	36.7059
2528.5	36.3454
2529	36.206
2529.5	35.9388
2530	35.1829
2530.5	34.2015
2531	33.791
2531.5	34.5411
2532	36.2199
2532.5	38.0347
2533	39.209
2533.5	39.505
2534	39.0461
2534.5	38.037
2535	36.4318
2535.5	34.4295
2536	32.4982
2536.5	31.217
2537	30.619
2537.5	30.3398
2538	29.9237
2538.5	29.4499
2539	29.4228
2539.5	30.3638
2540	32.1575
2540.5	34.3012
2541	35.9072
2541.5	36.4037
2542	35.4416
2542.5	33.8789
2543	32.6017
2543.5	32.373
2544	32.896
2544.5	33.444
2545	33.4547
2545.5	33.3643
2546	34.1714
2546.5	36.0278
2547	38.0717
2547.5	38.8317
2548	38.0809
2548.5	36.5695
2549	35.6244
2549.5	35.396
2550	35.2332
2550.5	34.5962
2551	33.9009
2551.5	34.1147
2552	35.2661
2552.5	36.3496
2553	35.8708
2553.5	33.9078
2554	31.5484
2554.5	30.4254
2555	30.951
2555.5	32.5743
2556	33.919
2556.5	34.376
2557	34.0005
2557.5	33.5073
2558	33.3324
2558.5	33.5536
2559	33.8272
2559.5	33.7818
2560	33.3822
2560.5	32.9769
2561	33.1281
2561.5	33.9993
2562	35.2372
2562.5	35.9054
2563	35.4683
2563.5	34.0904
2564	32.7686
2564.5	32.3479
2565	33.1195
2565.5	34.3807
2566	35.4227
2566.5	36.0174
2567	36.5782
2567.5	37.2962
2568	37.8073
2568.5	37.5814
2569	36.4178
2569.5	34.9757
2570	33.9932
2570.5	33.8216
2571	34.0998
2571.5	34.4832
2572	34.8938
2572.5	35.4447
2573	36.0435
2573.5	36.2544
2574	35.795
2574.5	34.6743
2575	33.4232
2575.5	32.5291
2576	32.3004
2576.5	32.5043
2577	32.9487
2577.5	33.5591
2578	34.3279
2578.5	35.1655
2579	35.7188
2579.5	35.7797
2580	35.4648
2580.5	35.3452
2581	35.7603
2581.5	36.5268
2582	36.8467
2582.5	36.2157
2583	34.9659
2583.5	33.9693
2584	33.8623
2584.5	34.4871
2585	35.2194
2585.5	35.4335
2586	35.1407
2586.5	34.6311
2587	34.3415
2587.5	34.5189
2588	35.2281
2588.5	36.2159
2589	37.0842
2589.5	37.535
2590	37.5084
2590.5	37.0094
2591	35.9354
2591.5	34.5407
2592	33.4151
2592.5	33.4084
2593	34.5042
2593.5	35.9751
2594	36.5789
2594.5	35.9493
2595	34.6779
2595.5	33.9013
2596	33.9397
2596.5	34.4417
2597	34.8111
2597.5	34.8836
2598	34.8285
2598.5	34.7888
2599	34.7977
2599.5	34.9194
2600	35.1737
2600.5	35.2968
2601	34.8047
2601.5	33.5827
2602	32.1863
2602.5	31.3988
2603	31.5426
2603.5	32.1338
2604	32.6111
2604.5	33.0126
2605	33.8093
2605.5	35.0178
2606	35.8848
2606.5	35.6504
2607	34.2611
2607.5	32.7353
2608	31.9144
2608.5	32.0107
2609	32.5544
2609.5	33.19
2610	33.8657
2610.5	34.5494
2611	35.0783
2611.5	35.3316
2612	35.5144
2612.5	35.7913
2613	35.9069
2613.5	35.5249
2614	34.7855
2614.5	34.5794
2615	35.4151
2615.5	36.7866
2616	37.134
2616.5	35.8226
2617	33.8271
2617.5	32.8136
2618	33.5911
2618.5	35.1915
2619	36.212
2619.5	36.0362
2620	35.305
2620.5	34.5148
2621	33.6586
2621.5	32.6457
2622	31.9452
2622.5	32.3832
2623	33.8717
2623.5	35.4806
2624	35.983
2624.5	35.2966
2625	34.5141
2625.5	34.6749
2626	35.7224
2626.5	36.6569
2627	36.7534
2627.5	36.0849
2628	35.3947
2628.5	34.8586
2629	34.1132
2629.5	33.0277
2630	32.2285
2630.5	32.951
2631	35.0044
2631.5	37.244
2632	37.9107
2632.5	36.6825
2633	34.451
2633.5	33.0394
2634	33.087
2634.5	34.2993
2635	35.5067
2635.5	35.9902
2636	35.4792
2636.5	34.5353
2637	33.7162
2637.5	33.493
2638	33.8262
2638.5	34.3859
2639	34.7581
2639.5	34.9396
2640	35.1796
2640.5	35.6043
2641	36.0934
2641.5	36.3853
2642	36.4339
2642.5	36.2544
2643	35.8661
2643.5	35.3311
2644	34.8853
2644.5	34.8022
2645	35.0393
2645.5	35.2663
2646	35.2856
2646.5	35.2442
2647	35.3988
2647.5	35.5288
2648	35.1722
2648.5	34.3875
2649	33.8354
2649.5	34.3632
2650	35.5032
2650.5	36.2235
2651	35.7507
2651.5	34.7079
2652	34.1533
2652.5	34.5808
2653	35.2358
2653.5	35.1708
2654	34.3334
2654.5	33.3538
2655	33.0247
2655.5	33.2273
2656	33.4926
2656.5	33.4234
2657	33.1526
2657.5	33.095
2658	33.6243
2658.5	34.6978
2659	36.013
2659.5	37.018
2660	37.3091
2660.5	36.6774
2661	35.5919
2661.5	34.5356
2662	33.9417
2662.5	33.847
2663	34.1104
2663.5	34.4311
2664	34.6848
2664.5	34.8298
2665	34.8793
2665.5	34.8137
2666	34.6317
2666.5	34.372
2667	34.0233
2667.5	33.5384
2668	32.9426
2668.5	32.4626
2669	32.3897
2669.5	32.798
2670	33.4596
2670.5	34.002
2671	34.3273
2671.5	34.6887
2672	35.2197
2672.5	35.7385
2673	35.8694
2673.5	35.5307
2674	35.0317
2674.5	34.7539
2675	34.7554
2675.5	34.813
2676	34.6782
2676.5	34.2551
2677	33.6089
2677.5	32.8937
2678	32.368
2678.5	32.278
2679	32.6094
2679.5	33.1012
2680	33.4699
2680.5	33.6805
2681	33.9218
2681.5	34.3302
2682	34.925
2682.5	35.6299
2683	36.2908
2683.5	36.4246
2684	35.5803
2684.5	33.7916
2685	31.9258
2685.5	31.102
2686	31.8905
2686.5	33.4688
2687	34.6274
2687.5	34.6729
2688	34.0062
2688.5	33.3021
2689	33.1818
2689.5	33.7348
2690	34.9336
2690.5	36.3843
2691	37.3047
2691.5	36.9174
2692	35.398
2692.5	33.6416
2693	32.6742
2693.5	32.5985
2694	32.8276
2694.5	32.8253
2695	32.8509
2695.5	33.4838
2696	34.9456
2696.5	36.5341
2697	37.2733
2697.5	36.7911
2698	35.5298
2698.5	34.5112
2699	34.3934
2699.5	35.0133
2700	35.5077
2700.5	35.2365
2701	34.2402
2701.5	33.4328
2702	33.314
2702.5	33.7039
2703	33.8424
2703.5	33.504
2704	33.3362
2704.5	33.9851
2705	35.4299
2705.5	36.7862
2706	37.2745
2706.5	36.7584
2707	35.796
2707.5	34.8711
2708	34.3773
2708.5	34.4647
2709	35.0706
2709.5	35.6993
2710	35.6771
2710.5	34.6679
2711	33.3971
2711.5	32.831
2712	33.4419
2712.5	34.4264
2713	34.7336
2713.5	33.7728
2714	32.347
2714.5	31.4129
2715	31.6952
2715.5	32.8452
2716	33.8289
2716.5	34.0901
2717	33.687
2717.5	32.9743
2718	32.5047
2718.5	32.5121
2719	33.0031
2719.5	33.8487
2720	34.7767
2720.5	35.5335
2721	35.8474
2721.5	35.7205
2722	35.3981
2722.5	35.0322
2723	34.5443
2723.5	33.7859
2724	32.9593
2724.5	32.6471
2725	33.1427
2725.5	33.9354
2726	34.0827
2726.5	33.1881
2727	31.9481
2727.5	31.5077
2728	32.5397
2728.5	34.4756
2729	35.9752
2729.5	36.3235
2730	35.7805
2730.5	35.2
2731	35.0479
2731.5	35.0805
2732	34.9193
2732.5	34.476
2733	33.8938
2733.5	33.1269
2734	31.9828
2734.5	30.561
2735	29.5345
2735.5	29.5703
2736	30.5478
2736.5	31.6573
2737	32.0388
2737.5	31.621
2738	31.1525
2738.5	31.2288
2739	31.8105
2739.5	32.255
2740	32.0396
2740.5	31.3361
2741	30.8053
2741.5	31.1453
2742	32.5052
2742.5	34.2076
2743	35.3787
2743.5	35.4402
2744	34.4681
2744.5	33.2506
2745	32.4728
2745.5	32.3357
2746	32.5742
2746.5	32.7394
2747	32.6367
2747.5	32.3554
2748	32.1131
2748.5	32.1396
2749	32.5456
2749.5	33.2442
2750	34.0037
2750.5	34.5537
2751	34.7324
2751.5	34.6355
2752	34.3712
2752.5	33.9332
2753	33.2246
2753.5	32.2932
2754	31.5022
2754.5	31.3191
2755	32.0005
2755.5	33.2909
2756	34.3432
2756.5	34.4196
2757	33.4264
2757.5	32.0845
2758	31.5742
2758.5	32.2933
2759	33.5165
2759.5	34.0338
2760	33.1734
2760.5	31.6136
2761	30.6841
2761.5	30.9688
2762	31.9972
2762.5	32.8094
2763	33.0844
2763.5	33.3215
2764	33.9764
2764.5	34.9048
2765	35.4865
2765.5	35.4327
2766	34.9621
2766.5	34.2979
2767	33.3295
2767.5	31.8762
2768	30.3763
2768.5	29.6677
2769	30.2325
2769.5	31.5795
2770	32.3977
2770.5	31.9126
2771	30.5193
2771.5	29.4156
2772	29.7839
2772.5	31.7252
2773	34.2093
2773.5	35.9176
2774	35.9716
2774.5	34.5003
2775	32.7877
2775.5	32.0514
2776	32.5911
2776.5	33.6881
2777	34.2718
2777.5	34.1178
2778	33.8314
2778.5	33.9417
2779	34.3031
2779.5	34.3029
2780	33.8983
2780.5	33.7068
2781	34.2004
2781.5	35.0161
2782	35.0904
2782.5	34.0442
2783	32.5423
2783.5	31.5623
2784	31.4544
2784.5	31.616
2785	31.4245
2785.5	31.0385
2786	31.0905
2786.5	31.9954
2787	33.4388
2787.5	34.7392
2788	35.5509
2788.5	35.9461
2789	36.1549
2789.5	36.2202
2790	35.9573
2790.5	35.2175
2791	34.1155
2791.5	33.0747
2792	32.6146
2792.5	32.8809
2793	33.6322
2793.5	34.4774
2794	35.1716
2794.5	35.6744
2795	35.8832
2795.5	35.5126
2796	34.4032
2796.5	32.9007
2797	31.8587
2797.5	31.8253
2798	32.612
2798.5	33.5739
2799	34.2201
2799.5	34.6243
2800	35.1402
2800.5	35.8429
2801	36.4799
2801.5	36.7109
2802	36.343
2802.5	35.4516
2803	34.2864
2803.5	33.3006
2804	33.0366
2804.5	33.7646
2805	35.0081
2805.5	35.9613
2806	36.0706
2806.5	35.3845
2807	34.44
2807.5	33.7761
2808	33.5771
2808.5	33.7765
2809	34.1521
2809.5	34.3468
2810	34.0551
2810.5	33.3535
2811	32.7028
2811.5	32.6108
2812	33.1886
2812.5	33.9827
2813	34.4817
2813.5	34.5156
2814	34.1603
2814.5	33.516
2815	32.7188
2815.5	32.154
2816	32.2717
2816.5	33.1413
2817	34.2135
2817.5	34.668
2818	34.3901
2818.5	34.0132
2819	34.1778
2819.5	34.8886
2820	35.5442
2820.5	35.7089
2821	35.6049
2821.5	35.6014
2822	35.6595
2822.5	35.2973
2823	34.1723
2823.5	32.6635
2824	31.4752
2824.5	31.1124
2825	31.576
2825.5	32.4306
2826	33.089
2826.5	33.1834
2827	32.6726
2827.5	31.9097
2828	31.5486
2828.5	32.0794
2829	33.3296
2829.5	34.5873
2830	35.0282
2830.5	34.2369
2831	32.5632
2831.5	31.0004
2832	30.4418
2832.5	31.1822
2833	32.672
2833.5	33.7206
2834	33.4092
2834.5	31.9123
2835	30.2696
2835.5	29.6232
2836	30.4051
2836.5	32.0003
2837	33.2738
2837.5	33.4625
2838	32.4164
2838.5	30.5646
2839	28.7914
2839.5	28.1365
2840	29.2
2840.5	31.794
2841	34.9206
2841.5	37.2387
2842	37.7854
2842.5	36.7033
2843	34.8032
2843.5	33.0765
2844	32.2942
2844.5	32.7552
2845	33.9944
2845.5	34.9603
2846	34.7194
2846.5	33.1379
2847	31.1306
2847.5	30.097
2848	30.514
2848.5	31.5565
2849	32.0659
2849.5	31.6643
2850	31.0599
2850.5	31.2071
2851	31.9691
2851.5	32.4126
2852	31.8979
2852.5	30.7834
2853	30.0809
2853.5	30.3262
2854	31.0618
2854.5	31.735
2855	32.421
2855.5	33.7008
2856	35.8009
2856.5	37.8195
2857	38.4932
2857.5	37.3078
2858	34.9356
2858.5	32.7537
2859	31.9091
2859.5	32.3603
2860	33.2736
2860.5	33.673
2861	32.9957
2861.5	31.4024
2862	29.801
2862.5	29.2385
2863	30.0564
2863.5	31.5951
2864	32.5939
2864.5	32.1493
2865	30.6335
2865.5	29.4826
2866	29.7169
2866.5	31.1275
2867	32.4948
2867.5	32.6507
2868	31.5738
2868.5	30.3893
2869	30.1561
2869.5	31.1554
2870	32.8538
2870.5	34.3877
2871	35.113
2871.5	34.92
2872	34.0039
2872.5	32.6841
2873	31.2965
2873.5	30.1734
2874	29.6379
2874.5	29.8266
2875	30.5749
2875.5	31.3922
2876	31.7349
2876.5	31.4478
2877	31.024
2877.5	31.1603
2878	31.9954
2878.5	32.9293
2879	33.0912
2879.5	32.0907
2880	30.4242
2880.5	29.0447
2881	28.4721
2881.5	28.6527
2882	29.336
2882.5	30.4977
2883	32.2799
2883.5	34.3677
2884	35.8901
2884.5	36.0078
2885	34.6435
2885.5	32.6198
2886	31.0439
2886.5	30.3852
2887	30.3944
2887.5	30.7031
2888	31.1398
2888.5	31.6463
2889	32.1278
2889.5	32.5571
2890	33.0392
2890.5	33.487
2891	33.4133
2891.5	32.3253
2892	30.4558
2892.5	28.9507
2893	28.6545
2893.5	29.2002
2894	29.5692
2894.5	29.3252
2895	29.0829
2895.5	29.6012
2896	30.447
2896.5	30.6078
2897	29.8997
2897.5	29.2975
2898	29.8285
2898.5	31.3025
2899	32.4089
2899.5	32.4576
2900	32.05
2900.5	32.164
2901	32.9471
2901.5	33.5441
2902	33.0806
2902.5	31.9099
2903	31.1474
2903.5	31.5609
2904	32.9086
2904.5	34.1972
2905	34.5026
2905.5	33.6797
2906	32.3138
2906.5	31.0142
2907	30.1048
2907.5	29.7037
2908	29.9716
2908.5	31.1728
2909	33.2394
2909.5	35.5516
2910	37.1659
2910.5	37.3803
2911	36.253
2911.5	34.6479
2912	33.6717
2912.5	33.6292
2913	33.7803
2913.5	33.08
2914	31.2843
2914.5	29.4285
2915	29.0701
2915.5	30.6448
2916	32.7207
2916.5	33.4759
2917	32.2592
2917.5	30.03
2918	28.368
2918.5	28.1764
2919	29.1903
2919.5	30.7412
2920	32.3834
2920.5	33.7752
2921	34.4986
2921.5	34.242
2922	33.1659
2922.5	31.9578
2923	31.2272
2923.5	31.157
2924	31.5797
2924.5	32.1945
2925	32.6538
2925.5	32.5327
2926	31.5458
2926.5	29.84
2927	28.0108
2927.5	26.7938
2928	26.6314
2928.5	27.4573
2929	28.8328
2929.5	30.2569
2930	31.4504
2930.5	32.2689
2931	32.5557
2931.5	32.1437
2932	31.0482
2932.5	29.6729
2933	28.6864
2933.5	28.4726
2934	28.8893
2934.5	29.4754
2935	29.9118
2935.5	30.285
2936	30.931
2936.5	32.0311
2937	33.4306
2937.5	34.8057
2938	35.7875
2938.5	36.0241
2939	35.3099
2939.5	33.8054
2940	32.1233
2940.5	30.8689
2941	30.11
2941.5	29.4419
2942	28.5616
2942.5	27.7615
2943	27.7424
2943.5	28.8409
2944	30.3693
2944.5	31.2558
2945	30.9745
2945.5	29.9599
2946	29.1651
2946.5	29.2088
2947	29.8793
2947.5	30.3948
2948	30.2722
2948.5	29.7384
2949	29.4603
2949.5	29.9096
2950	30.899
2950.5	31.6801
2951	31.5219
2951.5	30.3946
2952	28.8759
2952.5	27.6739
2953	27.2065
2953.5	27.4716
2954	28.1635
2954.5	28.8697
2955	29.2963
2955.5	29.4873
2956	29.7611
2956.5	30.4198
2957	31.4435
2957.5	32.4773
2958	33.1368
2958.5	33.2912
2959	33.0534
2959.5	32.5052
2960	31.6944
2960.5	30.8728
2961	30.5536
2961.5	31.1516
2962	32.4737
2962.5	33.6044
2963	33.6174
2963.5	32.4489
2964	30.9128
2964.5	29.9626
2965	29.8634
2965.5	30.0824
2966	29.9896
2966.5	29.5948
2967	29.4101
2967.5	29.5416
2968	29.489
2968.5	28.8654
2969	28.1518
2969.5	28.4197
2970	30.1529
2970.5	32.4739
2971	33.8811
2971.5	33.8027
2972	32.8189
2972.5	31.7931
2973	31.0242
2973.5	30.3153
2974	29.622
2974.5	29.2966
2975	29.4998
2975.5	29.8196
2976	29.7187
2976.5	29.1739
2977	28.6839
2977.5	28.6154
2978	28.7032
2978.5	28.3673
2979	27.5873
2979.5	27.0823
2980	27.493
2980.5	28.672
2981	29.8611
2981.5	30.531
2982	30.8827
2982.5	31.4264
2983	32.1711
2983.5	32.5598
2984	32.2901
2984.5	31.7617
2985	31.6492
2985.5	32.142
2986	32.7283
2986.5	32.7005
2987	31.7682
2987.5	30.3052
2988	29.0484
2988.5	28.7105
2989	29.554
2989.5	31.0296
2990	31.96
2990.5	31.4347
2991	29.7083
2991.5	28.0837
2992	27.5349
2992.5	27.755
2993	27.8026
2993.5	27.3215
2994	26.9169
2994.5	27.3362
2995	28.5242
2995.5	29.6767
2996	30.1413
2996.5	30.0757
2997	29.9649
2997.5	30.0582
2998	30.3514
2998.5	30.8916
2999	31.7797
2999.5	32.7789
3000	33.1304
3000.5	32.1017
3001	30.0162
3001.5	28.1492
3002	27.6886
3002.5	28.6164
3003	29.6866
3003.5	29.6341
3004	28.487
3004.5	27.6348
3005	28.5034
3005.5	30.7972
3006	32.8074
3006.5	32.9803
3007	31.2878
3007.5	29.1502
3008	28.0938
3008.5	28.4544
3009	29.3068
3009.5	29.5707
3010	29.234
3010.5	29.1783
3011	30.0047
3011.5	31.2545
3012	31.7918
3012.5	30.9553
3013	29.2997
3013.5	28.1579
3014	28.4428
3014.5	29.7804
3015	30.8885
3015.5	30.8131
3016	29.6017
3016.5	28.122
3017	27.3204
3017.5	27.576
3018	28.5722
3018.5	29.6255
3019	30.1132
3019.5	29.7879
3020	28.8753
3020.5	27.9503
3021	27.6448
3021.5	28.1624
3022	28.9939
3022.5	29.2852
3023	28.7292
3023.5	28.0983
3024	28.6543
3024.5	30.6651
3025	32.8787
3025.5	33.6988
3026	32.6334
3026.5	30.5799
3027	28.8097
3027.5	27.9258
3028	27.8137
3028.5	28.2209
3029	28.9605
3029.5	29.587
3030	29.4922
3030.5	28.577
3031	27.5229
3031.5	27.1116
3032	27.3557
3032.5	27.5691
3033	27.3245
3033.5	27.055
3034	27.4803
3034.5	28.5649
3035	29.4079
3035.5	29.3849
3036	28.8529
3036.5	28.7116
3037	29.3708
3037.5	30.2799
3038	30.4755
3038.5	29.5315
3039	27.9678
3039.5	26.7841
3040	26.5851
3040.5	27.1606
3041	27.9593
3041.5	28.6163
3042	29.0142
3042.5	29.0056
3043	28.4141
3043.5	27.4656
3044	26.9543
3044.5	27.5676
3045	28.9389
3045.5	29.7131
3046	29.0679
3046.5	27.6582
3047	26.8663
3047.5	27.2676
3048	28.1468
3048.5	28.5524
3049	28.4601
3049.5	28.5926
3050	29.2848
3050.5	30.0038
3051	30.1712
3051.5	30.0813
3052	30.4256
3052.5	31.2682
3053	31.8655
3053.5	31.5097
3054	30.2713
3054.5	28.799
3055	27.6186
3055.5	26.8605
3056	26.5335
3056.5	26.6985
3057	27.2249
3057.5	27.7549
3058	28.128
3058.5	28.638
3059	29.6603
3059.5	31.1053
3060	32.472
3060.5	33.4172
3061	33.9928
3061.5	34.2283
3062	33.809
3062.5	32.5347
3063	31.0278
3063.5	30.3175
3064	30.7057
3064.5	31.4
3065	31.419
3065.5	30.6573
3066	29.8452
3066.5	29.6106
3067	29.8647
3067.5	30.0716
3068	29.7951
3068.5	28.9027
3069	27.612
3069.5	26.5998
3070	26.6818
3070.5	27.9998
3071	29.5685
3071.5	30.0552
3072	29.1414
3072.5	27.8516
3073	27.3836
3073.5	27.8427
3074	28.362
3074.5	28.2749
3075	27.7872
3075.5	27.5212
3076	27.7828
3076.5	28.5051
3077	29.4188
3077.5	30.0487
3078	29.915
3078.5	29.1253
3079	28.5764
3079.5	29.0681
3080	30.1502
3080.5	30.3821
3081	29.0476
3081.5	27.2795
3082	27.0436
3082.5	28.8269
3083	31.2048
3083.5	32.4028
3084	31.8791
3084.5	30.3859
3085	28.9668
3085.5	28.2301
3086	28.3275
3086.5	29.1117
3087	30.1338
3087.5	30.7526
3088	30.5488
3088.5	29.6952
3089	28.8566
3089.5	28.6006
3090	28.874
3090.5	29.0158
3091	28.3367
3091.5	26.856
3092	25.463
3092.5	25.19
3093	26.2684
3093.5	27.9825
3094	29.4007
3094.5	30.0168
3095	29.681
3095.5	28.4152
3096	26.7672
3096.5	26.0364
3097	27.2052
3097.5	29.6416
3098	31.4632
3098.5	31.4953
3099	30.4333
3099.5	29.6932
3100	29.5577
3100.5	29.1601
3101	28.1455
3101.5	27.4309
3102	27.8773
3102.5	28.8519
3103	28.8996
3103.5	27.6854
3104	26.533
3104.5	26.7603
3105	28.1751
3105.5	29.5628
3106	30.0241
3106.5	29.5468
3107	28.6778
3107.5	28.1188
3108	28.4611
3108.5	29.7626
3109	31.2497
3109.5	31.8076
3110	31.023
3110.5	29.6105
3111	28.6848
3111.5	28.7713
3112	29.6006
3112.5	30.516
3113	30.8272
3113.5	30.058
3114	28.481
3114.5	27.3674
3115	28.0493
3115.5	30.3671
3116	32.399
3116.5	32.2145
3117	29.8833
3117.5	27.298
3118	26.0808
3118.5	26.0943
3119	26.1273
3119.5	25.568
3120	24.949
3120.5	25.052
3121	26.0185
3121.5	27.3894
3122	28.6549
3122.5	29.46
3123	29.6904
3123.5	29.6044
3124	29.6614
3124.5	29.967
3125	30.0484
3125.5	29.4616
3126	28.514
3126.5	28.0356
3127	28.4148
3127.5	29.1994
3128	29.7622
3128.5	29.9981
3129	30.0968
3129.5	29.9501
3130	29.2947
3130.5	28.4188
3131	28.1463
3131.5	28.8138
3132	29.6404
3132.5	29.4117
3133	27.7703
3133.5	25.6926
3134	24.7015
3134.5	25.6424
3135	28.0762
3135.5	30.6342
3136	31.9282
3136.5	31.3576
3137	29.3789
3137.5	27.2093
3138	26.1743
3138.5	26.9437
3139	28.9914
3139.5	30.7852
3140	30.899
3140.5	29.2539
3141	27.1911
3141.5	26.0691
3142	25.9855
3142.5	26.1387
3143	26.0933
3143.5	26.2359
3144	26.9806
3144.5	28.046
3145	28.8224
3145.5	29.157
3146	29.3795
3146.5	29.6644
3147	29.7629
3147.5	29.4162
3148	28.7129
3148.5	27.9029
3149	27.1234
3149.5	26.523
3150	26.4541
3150.5	27.203
3151	28.5075
3151.5	29.6021
3152	29.9043
3152.5	29.5798
3153	29.3218
3153.5	29.5534
3154	30.0077
3154.5	30.0911
3155	29.5531
3155.5	28.718
3156	28.0558
3156.5	27.6534
3157	27.2469
3157.5	26.7218
3158	26.3558
3158.5	26.4591
3159	26.9404
3159.5	27.4298
3160	27.7443
3160.5	27.9808
3161	28.129
3161.5	27.8827
3162	27.048
3162.5	26.0003
3163	25.4843
3163.5	25.943
3164	27.1853
3164.5	28.6898
3165	30.0192
3165.5	30.8745
3166	31.0014
3166.5	30.3438
3167	29.2726
3167.5	28.3986
3168	28.0707
3168.5	28.0974
3169	28.017
3169.5	27.5932
3170	27.0091
3170.5	26.6235
3171	26.6054
3171.5	26.8265
3172	27.091
3172.5	27.4333
3173	28.1126
3173.5	29.2467
3174	30.4945
3174.5	31.2303
3175	31.0846
3175.5	30.2445
3176	29.2161
3176.5	28.4255
3177	28.1077
3177.5	28.3456
3178	28.9339
3178.5	29.2819
3179	28.809
3179.5	27.5842
3180	26.3575
3180.5	25.8118
3181	25.9522
3181.5	26.3697
3182	26.8623
3182.5	27.5063
3183	28.2718
3183.5	28.9416
3184	29.4121
3184.5	29.7186
3185	29.7367
3185.5	29.2426
3186	28.4243
3186.5	27.996
3187	28.4887
3187.5	29.5491
3188	30.1885
3188.5	29.7001
3189	28.2164
3189.5	26.4916
3190	25.334
3190.5	25.1616
3191	25.8401
3191.5	26.8905
3192	27.9057
3192.5	28.7876
3193	29.5727
3193.5	30.1637
3194	30.3388
3194.5	29.9167
3195	28.8435
3195.5	27.347
3196	26.1653
3196.5	26.2592
3197	27.8083
3197.5	29.6413
3198	30.2579
3198.5	29.5129
3199	28.7615
3199.5	29.1475
3200	30.2936
3200.5	31.0212
3201	30.8288
3201.5	30.1033
3202	29.2915
3202.5	28.6362
3203	28.5702
3203.5	29.471
3204	30.7741
3204.5	31.072
3205	29.6293
3205.5	27.4219
3206	26.1566
3206.5	26.4356
3207	27.3181
3207.5	27.6015
3208	27.1082
3208.5	26.6277
3209	26.8909
3209.5	27.8079
3210	28.6793
3210.5	29.0422
3211	29.1452
3211.5	29.443
3212	29.8123
3212.5	29.7222
3213	29.1957
3213.5	28.9907
3214	29.4498
3214.5	29.7155
3215	28.7963
3215.5	27.1455
3216	26.3248
3216.5	27.0247
3217	28.2285
3217.5	28.6614
3218	28.3359
3218.5	28.0789
3219	28.0963
3219.5	27.8572
3220	27.237
3220.5	26.929
3221	27.4958
3221.5	28.5719
3222	29.3168
3222.5	29.3176
3223	28.8012
3223.5	28.2537
3224	28.0784
3224.5	28.3535
3225	28.6338
3225.5	28.2297
3226	27.0315
3226.5	25.8711
3227	25.6503
3227.5	26.2207
3228	26.6521
3228.5	26.5958
3229	26.7029
3229.5	27.4581
3230	28.2634
3230.5	28.3249
3231	28.0378
3231.5	28.5753
3232	30.071
3232.5	31.1531
3233	30.7778
3233.5	29.7864
3234	29.7964
3234.5	30.9062
3235	31.514
3235.5	30.5021
3236	28.6477
3236.5	27.4051
3237	27.0592
3237.5	26.8606
3238	26.522
3238.5	26.5798
3239	27.2603
3239.5	27.9232
3240	28.0488
3240.5	28.1055
3241	28.7915
3241.5	29.7707
3242	29.9369
3242.5	28.9849
3243	28.0556
3243.5	28.4117
3244	29.7969
3244.5	30.6171
3245	29.7681
3245.5	27.882
3246	26.5375
3246.5	26.5009
3247	27.1624
3247.5	27.6885
3248	28.2036
3248.5	29.4155
3249	31.3119
3249.5	32.8228
3250	32.9468
3250.5	31.8276
3251	30.4643
3251.5	29.668
3252	29.6331
3252.5	30.2378
3253	31.1592
3253.5	31.657
3254	30.8831
3254.5	28.8787
3255	26.9954
3255.5	26.769
3256	28.261
3256.5	29.8655
3257	29.9812
3257.5	28.6988
3258	27.5459
3258.5	27.668
3259	28.6591
3259.5	29.2878
3260	29.0185
3260.5	28.4006
3261	28.0632
3261.5	27.8979
3262	27.5371
3262.5	27.2343
3263	27.6759
3263.5	28.9323
3264	30.1388
3264.5	30.4648
3265	30.0159
3265.5	29.443
3266	29.0445
3266.5	28.7278
3267	28.5968
3267.5	28.8506
3268	29.0132
3268.5	28.0502
3269	25.8038
3269.5	23.7981
3270	23.8073
3270.5	25.7289
3271	27.6638
3271.5	28.2464
3272	28.1045
3272.5	28.5753
3273	29.7023
3273.5	30.3474
3274	29.9416
3274.5	29.1201
3275	28.4987
3275.5	27.7291
3276	26.2983
3276.5	24.7147
3277	24.2119
3277.5	25.3633
3278	27.399
3278.5	28.8829
3279	28.8817
3279.5	27.6598
3280	26.4934
3280.5	26.5948
3281	27.8625
3281.5	28.8347
3282	28.2595
3282.5	26.5986
3283	25.5367
3283.5	26.0349
3284	27.3602
3284.5	28.1428
3285	27.9507
3285.5	27.5168
3286	27.7848
3286.5	28.9764
3287	30.3542
3287.5	30.7401
3288	29.5322
3288.5	27.4082
3289	25.818
3289.5	25.6089
3290	26.3585
3290.5	27.169
3291	27.7587
3291.5	28.4584
3292	29.4165
3292.5	30.267
3293	30.5786
3293.5	30.3414
3294	29.9666
3294.5	29.9125
3295	30.2167
3295.5	30.3303
3296	29.6771
3296.5	28.5499
3297	28.0683
3297.5	28.8472
3298	30.0486
3298.5	30.3591
3299	29.7236
3299.5	29.3601
3300	30.0023
3300.5	30.9089
3301	30.951
3301.5	30.0795
3302	29.1268
3302.5	28.6507
3303	28.5646
3303.5	28.5798
3304	28.5515
3304.5	28.5353
3305	28.8104
3305.5	29.6387
3306	30.7136
3306.5	31.1532
3307	30.4816
3307.5	29.3866
3308	28.9713
3308.5	29.3835
3309	29.7842
3309.5	29.665
3310	29.5077
3310.5	29.8969
3311	30.6045
3311.5	31.0243
3312	31.0748
3312.5	31.0733
3313	30.9507
3313.5	30.2696
3314	29.0792
3314.5	28.1783
3315	28.2165
3315.5	28.951
3316	29.6798
3316.5	30.042
3317	30.0511
3317.5	29.6038
3318	28.5241
3318.5	27.1942
3319	26.6462
3319.5	27.5953
3320	29.5009
3320.5	30.9946
3321	31.3309
3321.5	31.106
3322	31.3382
3322.5	32.1088
3323	32.5185
3323.5	31.9585
3324	30.9771
3324.5	30.6374
3325	31.2698
3325.5	32.1808
3326	32.4774
3326.5	31.8752
3327	30.6569
3327.5	29.2964
3328	28.3162
3328.5	28.1963
3329	29.0702
3329.5	30.5273
3330	31.9033
3330.5	32.7484
3331	32.8849
3331.5	32.1441
3332	30.427
3332.5	28.1713
3333	26.4589
3333.5	26.277
3334	27.6039
3334.5	29.3833
3335	30.4521
3335.5	30.4365
3336	29.8297
3336.5	29.4336
3337	29.7444
3337.5	30.6999
3338	31.7641
3338.5	32.3364
3339	32.2216
3339.5	31.6542
3340	30.8512
3340.5	29.7521
3341	28.4137
3341.5	27.486
3342	27.8523
3342.5	29.6222
3343	31.7408
3343.5	32.8756
3344	32.6559
3344.5	31.8847
3345	31.5828
3345.5	31.9883
3346	32.5409
3346.5	32.7053
3347	32.5929
3347.5	32.7989
3348	33.6287
3348.5	34.5217
3349	34.4169
3349.5	32.8952
3350	30.907
3350.5	30.0409
3351	30.8647
3351.5	32.2022
3352	32.3896
3352.5	31.1625
3353	29.8354
3353.5	29.4867
3354	29.5053
3354.5	28.6308
3355	27.002
3355.5	26.2269
3356	27.3558
3356.5	29.5165
3357	31.0061
3357.5	31.2254
3358	30.9405
3358.5	30.957
3359	31.2741
3359.5	31.5263
3360	31.5442
3360.5	31.2537
3361	30.5792
3361.5	29.7758
3362	29.3913
3362.5	29.5149
3363	29.564
3363.5	29.1835
3364	28.9242
3364.5	29.4597
3365	30.3942
3365.5	30.555
3366	29.5074
3366.5	28.1588
3367	27.6413
3367.5	28.1016
3368	28.9149
3368.5	29.6161
3369	30.0686
3369.5	30.0017
3370	29.1404
3370.5	27.882
3371	27.2504
3371.5	27.8637
3372	29.2235
3372.5	30.2634
3373	30.3949
3373.5	29.809
3374	29.0021
3374.5	28.3534
3375	28.065
3375.5	28.1824
3376	28.6852
3376.5	29.6803
3377	31.2893
3377.5	33.0797
3378	34.0286
3378.5	33.6261
3379	32.7597
3379.5	32.7297
3380	33.4186
3380.5	33.3587
3381	31.9066
3381.5	30.4021
3382	30.4848
3382.5	32.0014
3383	33.4837
3383.5	34.2343
3384	34.5608
3384.5	34.4502
3385	33.4385
3385.5	31.8952
3386	31.1586
3386.5	31.7914
3387	32.5997
3387.5	32.1519
3388	30.6792
3388.5	29.6361
3389	29.7383
3389.5	30.3107
3390	30.6859
3390.5	31.1318
3391	32.1543
3391.5	33.5051
3392	34.3036
3392.5	33.9729
3393	32.8248
3393.5	31.796
3394	31.7079
3394.5	32.6837
3395	34.1525
3395.5	35.3632
3396	35.8865
3396.5	35.6409
3397	34.847
3397.5	34.1673
3398	34.501
3398.5	36.0652
3399	37.7353
3399.5	37.9431
3400	36.4962
3400.5	35.0033
3401	35.0694
3401.5	36.3323
3402	37.1708
3402.5	36.9047
3403	36.4594
3403.5	36.8926
3404	37.9952
3404.5	38.7599
3405	38.7509
3405.5	38.4065
3406	38.1626
3406.5	37.9314
3407	37.6398
3407.5	37.7334
3408	38.6702
3408.5	40.2427
3409	41.7788
3409.5	42.8651
3410	43.5057
3410.5	43.7263
3411	43.5904
3411.5	43.6391
3412	44.5928
3412.5	46.1688
3413	47.0663
3413.5	46.7917
3414	46.7447
3414.5	48.7221
3415	52.6106
3415.5	56.4
3416	58.4361
3416.5	58.9387
3417	59.3185
3417.5	60.7797
3418	63.6072
3418.5	67.3182
3419	71.3018
3419.5	75.7347
3420	81.6099
3420.5	89.2316
3421	97.285
3421.5	104.614
3422	112.504
3422.5	123.54
3423	138.024
3423.5	153.918
3424	171.005
3424.5	192.533
3425	222.101
3425.5	260.76
3426	308.335
3426.5	365.754
3427	434.099
3427.5	512.161
3428	595.655
3428.5	677.166
3429	744.675
3429.5	782.138
3430	776.71
3430.5	727.585
3431	647.332
3431.5	554.415
3432	464.357
3432.5	385.994
3433	321.474
3433.5	269.103
3434	226.779
3434.5	193.536
3435	168.438
3435.5	148.967
3436	132.128
3436.5	116.974
3437	104.483
3437.5	94.8686
3438	86.7166
3438.5	79.5
3439	74.3073
3439.5	71.584
3440	69.7425
3440.5	67.1169
3441	64.1019
3441.5	62.0663
3442	60.9392
3442.5	59.2884
3443	56.519
3443.5	53.2783
3444	50.1039
3444.5	46.9712
3445	44.2929
3445.5	43.1241
3446	43.705
3446.5	44.581
3447	44.1926
3447.5	42.8905
3448	42.1096
3448.5	42.0596
3449	41.3413
3449.5	39.1958
3450	37.0274
3450.5	36.8355
3451	38.6304
3451.5	40.2472
3452	40.0492
3452.5	38.4145
3453	36.8729
3453.5	36.4389
3454	36.9507
3454.5	37.5662
3455	37.5904
3455.5	36.959
3456	36.0564
3456.5	35.0802
3457	33.9097
3457.5	32.5497
3458	31.4005
3458.5	30.93
3459	31.3273
3459.5	32.5716
3460	34.3404
3460.5	35.7539
3461	35.7771
3461.5	34.3159
3462	32.5367
3462.5	31.6621
3463	31.7527
3463.5	32.0395
3464	32.0875
3464.5	32.0819
3465	32.233
3465.5	32.6095
3466	33.2962
3466.5	34.1702
3467	34.6834
3467.5	34.4494
3468	34.0237
3468.5	34.339
3469	35.2299
3469.5	35.3226
3470	33.6957
3470.5	31.2839
3471	30.0714
3471.5	30.9225
3472	32.6743
3472.5	33.6636
3473	33.6207
3473.5	33.3954
3474	33.5797
3474.5	34.0522
3475	34.6318
3475.5	35.2791
3476	35.5077
3476.5	34.6647
3477	33.1853
3477.5	32.624
3478	33.7639
3478.5	35.2824
3479	35.1398
3479.5	33.0449
3480	30.8133
3480.5	30.0528
3481	30.6349
3481.5	31.4616
3482	31.8712
3482.5	32.0737
3483	32.6915
3483.5	34.2252
3484	36.5717
3484.5	38.9279
3485	40.3188
3485.5	40.5319
3486	40.4102
3486.5	40.8665
3487	41.7617
3487.5	42.1647
3488	41.7928
3488.5	41.2927
3489	41.1038
3489.5	40.8248
3490	40.1729
3490.5	39.9235
3491	41.0674
3491.5	43.109
3492	44.6101
3492.5	45.0229
3493	45.164
3493.5	45.8597
3494	46.9234
3494.5	47.7521
3495	48.3307
3495.5	49.1152
3496	50.3692
3496.5	52.013
3497	53.8379
3497.5	55.7029
3498	57.7261
3498.5	60.3778
3499	64.102
3499.5	68.7859
3500	73.5135
3500.5	76.8059
3501	77.3715
3501.5	75.2158
3502	72.2701
3502.5	71.0518
3503	72.3872
3503.5	75.0294
3504	77.3873
3504.5	79.1563
3505	81.0687
3505.5	83.7381
3506	87.1895
3506.5	91.0463
3507	94.5634
3507.5	97.1744
3508	99.485
3508.5	103.118
3509	108.734
3509.5	114.685
3510	118.483
3510.5	118.881
3511	116.469
3511.5	112.859
3512	109.787
3512.5	108.263
3513	107.949
3513.5	107.606
3514	106.301
3514.5	103.994
3515	100.884
3515.5	96.9243
3516	92.5131
3516.5	88.6873
3517	85.9655
3517.5	83.4743
3518	80.0193
3518.5	75.8278
3519	72.4181
3519.5	70.4344
3520	68.9189
3520.5	66.876
3521	64.7307
3521.5	63.5266
3522	63.0293
3522.5	61.6893
3523	59.0143
3523.5	56.4508
3524	55.5486
3524.5	55.9391
3525	55.8667
3525.5	54.4221
3526	52.3486
3526.5	50.5277
3527	49.0673
3527.5	47.7633
3528	46.622
3528.5	45.5846
3529	44.3473
3529.5	42.9222
3530	41.8635
3530.5	41.6285
3531	41.9379
3531.5	42.0185
3532	41.4701
3532.5	40.6562
3533	40.159
3533.5	39.9719
3534	39.2978
3534.5	37.4713
3535	35.2621
3535.5	34.4737
3536	35.7789
3536.5	37.6187
3537	37.8186
3537.5	36.205
3538	34.8301
3538.5	35.0743
3539	35.894
3539.5	35.5327
3540	33.9602
3540.5	32.727
3541	32.6949
3541.5	33.0286
3542	32.9041
3542.5	32.5871
3543	32.5534
3543.5	32.5231
3544	32.0444
3544.5	31.3586
3545	30.8151
3545.5	30.3887
3546	30.3679
3546.5	31.5301
3547	33.592
3547.5	34.5316
3548	33.2425
3548.5	31.4755
3549	31.7494
3549.5	33.8411
3550	35.052
3550.5	34.1809
3551	32.5692
3551.5	31.4792
3552	30.6505
3552.5	29.789
3553	29.633
3553.5	30.373
3554	30.833
3554.5	30.1411
3555	29.1197
3555.5	29.1516
3556	30.233
3556.5	31.2083
3557	31.3523
3557.5	30.8043
3558	29.9842
3558.5	29.1193
3559	28.3057
3559.5	27.7806
3560	27.9734
3560.5	29.0827
3561	30.5447
3561.5	31.2839
3562	30.9806
3562.5	30.3368
3563	30.0654
3563.5	30.0949
3564	29.9976
3564.5	29.7088
3565	29.4022
3565.5	29.1378
3566	28.9914
3566.5	29.0614
3567	29.171
3567.5	29.0648
3568	28.9495
3568.5	29.1476
3569	29.3137
3569.5	28.7384
3570	27.5838
3570.5	26.857
3571	26.9505
3571.5	27.3123
3572	27.5396
3572.5	27.9264
3573	28.5435
3573.5	28.8285
3574	28.487
3574.5	27.9224
3575	27.4162
3575.5	26.6476
3576	25.6537
3576.5	25.3723
3577	26.6211
3577.5	28.9846
3578	31.1246
3578.5	31.9793
3579	31.1525
3579.5	28.7804
3580	25.7907
3580.5	23.8832
3581	24.1466
3581.5	25.8903
3582	27.5664
3582.5	28.4594
3583	28.9544
3583.5	29.2032
3584	28.6515
3584.5	27.3697
3585	26.6502
3585.5	27.4418
3586	28.7592
3586.5	28.9763
3587	28.3687
3587.5	28.5699
3588	29.792
3588.5	29.9221
3589	27.6583
3589.5	24.9284
3590	24.7734
3590.5	27.7431
3591	31.3669
3591.5	33.1936
3592	33.1139
3592.5	32.1763
3593	31.0661
3593.5	30.108
3594	29.6341
3594.5	29.4335
3595	28.711
3595.5	27.3362
3596	26.5963
3596.5	27.6145
3597	29.3765
3597.5	29.9894
3598	29.1499
3598.5	28.4767
3599	29.0171
3599.5	29.5828
3600	28.7654
3600.5	27.2333
3601	27.0677
3601.5	28.6799
3602	29.928
3602.5	29.1466
3603	27.3027
3603.5	26.508
3604	26.9097
3604.5	26.8526
3605	25.8627
3605.5	25.2819
3606	25.9896
3606.5	26.9204
3607	27.0406
3607.5	27.0326
3608	27.975
3608.5	29.4666
3609	30.1819
3609.5	29.8413
3610	29.1088
3610.5	28.2735
3611	27.1275
3611.5	26.1775
3612	26.6733
3612.5	29.05
3613	31.9149
3613.5	33.0613
3614	31.9973
3614.5	30.3811
3615	29.9588
3615.5	30.4855
3616	30.1816
3616.5	28.542
3617	27.1704
3617.5	27.5215
3618	28.7469
3618.5	28.6043
3619	26.6088
3619.5	24.5637
3620	24.2409
3620.5	25.2795
3621	25.8941
3621.5	25.6372
3622	25.9295
3622.5	27.8958
3623	30.469
3623.5	31.5802
3624	30.8342
3624.5	29.3382
3625	27.7091
3625.5	25.6713
3626	23.8401
3626.5	23.7479
3627	25.636
3627.5	27.6044
3628	27.9916
3628.5	27.5532
3629	27.9594
3629.5	29.665
3630	31.7221
3630.5	32.9416
3631	32.6189
3631.5	30.6932
3632	28.0087
3632.5	25.8767
3633	24.8285
3633.5	24.5631
3634	24.7854
3634.5	25.5238
3635	26.6835
3635.5	27.9814
3636	28.9866
3636.5	28.956
3637	27.4007
3637.5	25.3673
3638	24.6735
3638.5	25.7511
3639	27.0509
3639.5	27.5
3640	28.0118
3640.5	29.3243
3641	30.1549
3641.5	28.9804
3642	26.9029
3642.5	26.2337
3643	27.5129
3643.5	29.0968
3644	29.6201
3644.5	29.2383
3645	28.3221
3645.5	26.6956
3646	24.6603
3646.5	23.5828
3647	24.4354
3647.5	26.309
3648	26.9549
3648.5	25.5229
3649	23.7353
3649.5	24.1248
3650	27.1857
3650.5	30.3083
3651	30.7754
3651.5	28.6556
3652	26.5018
3652.5	26.3579
3653	27.5383
3653.5	28.2591
3654	27.8092
3654.5	27.0203
3655	27.1056
3655.5	28.4634
3656	30.2222
3656.5	30.3935
3657	27.882
3657.5	24.3457
3658	22.7911
3658.5	24.0267
3659	25.3772
3659.5	24.6588
3660	23.2542
3660.5	23.8842
3661	26.5224
3661.5	28.287
3662	27.7563
3662.5	26.5079
3663	26.762
3663.5	28.1308
3664	28.5429
3664.5	27.2666
3665	26.0671
3665.5	26.7912
3666	28.7221
3666.5	29.7242
3667	28.9804
3667.5	27.8014
3668	27.3655
3668.5	27.5627
3669	27.9886
3669.5	28.7239
3670	29.6615
3670.5	30.1194
3671	29.5683
3671.5	28.3416
3672	27.2629
3672.5	26.7577
3673	26.5767
3673.5	26.1571
3674	25.447
3674.5	25.0068
3675	25.3063
3675.5	26.1835
3676	27.0973
3676.5	27.5495
3677	27.0369
3677.5	25.5523
3678	24.3825
3678.5	25.0016
3679	27.2608
3679.5	29.1837
3680	29.3416
3680.5	28.2615
3681	27.2012
3681.5	26.576
3682	26.0465
3682.5	25.768
3683	26.4417
3683.5	28.145
3684	29.6267
3684.5	29.7522
3685	28.8475
3685.5	28.1347
3686	27.8834
3686.5	27.4926
3687	27.0445
3687.5	27.2936
3688	27.9253
3688.5	27.7892
3689	26.8188
3689.5	26.2678
3690	26.5614
3690.5	26.7937
3691	26.5015
3691.5	26.3887
3692	26.7577
3692.5	26.776
3693	25.8471
3693.5	24.7383
3694	24.545
3694.5	25.0951
3695	25.1805
3695.5	24.2099
3696	23.2153
3696.5	23.4955
3697	25.0602
3697.5	26.5919
3698	27.0347
3698.5	26.2872
3699	24.8277
3699.5	23.5028
3700	23.144
