#Imported=	16.12.2021 13:56:05
50	8.28725
50.5	7.30821
51	5.99699
51.5	4.7961
52	3.93013
52.5	3.41022
53	3.17292
53.5	3.05408
54	3.00241
54.5	3.1693
55	3.73021
55.5	4.78236
56	6.35311
56.5	8.1657
57	9.87339
57.5	10.9829
58	11.444
58.5	11.4767
59	11.4988
59.5	12.0528
60	13.5149
60.5	16.2872
61	19.9939
61.5	24.084
62	28.0207
62.5	31.3587
63	33.9446
63.5	35.7494
64	37.174
64.5	38.6639
65	40.5554
65.5	43.0164
66	46.007
66.5	49.4375
67	53.0451
67.5	56.5592
68	59.8078
68.5	62.7287
69	65.3963
69.5	67.937
70	70.5844
70.5	73.4981
71	76.711
71.5	80.073
72	83.3087
72.5	86.0716
73	88.0053
73.5	89.0757
74	89.4686
74.5	89.5057
75	89.5399
75.5	89.7795
76	90.2518
76.5	90.7134
77	90.831
77.5	90.334
78	89.2489
78.5	87.685
79	85.9317
79.5	84.3865
80	83.3565
80.5	82.9956
81	83.1686
81.5	83.7338
82	84.4391
82.5	84.9638
83	84.9784
83.5	84.2228
84	82.7638
84.5	80.6724
85	78.124
85.5	75.4621
86	72.9538
86.5	70.8188
87	69.0179
87.5	67.5211
88	66.3328
88.5	65.4201
89	64.8541
89.5	64.8289
90	65.2169
90.5	65.9112
91	66.7234
91.5	67.4117
92	67.817
92.5	67.7515
93	67.2974
93.5	66.5226
94	65.4392
94.5	64.1789
95	62.8451
95.5	61.646
96	60.825
96.5	60.522
97	60.8246
97.5	61.4613
98	62.1547
98.5	62.5181
99	62.3332
99.5	61.6108
100	60.573
100.5	59.5696
101	58.8243
101.5	58.5332
102	58.6541
102.5	59.1468
103	60.0257
103.5	61.2846
104	62.9527
104.5	65.0617
105	67.4156
105.5	69.7628
106	71.7331
106.5	73.2256
107	74.325
107.5	75.2234
108	76.2172
108.5	77.4867
109	79.1082
109.5	80.8428
110	82.4133
110.5	83.5604
111	84.2209
111.5	84.4828
112	84.4951
112.5	84.53
113	84.7845
113.5	85.4002
114	86.4061
114.5	87.7639
115	89.4491
115.5	91.3296
116	93.2026
116.5	94.8093
117	95.948
117.5	96.5675
118	96.6832
118.5	96.5557
119	96.5994
119.5	97.3599
120	99.183
120.5	102.089
121	106.094
121.5	110.983
122	116.44
122.5	122.426
123	129.141
123.5	136.913
124	146.406
124.5	158.241
125	172.425
125.5	188.95
126	207.047
126.5	224.929
127	240.68
127.5	252.075
128	258.053
128.5	257.293
129	249.034
129.5	234.738
130	216.157
130.5	195.513
131	175.091
131.5	156.529
132	141.242
132.5	129.276
133	120.655
133.5	114.664
134	110.135
134.5	106.498
135	103.335
135.5	100.379
136	97.6572
136.5	95.4167
137	93.7091
137.5	92.5667
138	91.9205
138.5	91.4511
139	90.8906
139.5	89.928
140	88.5383
140.5	86.9137
141	85.4011
141.5	84.3222
142	83.8927
142.5	84.2923
143	85.2419
143.5	86.433
144	87.45
144.5	88.0659
145	88.181
145.5	87.7184
146	86.8918
146.5	85.848
147	84.7583
147.5	83.7506
148	82.8676
148.5	82.1472
149	81.5654
149.5	81.1291
150	80.9094
150.5	80.9362
151	81.183
151.5	81.571
152	81.8878
152.5	81.9241
153	81.4033
153.5	80.3111
154	78.8013
154.5	77.2322
155	75.9691
155.5	75.2051
156	75.0526
156.5	75.2966
157	75.6928
157.5	76.0056
158	76.1863
158.5	76.3071
159	76.4545
159.5	76.6393
160	76.778
160.5	76.6954
161	76.2944
161.5	75.7022
162	75.1998
162.5	75.1005
163	75.5614
163.5	76.627
164	77.9962
164.5	79.226
165	79.8769
165.5	79.8278
166	79.2188
166.5	78.2648
167	77.3007
167.5	76.5594
168	76.2041
168.5	76.1914
169	76.383
169.5	76.6912
170	77.0249
170.5	77.3208
171	77.5192
171.5	77.5579
172	77.4046
172.5	77.0455
173	76.5139
173.5	75.8942
174	75.2825
174.5	74.8058
175	74.5626
175.5	74.6696
176	75.1228
176.5	75.8053
177	76.5965
177.5	77.3394
178	77.9403
178.5	78.3809
179	78.766
179.5	79.2692
180	80.0036
180.5	80.9911
181	82.1125
181.5	83.2471
182	84.2902
182.5	85.2586
183	86.2627
183.5	87.4214
184	88.7029
184.5	89.9784
185	91.0146
185.5	91.6914
186	92.0071
186.5	92.2057
187	92.6801
187.5	93.6516
188	95.1731
188.5	96.9263
189	98.5973
189.5	99.8814
190	100.868
190.5	101.934
191	103.665
191.5	106.23
192	109.555
192.5	113.247
193	116.647
193.5	119.318
194	121.033
194.5	122.5
195	124.315
195.5	127.175
196	131.039
196.5	135.624
197	140.283
197.5	144.24
198	147.134
198.5	148.924
199	150.201
199.5	151.433
200	153.124
200.5	155.439
201	158.387
201.5	161.966
202	165.879
202.5	169.956
203	173.933
203.5	177.474
204	180.23
204.5	181.655
205	181.677
205.5	180.505
206	178.591
206.5	176.597
207	174.929
207.5	173.834
208	173.126
208.5	172.483
209	171.473
209.5	169.977
210	168.119
210.5	166.098
211	164.117
211.5	162.195
212	160.135
212.5	157.601
213	154.343
213.5	150.3
214	145.811
214.5	141.292
215	137.169
215.5	133.65
216	130.655
216.5	127.934
217	125.052
217.5	121.808
218	118.2
218.5	114.512
219	111.106
219.5	108.384
220	106.551
220.5	105.522
221	105.024
221.5	104.62
222	103.994
222.5	102.949
223	101.492
223.5	99.8083
224	98.1031
224.5	96.5732
225	95.2155
225.5	93.9142
226	92.4918
226.5	90.8569
227	89.0171
227.5	87.1427
228	85.4822
228.5	84.309
229	83.7087
229.5	83.5277
230	83.6223
230.5	83.8183
231	83.9897
231.5	84.0762
232	84.0019
232.5	83.6508
233	82.8394
233.5	81.3911
234	79.4264
234.5	77.1729
235	75.0913
235.5	73.6048
236	73.0174
236.5	73.39
237	74.1359
237.5	74.8216
238	75.0579
238.5	74.8415
239	74.3351
239.5	73.8544
240	73.6458
240.5	73.7525
241	74.0171
241.5	74.2419
242	74.3727
242.5	74.4858
243	74.7233
243.5	75.1578
244	75.7164
244.5	76.098
245	76.0514
245.5	75.3799
246	74.3041
246.5	73.0631
247	71.9653
247.5	71.1378
248	70.5314
248.5	69.9
249	69.0127
249.5	67.8186
250	66.397
250.5	65.004
251	63.8303
251.5	63.0607
252	62.6426
252.5	62.5077
253	62.598
253.5	62.8551
254	63.2775
254.5	63.8675
255	64.5265
255.5	65.143
256	65.5737
256.5	65.7881
257	65.8749
257.5	66.0197
258	66.3925
258.5	67.0747
259	68.0969
259.5	69.3024
260	70.513
260.5	71.501
261	72.1253
261.5	72.3833
262	72.2847
262.5	71.9768
263	71.601
263.5	71.2768
264	71.0507
264.5	70.87
265	70.5616
265.5	69.9582
266	69.0115
266.5	67.7703
267	66.4905
267.5	65.462
268	64.9964
268.5	65.1821
269	65.8526
269.5	66.6486
270	67.1516
270.5	67.1534
271	66.5652
271.5	65.5546
272	64.3919
272.5	63.2971
273	62.3994
273.5	61.6733
274	61.0583
274.5	60.5373
275	60.1532
275.5	60.0098
276	60.1729
276.5	60.5819
277	61.128
277.5	61.6309
278	61.9983
278.5	62.2568
279	62.5223
279.5	62.8904
280	63.3744
280.5	63.8556
281	64.1471
281.5	64.0523
282	63.4601
282.5	62.5663
283	61.5567
283.5	60.6509
284	59.9669
284.5	59.5568
285	59.4213
285.5	59.4813
286	59.7079
286.5	60.0406
287	60.3639
287.5	60.5635
288	60.5221
288.5	60.2725
289	59.9165
289.5	59.6631
290	59.6708
290.5	59.9861
291	60.4225
291.5	60.6876
292	60.5943
292.5	60.0888
293	59.4575
293.5	59.026
294	59.2076
294.5	60.0268
295	61.2979
295.5	62.5388
296	63.3173
296.5	63.4038
297	62.6462
297.5	61.3654
298	59.8064
298.5	58.2315
299	56.832
299.5	55.6942
300	54.9189
300.5	54.4932
301	54.4416
301.5	54.816
302	55.4728
302.5	56.2872
303	57.1034
303.5	57.7889
304	58.2995
304.5	58.639
305	58.8775
305.5	59.0465
306	59.132
306.5	59.1147
307	58.9701
307.5	58.6809
308	58.3297
308.5	58.0463
309	58.0261
309.5	58.3659
310	59.0701
310.5	60.0582
311	61.0528
311.5	61.7806
312	61.9316
312.5	61.4621
313	60.5611
313.5	59.5558
314	58.7573
314.5	58.2724
315	58.0421
315.5	57.8035
316	57.3388
316.5	56.5482
317	55.6492
317.5	55.0197
318	55.0284
318.5	55.6886
319	56.7001
319.5	57.595
320	57.8965
320.5	57.4444
321	56.3117
321.5	55.0019
322	54.0935
322.5	54.0016
323	54.7291
323.5	55.9558
324	57.3382
324.5	58.5535
325	59.5114
325.5	60.2753
326	61.0159
326.5	61.81
327	62.5277
327.5	62.8931
328	62.7397
328.5	62.0124
329	60.9478
329.5	59.9776
330	59.5178
330.5	59.8061
331	60.6099
331.5	61.4268
332	61.6305
332.5	60.9914
333	59.5458
333.5	57.7361
334	56.2068
334.5	55.4831
335	55.8747
335.5	57.089
336	58.6977
336.5	60.1347
337	61.1115
337.5	61.5409
338	61.4898
338.5	61.2096
339	60.8616
339.5	60.5866
340	60.4517
340.5	60.5085
341	60.7729
341.5	61.1508
342	61.5465
342.5	61.8377
343	61.9876
343.5	62.0203
344	62.0071
344.5	61.9963
345	61.9179
345.5	61.4772
346	60.5225
346.5	59.0339
347	57.2498
347.5	55.7417
348	55.016
348.5	55.673
349	57.4908
349.5	60.1444
350	63.1205
350.5	65.9082
351	68.4722
351.5	71.1188
352	74.2326
352.5	78.0133
353	82.441
353.5	86.9356
354	90.8851
354.5	93.4099
355	94.2197
355.5	93.3247
356	90.8161
356.5	87.3277
357	83.2808
357.5	79.0323
358	74.9197
358.5	71.1402
359	67.9243
359.5	65.312
360	63.3505
360.5	62.1097
361	61.4561
361.5	61.2857
362	61.5328
362.5	62.0113
363	62.5734
363.5	63.0796
364	63.4219
364.5	63.5386
365	63.3312
365.5	62.8226
366	62.0821
366.5	61.2226
367	60.456
367.5	59.9696
368	59.9458
368.5	60.3516
369	60.9919
369.5	61.5781
370	61.8033
370.5	61.5893
371	61.0167
371.5	60.3349
372	59.7454
372.5	59.3269
373	58.9751
373.5	58.5067
374	57.7478
374.5	56.6865
375	55.5116
375.5	54.5302
376	54.0313
376.5	54.1081
377	54.8063
377.5	55.9948
378	57.421
378.5	58.8489
379	60.0171
379.5	60.7835
380	61.0549
380.5	60.9184
381	60.6527
381.5	60.4765
382	60.5408
382.5	60.8074
383	61.1606
383.5	61.4352
384	61.5588
384.5	61.5505
385	61.509
385.5	61.5127
386	61.5442
386.5	61.5335
387	61.4813
387.5	61.5028
388	61.8446
388.5	62.644
389	63.9387
389.5	65.5738
390	67.2232
390.5	68.7185
391	70.2086
391.5	72.1148
392	74.8295
392.5	78.5574
393	82.7655
393.5	86.7522
394	89.511
394.5	90.7021
395	90.3206
395.5	88.7393
396	86.8761
396.5	85.1834
397	83.6676
397.5	81.9072
398	79.4866
398.5	76.0195
399	71.8501
399.5	67.4433
400	63.5728
400.5	60.7345
401	59.1824
401.5	59.1413
402	59.9026
402.5	60.9995
403	61.8861
403.5	62.2177
404	61.8681
404.5	60.822
405	59.4557
405.5	58.0697
406	56.9581
406.5	56.1847
407	55.707
407.5	55.5091
408	55.6215
408.5	56.1805
409	57.3956
409.5	59.1041
410	60.9654
410.5	62.3802
411	62.8989
411.5	62.4137
412	61.1452
412.5	59.9168
413	59.3743
413.5	59.8958
414	61.1044
414.5	62.3848
415	63.0326
415.5	62.7743
416	61.814
416.5	60.6602
417	59.954
417.5	59.9788
418	60.6954
418.5	61.5042
419	61.9331
419.5	61.7084
420	61.0262
420.5	60.3052
421	60.0057
421.5	60.3466
422	61.1937
422.5	62.2281
423	63.0028
423.5	63.2575
424	62.9613
424.5	62.3884
425	61.8459
425.5	61.5562
426	61.569
426.5	61.7564
427	61.9398
427.5	61.9259
428	61.6295
428.5	61.013
429	60.1495
429.5	59.2132
430	58.4253
430.5	58.0483
431	58.2255
431.5	59.0601
432	60.4315
432.5	61.9653
433	63.2458
433.5	63.865
434	63.7867
434.5	63.1946
435	62.6447
435.5	62.7264
436	63.79
436.5	65.8141
437	68.2152
437.5	70.3372
438	71.4246
438.5	71.2578
439	69.8479
439.5	67.6018
440	65.3177
440.5	63.659
441	63.2857
441.5	64.0828
442	65.7933
442.5	67.952
443	69.9892
443.5	71.5802
444	72.557
444.5	73.156
445	73.6316
445.5	74.29
446	75.2604
446.5	76.5518
447	78.1178
447.5	79.8271
448	81.6734
448.5	83.7145
449	85.9072
449.5	88.1527
450	90.223
450.5	91.9607
451	93.3308
451.5	94.5025
452	95.927
452.5	98.0266
453	101.368
453.5	105.717
454	110.739
454.5	116.013
455	121.194
455.5	126.334
456	131.973
456.5	138.776
457	147.367
457.5	158.608
458	172.273
458.5	188.169
459	206.557
459.5	227.352
460	250.96
460.5	278.757
461	310.863
461.5	347.041
462	386.658
462.5	427.166
463	465.914
463.5	499.027
464	523.971
464.5	539.047
465	541.34
465.5	531.467
466	511.335
466.5	482.021
467	447.057
467.5	409.496
468	371.99
468.5	336.686
469	304.538
469.5	276.283
470	251.457
470.5	229.419
471	210.17
471.5	193.542
472	179.43
472.5	167.93
473	158.507
473.5	150.381
474	142.952
474.5	135.701
475	128.519
475.5	121.708
476	115.742
476.5	110.893
477	107.338
477.5	104.803
478	102.776
478.5	100.912
479	99.1181
479.5	97.5876
480	96.6544
480.5	96.4733
481	96.7563
481.5	96.9521
482	96.2855
482.5	94.3607
483	91.0782
483.5	86.98
484	83.0328
484.5	80.1338
485	78.9184
485.5	78.9716
486	79.7458
486.5	80.4798
487	80.6786
487.5	80.1703
488	79.0706
488.5	77.735
489	76.4076
489.5	75.2943
490	74.488
490.5	74.1074
491	74.29
491.5	74.9306
492	75.7834
492.5	76.354
493	76.2586
493.5	75.303
494	73.5895
494.5	71.7093
495	70.184
495.5	69.5008
496	69.5597
496.5	70.0966
497	70.6759
497.5	70.9594
498	70.8525
498.5	70.3885
499	69.7517
499.5	68.9425
500	67.8209
500.5	66.3749
501	64.6919
501.5	63.0893
502	61.9557
502.5	61.5656
503	62.1401
503.5	63.284
504	64.6163
504.5	65.6429
505	66.1227
505.5	66.0164
506	65.4152
506.5	64.6023
507	63.7215
507.5	62.8779
508	62.1505
508.5	61.6413
509	61.5794
509.5	62.0634
510	63.1216
510.5	64.6735
511	66.2951
511.5	67.5603
512	67.9383
512.5	67.3453
513	66.0242
513.5	64.4516
514	63.2304
514.5	62.6935
515	62.9847
515.5	63.7323
516	64.5067
516.5	64.9097
517	64.8756
517.5	64.6126
518	64.4813
518.5	64.7513
519	65.4016
519.5	66.1494
520	66.5201
520.5	66.2788
521	65.406
521.5	64.2869
522	63.3468
522.5	62.934
523	63.0603
523.5	63.4766
524	63.8631
524.5	63.9645
525	63.7636
525.5	63.3892
526	63.0788
526.5	62.9734
527	63.1075
527.5	63.3696
528	63.6297
528.5	63.8234
529	63.9446
529.5	64.0059
530	63.9728
530.5	63.7728
531	63.3591
531.5	62.7003
532	61.8585
532.5	60.9667
533	60.1488
533.5	59.5045
534	59.0503
534.5	58.8016
535	58.7709
535.5	58.934
536	59.3096
536.5	59.8991
537	60.6446
537.5	61.4969
538	62.364
538.5	63.1218
539	63.6081
539.5	63.6225
540	63.143
540.5	62.2229
541	61.1323
541.5	60.2861
542	60.0333
542.5	60.568
543	61.5293
543.5	62.4184
544	62.6423
544.5	62.0651
545	60.8254
545.5	59.3931
546	58.3341
546.5	57.9753
547	58.4424
547.5	59.3676
548	60.4448
548.5	61.3784
549	62.0567
549.5	62.4384
550	62.4278
550.5	62.0317
551	61.2754
551.5	60.389
552	59.818
552.5	59.9433
553	61.109
553.5	62.8897
554	64.7289
554.5	65.7507
555	65.618
555.5	64.395
556	62.5857
556.5	61.1133
557	60.5259
557.5	61.0752
558	62.0737
558.5	62.7695
559	62.2626
559.5	60.6219
560	58.3692
560.5	56.4421
561	55.5916
561.5	56.0274
562	57.5056
562.5	59.0367
563	59.8204
563.5	59.203
564	57.5171
564.5	55.475
565	54.0956
565.5	54.0233
566	55.3051
566.5	57.565
567	59.8353
567.5	61.3647
568	61.6627
568.5	60.9818
569	59.7676
569.5	58.4183
570	57.1888
570.5	56.1062
571	55.1604
571.5	54.4085
572	54.0174
572.5	54.2767
573	55.2393
573.5	56.681
574	58.1802
574.5	59.1976
575	59.4548
575.5	58.8917
576	57.9248
576.5	57.1176
577	56.9752
577.5	57.6723
578	59.0168
578.5	60.7157
579	62.3397
579.5	63.5723
580	64.1381
580.5	63.8947
581	62.8818
581.5	61.0997
582	58.7532
582.5	56.232
583	53.9906
583.5	52.5334
584	52.0685
584.5	52.6908
585	54.1459
585.5	55.8931
586	57.488
586.5	58.6395
587	59.3994
587.5	59.942
588	60.5303
588.5	61.3055
589	62.2423
589.5	63.1227
590	63.6739
590.5	63.6394
591	62.8542
591.5	61.5092
592	59.8664
592.5	58.3889
593	57.493
593.5	57.4881
594	58.4937
594.5	60.0605
595	61.6439
595.5	62.5294
596	62.4563
596.5	61.442
597	59.8457
597.5	58.3255
598	57.3118
598.5	57.0814
599	57.4011
599.5	58.0525
600	58.8742
600.5	59.8132
601	60.9155
601.5	62.1249
602	63.1023
602.5	63.3767
603	62.2335
603.5	59.7498
604	56.2357
604.5	52.419
605	49.2033
605.5	46.9949
606	45.9231
606.5	45.3734
607	44.9296
607.5	44.3982
608	44.0139
608.5	44.1912
609	45.5111
609.5	47.8824
610	50.9754
610.5	54.171
611	56.7978
611.5	58.5096
612	59.1116
612.5	59.0233
613	58.6464
613.5	58.3806
614	58.4462
614.5	58.8615
615	59.5401
615.5	60.2419
616	60.8002
616.5	61.0723
617	61.0667
617.5	60.8377
618	60.4225
618.5	59.8784
619	59.2304
619.5	58.5167
620	57.8733
620.5	57.4912
621	57.657
621.5	58.4517
622	59.7286
622.5	61.1378
623	62.1507
623.5	62.4261
624	61.8044
624.5	60.6665
625	59.5909
625.5	59.1845
626	59.6717
626.5	60.7596
627	61.9424
627.5	62.6362
628	62.6041
628.5	61.8623
629	60.8028
629.5	59.8436
630	59.253
630.5	59.0356
631	58.9981
631.5	58.9739
632	58.9102
632.5	58.9128
633	59.1688
633.5	59.7994
634	60.7185
634.5	61.7372
635	62.5645
635.5	63.0068
636	62.9277
636.5	62.3073
637	61.2746
637.5	59.9417
638	58.5226
638.5	57.2966
639	56.5807
639.5	56.6592
640	57.453
640.5	58.7461
641	60.0577
641.5	60.9197
642	61.0429
642.5	60.4024
643	59.3905
643.5	58.3633
644	57.6326
644.5	57.2215
645	57.0428
645.5	56.9838
646	57.0139
646.5	57.236
647	57.8013
647.5	58.634
648	59.5259
648.5	60.0758
649	60.0392
649.5	59.3658
650	58.2467
650.5	57.1286
651	56.3161
651.5	56.0489
652	56.2223
652.5	56.7383
653	57.5296
653.5	58.4787
654	59.5013
654.5	60.3695
655	60.7986
655.5	60.5177
656	59.2293
656.5	57.2874
657	55.1258
657.5	53.463
658	52.7371
658.5	53.0854
659	54.399
659.5	55.9621
660	57.2128
660.5	57.5698
661	57.0414
661.5	55.8352
662	54.3257
662.5	53.0098
663	52.1505
663.5	51.9257
664	52.1533
664.5	52.6278
665	53.146
665.5	53.5874
666	53.9786
666.5	54.4608
667	55.1622
667.5	56.0969
668	57.1315
668.5	57.9715
669	58.3751
669.5	58.1566
670	57.5091
670.5	56.769
671	56.3588
671.5	56.5168
672	57.2121
672.5	58.2556
673	59.2767
673.5	60.0161
674	60.2867
674.5	60.0974
675	59.5224
675.5	58.5907
676	57.4491
676.5	56.3432
677	55.6628
677.5	55.7548
678	56.6756
678.5	58.2361
679	59.782
679.5	60.6505
680	60.297
680.5	58.7779
681	56.6999
681.5	54.8119
682	53.7728
682.5	53.6737
683	54.2865
683.5	55.039
684	55.4878
684.5	55.4808
685	55.2156
685.5	55.0267
686	55.133
686.5	55.527
687	56.0023
687.5	56.3907
688	56.6712
688.5	57.0012
689	57.5667
689.5	58.4256
690	59.3709
690.5	60.0957
691	60.3072
691.5	60.073
692	59.6841
692.5	59.6423
693	60.2482
693.5	61.5718
694	63.3326
694.5	64.9655
695	65.9936
695.5	66.0699
696	65.4139
696.5	64.3652
697	63.4503
697.5	63.0359
698	63.235
698.5	63.8566
699	64.3604
699.5	64.2439
700	63.0049
700.5	60.8076
701	57.9888
701.5	55.1989
702	53.0558
702.5	51.8934
703	51.8426
703.5	52.3868
704	53.1293
704.5	53.7303
705	54.1596
705.5	54.5633
706	55.1816
706.5	56.0478
707	57.0439
707.5	57.888
708	58.3873
708.5	58.4983
709	58.3132
709.5	58.0996
710	58.0039
710.5	58.0964
711	58.2831
711.5	58.4709
712	58.5735
712.5	58.5819
713	58.5184
713.5	58.4287
714	58.3865
714.5	58.4585
715	58.7135
715.5	59.082
716	59.4093
716.5	59.4078
717	58.9212
717.5	57.9841
718	56.8629
718.5	56.0453
719	55.8577
719.5	56.4146
720	57.2174
720.5	57.6143
721	56.8363
721.5	54.7328
722	51.6494
722.5	48.2332
723	45.3009
723.5	43.2856
724	42.4046
724.5	42.3733
725	42.8769
725.5	43.8093
726	45.1379
726.5	46.8623
727	48.9437
727.5	51.1256
728	53.1205
728.5	54.6642
729	55.6891
729.5	56.288
730	56.4756
730.5	56.2438
731	55.5744
731.5	54.4461
732	53.0757
732.5	51.8227
733	51.0723
733.5	50.999
734	51.4022
734.5	51.9286
735	52.1624
735.5	51.9885
736	51.5823
736.5	51.4187
737	51.888
737.5	53.2057
738	55.1887
738.5	57.3162
739	59.0764
739.5	60.0527
740	60.2385
740.5	59.7276
741	58.7826
741.5	57.735
742	56.8026
742.5	56.1458
743	55.7555
743.5	55.5549
744	55.3577
744.5	54.9833
745	54.3553
745.5	53.5876
746	52.9837
746.5	52.8522
747	53.4077
747.5	54.4109
748	55.4959
748.5	56.1494
749	56.1646
749.5	55.5661
750	54.6084
750.5	53.6685
751	52.9036
751.5	52.3055
752	51.7464
752.5	51.2335
753	51.0131
753.5	51.3338
754	52.3412
754.5	53.9186
755	55.4569
755.5	56.4289
756	56.3346
756.5	55.4671
757	54.2833
757.5	53.4822
758	53.4114
758.5	54.0602
759	55.1084
759.5	55.966
760	56.2957
760.5	55.8986
761	55.0926
761.5	54.1883
762	53.5283
762.5	53.2266
763	53.2523
763.5	53.4996
764	53.7728
764.5	53.962
765	53.9803
765.5	53.8306
766	53.5194
766.5	53.0318
767	52.4168
767.5	51.7348
768	51.0955
768.5	50.6211
769	50.3946
769.5	50.4889
770	50.8278
770.5	51.3184
771	51.8814
771.5	52.4455
772	52.9712
772.5	53.395
773	53.6534
773.5	53.7073
774	53.5575
774.5	53.3499
775	53.2546
775.5	53.4196
776	53.7992
776.5	54.2149
777	54.4495
777.5	54.4405
778	54.3377
778.5	54.4208
779	54.8774
779.5	55.6094
780	56.2753
780.5	56.4439
781	55.9716
781.5	54.9958
782	54.0326
782.5	53.5339
783	53.7328
783.5	54.4084
784	55.1103
784.5	55.4645
785	55.3695
785.5	55.0288
786	54.6631
786.5	54.3689
787	54.0306
787.5	53.4508
788	52.5566
788.5	51.5472
789	50.7592
789.5	50.541
790	50.9312
790.5	51.8221
791	52.9175
791.5	53.9221
792	54.6702
792.5	55.1073
793	55.3247
793.5	55.4244
794	55.5836
794.5	55.9785
795	56.7483
795.5	57.8778
796	59.0556
796.5	59.8675
797	59.8308
797.5	58.9246
798	57.3395
798.5	55.5839
799	54.2135
799.5	53.5339
800	53.5937
800.5	53.9895
801	54.3775
801.5	54.4584
802	54.2344
802.5	53.8278
803	53.453
803.5	53.2645
804	53.3106
804.5	53.5547
805	53.8313
805.5	54.0083
806	53.9546
806.5	53.7034
807	53.3312
807.5	52.9582
808	52.6488
808.5	52.3567
809	51.9
809.5	51.153
810	50.0973
810.5	48.8935
811	47.8988
811.5	47.3894
812	47.5939
812.5	48.2425
813	49.0071
813.5	49.4641
814	49.4555
814.5	49.0478
815	48.4874
815.5	48.1161
816	48.1128
816.5	48.5544
817	49.2332
817.5	49.945
818	50.4866
818.5	50.8005
819	50.9354
819.5	51.0113
820	51.1813
820.5	51.5159
821	52.0057
821.5	52.5029
822	52.8639
822.5	52.9792
823	52.93
823.5	52.8815
824	53.0212
824.5	53.3703
825	53.7763
825.5	53.9511
826	53.6869
826.5	52.9928
827	52.0331
827.5	51.1209
828	50.4377
828.5	50.0237
829	49.7552
829.5	49.5561
830	49.5317
830.5	49.8901
831	50.7245
831.5	51.9287
832	53.0219
832.5	53.5009
833	52.9711
833.5	51.5837
834	49.9186
834.5	48.6293
835	48.1484
835.5	48.3695
836	48.9482
836.5	49.4094
837	49.5642
837.5	49.5134
838	49.5653
838.5	49.8977
839	50.4524
839.5	50.9063
840	50.9675
840.5	50.5206
841	49.7827
841.5	49.1725
842	49.03
842.5	49.4368
843	50.0588
843.5	50.4431
844	50.129
844.5	49.1022
845	47.6096
845.5	46.2516
846	45.5925
846.5	45.9997
847	47.4924
847.5	49.4818
848	51.3602
848.5	52.4658
849	52.6523
849.5	52.0336
850	51.0415
850.5	50.2541
851	50.0223
851.5	50.4783
852	51.2612
852.5	51.9538
853	52.0312
853.5	51.3654
854	50.0548
854.5	48.5176
855	47.365
855.5	47.0186
856	47.7385
856.5	49.055
857	50.4561
857.5	51.3013
858	51.4355
858.5	51.0085
859	50.4532
859.5	50.2318
860	50.4953
860.5	51.1387
861	51.7327
861.5	51.996
862	51.746
862.5	51.1835
863	50.492
863.5	49.8112
864	49.1568
864.5	48.4823
865	47.7605
865.5	47.0604
866	46.4937
866.5	46.2478
867	46.4101
867.5	47.0707
868	48.4104
868.5	50.335
869	52.6415
869.5	54.8706
870	56.4285
870.5	56.9103
871	56.0703
871.5	54.4951
872	52.9403
872.5	52.2813
873	52.7964
873.5	54.1925
874	55.7551
874.5	56.598
875	56.2769
875.5	54.6787
876	52.4448
876.5	50.289
877	48.872
877.5	48.3844
878	48.6088
878.5	49.1556
879	49.5045
879.5	49.3637
880	48.6115
880.5	47.4777
881	46.3093
881.5	45.4509
882	45.0625
882.5	45.0422
883	45.165
883.5	45.1467
884	44.8944
884.5	44.5294
885	44.3845
885.5	44.7239
886	45.6765
886.5	47.0099
887	48.2861
887.5	49.0773
888	49.1853
888.5	48.8092
889	48.2848
889.5	48.0131
890	48.1328
890.5	48.5468
891	48.8981
891.5	48.8421
892	48.1543
892.5	46.8946
893	45.4576
893.5	44.3082
894	43.9272
894.5	44.3891
895	45.5452
895.5	46.8573
896	47.6786
896.5	47.5382
897	46.3435
897.5	44.6951
898	43.3035
898.5	42.9003
899	43.4919
899.5	44.6883
900	45.693
900.5	45.9563
901	45.4386
901.5	44.7225
902	44.6586
902.5	45.7495
903	47.9619
903.5	50.3641
904	52.0535
904.5	52.1879
905	51.0281
905.5	49.1507
906	47.5061
906.5	46.762
907	47.1312
907.5	48.4981
908	50.1883
908.5	51.7439
909	52.7453
909.5	53.1804
910	53.1136
910.5	52.6282
911	51.9364
911.5	51.1174
912	50.1901
912.5	49.1854
913	48.1397
913.5	47.1824
914	46.4827
914.5	46.196
915	46.48
915.5	47.1363
916	47.9062
916.5	48.4038
917	48.4141
917.5	47.9168
918	47.0526
918.5	46.1972
919	45.6212
919.5	45.5472
920	45.8792
920.5	46.4388
921	46.9866
921.5	47.3124
922	47.3182
922.5	46.9351
923	46.2577
923.5	45.3812
924	44.3882
924.5	43.3978
925	42.5253
925.5	41.9661
926	41.8657
926.5	42.2894
927	43.2167
927.5	44.3136
928	45.1926
928.5	45.4437
929	45.0067
929.5	44.1505
930	43.3467
930.5	43.0706
931	43.4491
931.5	44.3204
932	45.1642
932.5	45.5535
933	45.2475
933.5	44.4354
934	43.4964
934.5	42.7543
935	42.3242
935.5	42.0904
936	41.9052
936.5	41.6965
937	41.5384
937.5	41.5922
938	41.9731
938.5	42.6501
939	43.5603
939.5	44.5882
940	45.619
940.5	46.5126
941	47.0514
941.5	47.0736
942	46.4589
942.5	45.3734
943	44.2776
943.5	43.6702
944	43.8978
944.5	44.7677
945	45.854
945.5	46.541
946	46.5386
946.5	45.8681
947	44.9079
947.5	44.0973
948	43.6418
948.5	43.5129
949	43.4989
949.5	43.5132
950	43.6435
950.5	44.0394
951	44.7822
951.5	45.7208
952	46.4502
952.5	46.5662
953	45.7488
953.5	44.2662
954	42.532
954.5	41.1817
955	40.5799
955.5	40.8158
956	41.6984
956.5	42.6927
957	43.4661
957.5	43.849
958	44.0446
958.5	44.2711
959	44.6819
959.5	45.1444
960	45.4253
960.5	45.2495
961	44.7342
961.5	44.1507
962	43.9452
962.5	44.2405
963	44.8832
963.5	45.3822
964	45.3019
964.5	44.5022
965	43.1111
965.5	41.6795
966	40.5827
966.5	40.0996
967	40.0744
967.5	40.3462
968	40.8577
968.5	41.6227
969	42.7211
969.5	44.1805
970	45.7106
970.5	46.9443
971	47.3876
971.5	46.9723
972	45.9001
972.5	44.6415
973	43.8438
973.5	43.9091
974	45.0662
974.5	46.8414
975	48.5734
975.5	49.3893
976	48.8299
976.5	46.9343
977	44.0902
977.5	41.2512
978	39.2001
978.5	38.551
979	39.1321
979.5	40.4238
980	41.8407
980.5	42.8843
981	43.4098
981.5	43.4328
982	43.1599
982.5	42.7566
983	42.325
983.5	41.993
984	41.9176
984.5	42.337
985	43.3454
985.5	44.7973
986	46.3919
986.5	47.677
987	48.3682
987.5	48.3142
988	47.6767
988.5	46.7706
989	45.8434
989.5	45.0862
990	44.5825
990.5	44.4376
991	44.7281
991.5	45.401
992	46.3064
992.5	47.0949
993	47.4452
993.5	47.1294
994	46.1893
994.5	44.9701
995	43.8086
995.5	42.9799
996	42.4917
996.5	42.2503
997	42.107
997.5	41.9792
998	41.8949
998.5	41.9218
999	42.0457
999.5	42.1727
1000	42.1281
1000.5	41.8284
1001	41.2997
1001.5	40.7512
1002	40.4708
1002.5	40.6878
1003	41.4955
1003.5	42.6094
1004	43.6914
1004.5	44.3364
1005	44.4671
1005.5	44.1683
1006	43.6664
1006.5	43.2052
1007	42.8498
1007.5	42.5644
1008	42.3123
1008.5	42.1942
1009	42.4944
1009.5	43.3117
1010	44.5674
1010.5	45.8619
1011	46.6691
1011.5	46.7001
1012	45.943
1012.5	45.0239
1013	44.4464
1013.5	44.5956
1014	45.1312
1014.5	45.5756
1015	45.3415
1015.5	44.456
1016	43.2548
1016.5	42.2984
1017	41.8107
1017.5	41.6262
1018	41.2493
1018.5	40.3191
1019	38.8639
1019.5	37.354
1020	36.4767
1020.5	36.6309
1021	37.9521
1021.5	39.7874
1022	41.5018
1022.5	42.4955
1023	42.7527
1023.5	42.569
1024	42.413
1024.5	42.6589
1025	43.3733
1025.5	44.4051
1026	45.3694
1026.5	45.9679
1027	45.9491
1027.5	45.3834
1028	44.4406
1028.5	43.3183
1029	42.2636
1029.5	41.4263
1030	40.9063
1030.5	40.631
1031	40.4551
1031.5	40.2149
1032	39.8205
1032.5	39.3286
1033	38.9337
1033.5	38.8834
1034	39.3033
1034.5	40.2239
1035	41.4198
1035.5	42.6133
1036	43.586
1036.5	44.2845
1037	44.7966
1037.5	45.1895
1038	45.4377
1038.5	45.4274
1039	44.9939
1039.5	44.1411
1040	43.0911
1040.5	42.1463
1041	41.5798
1041.5	41.4043
1042	41.4658
1042.5	41.4462
1043	41.1158
1043.5	40.3736
1044	39.3146
1044.5	38.1636
1045	37.122
1045.5	36.38
1046	36.0238
1046.5	36.1558
1047	36.811
1047.5	37.8049
1048	38.9247
1048.5	39.8672
1049	40.4415
1049.5	40.5568
1050	40.2601
1050.5	39.7557
1051	39.1838
1051.5	38.6639
1052	38.26
1052.5	38.0363
1053	38.0818
1053.5	38.3925
1054	38.939
1054.5	39.596
1055	40.1647
1055.5	40.4915
1056	40.4769
1056.5	40.2482
1057	39.98
1057.5	39.9052
1058	40.1284
1058.5	40.6694
1059	41.4755
1059.5	42.3847
1060	43.315
1060.5	44.2186
1061	45.0658
1061.5	45.7806
1062	46.1608
1062.5	46.1164
1063	45.6325
1063.5	44.8576
1064	44.1794
1064.5	43.8616
1065	44.049
1065.5	44.4149
1066	44.6103
1066.5	44.2912
1067	43.5553
1067.5	42.6195
1068	41.74
1068.5	40.9771
1069	40.2216
1069.5	39.328
1070	38.3867
1070.5	37.6707
1071	37.6351
1071.5	38.335
1072	39.5566
1072.5	40.8392
1073	41.7276
1073.5	42.0953
1074	42.0573
1074.5	41.9734
1075	41.9858
1075.5	42.0025
1076	41.8088
1076.5	41.3219
1077	40.6839
1077.5	40.2888
1078	40.4558
1078.5	41.3866
1079	42.7734
1079.5	44.1386
1080	44.9071
1080.5	44.8239
1081	44.0198
1081.5	42.8903
1082	42.0783
1082.5	41.999
1083	42.7743
1083.5	43.9258
1084	44.8034
1084.5	44.7332
1085	43.5406
1085.5	41.6053
1086	39.6141
1086.5	38.3853
1087	38.2951
1087.5	39.3908
1088	41.0843
1088.5	42.6418
1089	43.4536
1089.5	43.3387
1090	42.6103
1090.5	41.7275
1091	41.1631
1091.5	41.0221
1092	41.1553
1092.5	41.1968
1093	40.8765
1093.5	40.0782
1094	38.9283
1094.5	37.6935
1095	36.6021
1095.5	35.835
1096	35.4385
1096.5	35.4493
1097	35.7893
1097.5	36.2136
1098	36.4272
1098.5	36.1592
1099	35.5374
1099.5	34.9441
1100	35.0039
1100.5	36.0071
1101	37.9291
1101.5	40.2641
1102	42.2978
1102.5	43.5672
1103	43.9211
1103.5	43.7035
1104	43.1378
1104.5	42.2852
1105	41.1226
1105.5	39.6251
1106	37.9892
1106.5	36.6021
1107	35.7338
1107.5	35.4845
1108	35.5845
1108.5	35.8627
1109	36.2945
1109.5	36.9285
1110	37.7603
1110.5	38.5344
1111	38.8744
1111.5	38.562
1112	37.7146
1112.5	37.006
1113	37.0149
1113.5	38.1468
1114	39.7527
1114.5	41.1067
1115	41.3387
1115.5	40.5009
1116	39.0238
1116.5	37.7575
1117	37.3609
1117.5	38.0327
1118	39.62
1118.5	41.3307
1119	42.5555
1119.5	42.6812
1120	41.8306
1120.5	40.336
1121	38.7837
1121.5	37.6686
1122	37.1226
1122.5	37.0263
1123	36.9621
1123.5	36.6796
1124	36.0938
1124.5	35.394
1125	34.7495
1125.5	34.265
1126	33.9309
1126.5	33.7938
1127	34.1093
1127.5	35.0881
1128	36.7243
1128.5	38.697
1129	40.3476
1129.5	41.2144
1130	41.0922
1130.5	40.4739
1131	39.9592
1131.5	40.0154
1132	40.5313
1132.5	41.0301
1133	40.9005
1133.5	39.9243
1134	38.3583
1134.5	36.7297
1135	35.5798
1135.5	35.0542
1136	35.069
1136.5	35.286
1137	35.4552
1137.5	35.4893
1138	35.4625
1138.5	35.4793
1139	35.5936
1139.5	35.7728
1140	35.9626
1140.5	36.1667
1141	36.4762
1141.5	36.9917
1142	37.7689
1142.5	38.6989
1143	39.5549
1143.5	40.0833
1144	40.1491
1144.5	39.8789
1145	39.5219
1145.5	39.423
1146	39.7423
1146.5	40.449
1147	41.2222
1147.5	41.6376
1148	41.3501
1148.5	40.3097
1149	38.88
1149.5	37.5001
1150	36.6462
1150.5	36.4458
1151	36.8366
1151.5	37.5458
1152	38.2742
1152.5	38.9478
1153	39.713
1153.5	40.7844
1154	42.3264
1154.5	44.2957
1155	46.3715
1155.5	48.2489
1156	49.6056
1156.5	50.3763
1157	50.5312
1157.5	50.1074
1158	49.3799
1158.5	48.6061
1159	48.1628
1159.5	48.2728
1160	49.0406
1160.5	50.4064
1161	51.909
1161.5	53.1692
1162	53.7287
1162.5	53.498
1163	52.4761
1163.5	50.7823
1164	48.8901
1164.5	47.1601
1165	45.9557
1165.5	45.1897
1166	44.5784
1166.5	43.5288
1167	41.7417
1167.5	39.2782
1168	36.6382
1168.5	34.616
1169	33.7441
1169.5	34.3851
1170	35.8675
1170.5	37.4828
1171	38.36
1171.5	38.2117
1172	37.1619
1172.5	35.6725
1173	34.4953
1173.5	34.0677
1174	34.7308
1174.5	36.2223
1175	38.2029
1175.5	40.2149
1176	41.7811
1176.5	42.5991
1177	42.383
1177.5	41.3434
1178	39.8003
1178.5	38.1637
1179	36.8168
1179.5	35.8798
1180	35.338
1180.5	34.9767
1181	34.6454
1181.5	34.3071
1182	34.0467
1182.5	33.9869
1183	34.2818
1183.5	34.9499
1184	35.9212
1184.5	37.0742
1185	38.1749
1185.5	39.0373
1186	39.4973
1186.5	39.579
1187	39.4301
1187.5	39.2126
1188	39.0567
1188.5	38.9792
1189	38.953
1189.5	38.9768
1190	39.1173
1190.5	39.4538
1191	39.8978
1191.5	40.189
1192	39.9417
1192.5	38.905
1193	37.1985
1193.5	35.1377
1194	33.2788
1194.5	32.0427
1195	31.7328
1195.5	32.3713
1196	33.6567
1196.5	35.2489
1197	36.7084
1197.5	37.6983
1198	37.9881
1198.5	37.6031
1199	36.869
1199.5	36.0805
1200	35.4493
1200.5	34.9474
1201	34.4461
1201.5	33.8569
1202	33.2951
1202.5	32.9939
1203	33.2098
1203.5	33.9443
1204	35.1287
1204.5	36.5785
1205	38.016
1205.5	39.1576
1206	39.5909
1206.5	39.1126
1207	37.6526
1207.5	35.5479
1208	33.5399
1208.5	32.2424
1209	32.0939
1209.5	32.7429
1210	33.6965
1210.5	34.3266
1211	34.3816
1211.5	33.9208
1212	33.2567
1212.5	32.8034
1213	32.7852
1213.5	33.3681
1214	34.3909
1214.5	35.6781
1215	36.9293
1215.5	37.871
1216	38.3838
1216.5	38.4891
1217	38.4776
1217.5	38.4921
1218	38.426
1218.5	38.0125
1219	37.0754
1219.5	35.6953
1220	34.4793
1220.5	33.9989
1221	34.8016
1221.5	36.4772
1222	38.3955
1222.5	39.6511
1223	39.9091
1223.5	39.3621
1224	38.4769
1224.5	37.7909
1225	37.4564
1225.5	37.349
1226	37.1468
1226.5	36.6869
1227	35.9661
1227.5	35.1995
1228	34.5596
1228.5	34.1685
1229	34.0357
1229.5	34.1934
1230	34.7542
1230.5	35.6668
1231	36.7495
1231.5	37.6345
1232	37.9588
1232.5	37.5827
1233	36.5638
1233.5	35.3927
1234	34.4641
1234.5	34.0703
1235	34.1955
1235.5	34.6956
1236	35.4562
1236.5	36.3132
1237	37.0896
1237.5	37.4892
1238	37.2352
1238.5	36.3383
1239	35.0403
1239.5	33.9234
1240	33.4724
1240.5	33.9927
1241	35.2403
1241.5	36.6588
1242	37.6752
1242.5	37.9333
1243	37.5001
1243.5	36.6228
1244	35.6767
1244.5	34.941
1245	34.6147
1245.5	34.7573
1246	35.2423
1246.5	35.8757
1247	36.3598
1247.5	36.5079
1248	36.3163
1248.5	36.0695
1249	36.0993
1249.5	36.6104
1250	37.4971
1250.5	38.3455
1251	38.7057
1251.5	38.2768
1252	37.259
1252.5	36.0691
1253	35.3319
1253.5	35.3336
1254	36.0974
1254.5	37.2947
1255	38.3778
1255.5	38.9263
1256	38.6954
1256.5	37.9246
1257	36.9498
1257.5	36.2362
1258	35.9607
1258.5	36.0729
1259	36.3273
1259.5	36.4738
1260	36.495
1260.5	36.6517
1261	37.2525
1261.5	38.4429
1262	40.02
1262.5	41.3386
1263	41.8998
1263.5	41.4035
1264	40.3106
1264.5	39.114
1265	38.3176
1265.5	37.9514
1266	37.8183
1266.5	37.6224
1267	37.27
1267.5	36.8663
1268	36.5612
1268.5	36.3549
1269	36.1788
1269.5	36.0096
1270	35.9529
1270.5	36.1414
1271	36.6298
1271.5	37.1504
1272	37.4588
1272.5	37.473
1273	37.4938
1273.5	37.8163
1274	38.5597
1274.5	39.2949
1275	39.5015
1275.5	38.6908
1276	37.2502
1276.5	35.9388
1277	35.7088
1277.5	36.7799
1278	38.8523
1278.5	41.2616
1279	43.2638
1279.5	44.7228
1280	46.4894
1280.5	50.6284
1281	59.3516
1281.5	75.4123
1282	97.8881
1282.5	123.434
1283	145.6
1283.5	157.521
1284	155.445
1284.5	137.541
1285	110.266
1285.5	82.1098
1286	60.3638
1286.5	47.6504
1287	42.2234
1287.5	41.028
1288	40.3221
1288.5	38.7308
1289	36.7818
1289.5	35.8521
1290	36.2773
1290.5	37.4307
1291	38.0473
1291.5	37.4746
1292	35.7643
1292.5	33.7583
1293	32.2031
1293.5	31.4573
1294	31.3361
1294.5	31.562
1295	32.1977
1295.5	33.4093
1296	35.1034
1296.5	36.8356
1297	37.8165
1297.5	37.6201
1298	36.2998
1298.5	34.8596
1299	34.3003
1299.5	35.1502
1300	37.0298
1300.5	38.8725
1301	39.7203
1301.5	39.1314
1302	37.6054
1302.5	35.83
1303	34.427
1303.5	33.5162
1304	33.0786
1304.5	33.15
1305	33.7677
1305.5	34.9592
1306	36.3879
1306.5	37.3627
1307	37.3274
1307.5	36.2138
1308	34.7575
1308.5	33.7174
1309	33.657
1309.5	34.2533
1310	34.8909
1310.5	34.8358
1311	34.0572
1311.5	32.986
1312	32.2461
1312.5	32.0865
1313	32.4381
1313.5	33.0783
1314	33.8297
1314.5	34.7636
1315	36.0169
1315.5	37.3382
1316	38.3207
1316.5	38.4294
1317	37.7782
1317.5	36.7494
1318	35.9844
1318.5	35.7626
1319	35.919
1319.5	35.9091
1320	35.4709
1320.5	34.7662
1321	34.3143
1321.5	34.4069
1322	34.9196
1322.5	35.3099
1323	35.1158
1323.5	34.3999
1324	33.7419
1324.5	33.702
1325	34.3689
1325.5	35.3425
1326	35.9058
1326.5	35.7055
1327	34.7511
1327.5	33.6716
1328	32.8866
1328.5	32.5708
1329	32.5034
1329.5	32.4901
1330	32.479
1330.5	32.5664
1331	32.8465
1331.5	33.3043
1332	33.7491
1332.5	34.0224
1333	33.9926
1333.5	33.6794
1334	33.136
1334.5	32.3992
1335	31.5835
1335.5	30.8471
1336	30.4402
1336.5	30.5376
1337	31.1637
1337.5	32.2099
1338	33.2713
1338.5	33.9377
1339	33.8077
1339.5	32.9728
1340	31.87
1340.5	31.0357
1341	30.852
1341.5	31.3066
1342	32.1944
1342.5	33.1656
1343	34.063
1343.5	34.9461
1344	35.9032
1344.5	36.8407
1345	37.4371
1345.5	37.3184
1346	36.3791
1346.5	34.6792
1347	32.655
1347.5	30.8586
1348	29.7536
1348.5	29.5983
1349	30.2491
1349.5	31.4165
1350	32.5326
1350.5	33.0997
1351	32.8475
1351.5	31.9784
1352	30.9829
1352.5	30.2703
1353	30.0923
1353.5	30.3755
1354	31.0019
1354.5	31.7776
1355	32.4624
1355.5	32.8351
1356	32.7494
1356.5	32.3973
1357	32.1668
1357.5	32.5872
1358	33.7323
1358.5	35.2397
1359	36.2569
1359.5	36.2933
1360	35.3457
1360.5	33.9906
1361	33.0149
1361.5	32.7785
1362	33.1272
1362.5	33.3959
1363	33.2117
1363.5	32.607
1364	32.0686
1364.5	31.986
1365	32.5368
1365.5	33.3526
1366	34.0466
1366.5	34.3564
1367	34.4559
1367.5	34.5815
1368	34.9197
1368.5	35.3508
1369	35.6676
1369.5	35.6712
1370	35.5201
1370.5	35.4174
1371	35.4595
1371.5	35.4434
1372	35.1348
1372.5	34.4275
1373	33.7149
1373.5	33.4322
1374	33.8473
1374.5	34.5694
1375	35.1979
1375.5	35.4847
1376	35.6405
1376.5	35.8589
1377	35.9402
1377.5	35.421
1378	34.1853
1378.5	32.8484
1379	32.5172
1379.5	33.7094
1380	36.0041
1380.5	37.8365
1381	38.4605
1381.5	38.5032
1382	39.4095
1382.5	41.5497
1383	43.834
1383.5	45.1693
1384	47.5226
1384.5	58.8847
1385	86.3533
1385.5	131.138
1386	186.457
1386.5	233.783
1387	256.64
1387.5	240.795
1388	194.321
1388.5	136.914
1389	87.3097
1389.5	56.1501
1390	42.1682
1390.5	39.6696
1391	40.0351
1391.5	39.4254
1392	38.1029
1392.5	37.3476
1393	37.0906
1393.5	36.2481
1394	34.1961
1394.5	31.7419
1395	30.5386
1395.5	31.3696
1396	33.4973
1396.5	35.716
1397	37.0714
1397.5	37.5962
1398	37.6664
1398.5	37.5248
1399	37.0201
1399.5	35.9254
1400	34.4472
1400.5	33.1422
1401	32.5075
1401.5	32.6531
1402	33.2001
1402.5	33.7923
1403	34.2599
1403.5	34.632
1404	34.9719
1404.5	35.3896
1405	36.0794
1405.5	37.3524
1406	39.3603
1406.5	41.7508
1407	43.9272
1407.5	45.1182
1408	45.1035
1408.5	43.9298
1409	42.0028
1409.5	39.8524
1410	37.6866
1410.5	35.6805
1411	34.0055
1411.5	32.8875
1412	32.53
1412.5	32.6877
1413	33.0822
1413.5	33.4647
1414	33.7488
1414.5	33.938
1415	33.9649
1415.5	33.6888
1416	32.978
1416.5	31.8431
1417	30.6237
1417.5	29.6485
1418	29.2659
1418.5	29.4496
1419	30.1061
1419.5	31.0501
1420	31.998
1420.5	32.7102
1421	32.8103
1421.5	32.2435
1422	31.1096
1422.5	29.865
1423	29.0956
1423.5	29.0738
1424	29.8191
1424.5	30.7676
1425	31.4793
1425.5	31.5656
1426	31.1792
1426.5	30.4969
1427	29.5704
1427.5	28.4165
1428	27.0673
1428.5	25.809
1429	25.163
1429.5	25.4741
1430	26.8977
1430.5	28.8403
1431	30.673
1431.5	31.7415
1432	31.9137
1432.5	31.3961
1433	30.4987
1433.5	29.5422
1434	28.6802
1434.5	28.0271
1435	27.598
1435.5	27.3438
1436	27.1651
1436.5	27.0129
1437	27.0011
1437.5	27.4303
1438	28.4268
1438.5	29.7643
1439	30.7414
1439.5	30.6575
1440	29.3547
1440.5	27.1742
1441	25.1182
1441.5	23.9808
1442	24.2073
1442.5	25.1892
1443	26.1648
1443.5	26.5544
1444	26.2686
1444.5	25.6058
1445	24.9335
1445.5	24.5585
1446	24.584
1446.5	25.1377
1447	26.2585
1447.5	27.8293
1448	29.6174
1448.5	31.1576
1449	32.126
1449.5	32.3347
1450	31.8866
1450.5	31.0726
1451	30.0943
1451.5	29.1153
1452	28.2445
1452.5	27.642
1453	27.532
1453.5	28.0036
1454	29.0489
1454.5	30.3236
1455	31.2473
1455.5	31.3097
1456	30.2932
1456.5	28.6273
1457	26.9607
1457.5	26.1629
1458	26.5611
1458.5	27.9223
1459	29.5305
1459.5	30.6308
1460	30.8505
1460.5	30.297
1461	29.6094
1461.5	29.2762
1462	29.5061
1462.5	30.0562
1463	30.6567
1463.5	31.0379
1464	31.0903
1464.5	30.7573
1465	30.0057
1465.5	29.0303
1466	28.1135
1466.5	27.7057
1467	27.9506
1467.5	28.6471
1468	29.2163
1468.5	29.2002
1469	28.5024
1469.5	27.4273
1470	26.6292
1470.5	26.4981
1471	27.153
1471.5	28.1904
1472	29.3003
1472.5	30.1611
1473	30.6255
1473.5	30.6156
1474	30.1071
1474.5	29.3559
1475	28.5719
1475.5	27.939
1476	27.4108
1476.5	26.8512
1477	26.2066
1477.5	25.6739
1478	25.4925
1478.5	25.8145
1479	26.287
1479.5	26.4594
1480	26.0266
1480.5	25.3507
1481	24.9711
1481.5	25.4574
1482	26.6542
1482.5	28.0111
1483	28.8204
1483.5	28.9064
1484	28.4755
1484.5	27.8529
1485	27.2755
1485.5	26.726
1486	26.1572
1486.5	25.7033
1487	25.599
1487.5	26.0898
1488	27.0259
1488.5	28.0234
1489	28.623
1489.5	28.6467
1490	28.1757
1490.5	27.3571
1491	26.4067
1491.5	25.4431
1492	24.5504
1492.5	23.8358
1493	23.4287
1493.5	23.5377
1494	24.2507
1494.5	25.4545
1495	26.8512
1495.5	27.9585
1496	28.3775
1496.5	27.7799
1497	26.2891
1497.5	24.4475
1498	22.8903
1498.5	22.1102
1499	22.2004
1499.5	23.1023
1500	24.458
1500.5	25.8069
1501	26.7785
1501.5	27.1611
1502	27.0645
1502.5	26.7896
1503	26.8886
1503.5	27.6488
1504	28.9977
1504.5	30.364
1505	31.0637
1505.5	30.588
1506	28.9599
1506.5	27.0357
1507	25.5725
1507.5	25.1067
1508	25.4525
1508.5	26.1576
1509	26.5749
1509.5	26.5046
1510	26.1102
1510.5	25.8314
1511	25.9805
1511.5	26.5886
1512	27.2676
1512.5	27.5481
1513	27.1817
1513.5	26.2319
1514	25.1953
1514.5	24.5975
1515	24.8305
1515.5	25.705
1516	26.8728
1516.5	27.7405
1517	27.8727
1517.5	27.1089
1518	25.7572
1518.5	24.5536
1519	24.08
1519.5	24.7654
1520	26.1434
1520.5	27.5237
1521	28.108
1521.5	27.8589
1522	27.1072
1522.5	26.4797
1523	26.3447
1523.5	26.5551
1524	26.6285
1524.5	26.2609
1525	25.5076
1525.5	24.7864
1526	24.4857
1526.5	24.763
1527	25.3786
1527.5	25.9167
1528	26.1635
1528.5	25.9961
1529	25.6363
1529.5	25.2713
1530	25.0971
1530.5	25.1821
1531	25.5095
1531.5	25.9311
1532	26.1217
1532.5	25.9679
1533	25.5474
1533.5	25.2358
1534	25.3478
1534.5	25.9288
1535	26.4974
1535.5	26.7252
1536	26.4063
1536.5	25.6588
1537	24.756
1537.5	24.1201
1538	23.9684
1538.5	24.1959
1539	24.4123
1539.5	24.327
1540	23.7754
1540.5	22.9456
1541	22.1537
1541.5	21.6519
1542	21.4707
1542.5	21.5632
1543	21.8039
1543.5	22.1847
1544	22.8132
1544.5	23.6951
1545	24.7315
1545.5	25.5947
1546	25.924
1546.5	25.5456
1547	24.7126
1547.5	23.8397
1548	23.4204
1548.5	23.6411
1549	24.2832
1549.5	24.8599
1550	25.0054
1550.5	24.5412
1551	23.6033
1551.5	22.5685
1552	21.8431
1552.5	21.6666
1553	22.0999
1553.5	23.1168
1554	24.3095
1554.5	25.2099
1555	25.3778
1555.5	24.8154
1556	23.7721
1556.5	22.9454
1557	22.9444
1557.5	24.0399
1558	25.7873
1558.5	27.6157
1559	28.7823
1559.5	28.901
1560	27.9627
1560.5	26.2787
1561	24.287
1561.5	22.4096
1562	21.0787
1562.5	20.5153
1563	20.6968
1563.5	21.1535
1564	21.4321
1564.5	21.0846
1565	20.1748
1565.5	19.2258
1566	18.9838
1566.5	19.8009
1567	21.7572
1567.5	24.1569
1568	26.1593
1568.5	27.0154
1569	26.8126
1569.5	25.889
1570	24.9288
1570.5	24.4601
1571	24.565
1571.5	24.7854
1572	24.6793
1572.5	23.9061
1573	22.7118
1573.5	21.6351
1574	21.3418
1574.5	21.8926
1575	23.0481
1575.5	24.15
1576	24.6287
1576.5	24.2113
1577	23.3713
1577.5	22.6419
1578	22.5895
1578.5	23.2343
1579	24.2768
1579.5	25.0455
1580	25.2449
1580.5	24.9316
1581	24.6375
1581.5	24.8648
1582	25.8786
1582.5	26.9933
1583	27.5074
1583.5	26.85
1584	25.4224
1584.5	24.1318
1585	24.1404
1585.5	25.3804
1586	27.0069
1586.5	27.5772
1587	26.3262
1587.5	23.2735
1588	20.34
1588.5	19.0118
1589	20.1214
1589.5	22.8831
1590	26.065
1590.5	28.1162
1591	28.7731
1591.5	28.3419
1592	27.5903
1592.5	26.8748
1593	26.1623
1593.5	25.1913
1594	23.9356
1594.5	22.7281
1595	21.963
1595.5	21.966
1596	22.6533
1596.5	23.6604
1597	24.5816
1597.5	25.2619
1598	25.7361
1598.5	26.1486
1599	26.5812
1599.5	26.8998
1600	26.7839
1600.5	26.025
1601	24.5051
1601.5	22.5848
1602	20.8194
1602.5	19.9513
1603	20.1114
1603.5	21.2009
1604	22.7625
1604.5	24.2585
1605	25.269
1605.5	25.7159
1606	25.7316
1606.5	25.4505
1607	25.1071
1607.5	24.8967
1608	25.098
1608.5	25.7105
1609	26.5761
1609.5	27.2717
1610	27.4097
1610.5	26.6494
1611	25.1316
1611.5	23.3554
1612	21.9247
1612.5	21.1664
1613	21.1673
1613.5	21.7152
1614	22.3687
1614.5	22.8349
1615	23.1632
1615.5	23.6703
1616	24.8897
1616.5	27.098
1617	30.2126
1617.5	33.4748
1618	35.9189
1618.5	36.7331
1619	35.5156
1619.5	32.7056
1620	28.9883
1620.5	25.5202
1621	22.9024
1621.5	21.5678
1622	21.2354
1622.5	21.5758
1623	22.0914
1623.5	22.4201
1624	22.4839
1624.5	22.4465
1625	22.524
1625.5	22.8896
1626	23.4741
1626.5	24.0698
1627	24.4794
1627.5	24.7119
1628	24.8617
1628.5	25.0533
1629	25.2838
1629.5	25.435
1630	25.4412
1630.5	25.3876
1631	25.4817
1631.5	25.8596
1632	26.4857
1632.5	27.0429
1633	27.2186
1633.5	26.8248
1634	25.8979
1634.5	24.6425
1635	23.256
1635.5	21.9757
1636	20.9761
1636.5	20.5157
1637	20.6396
1637.5	21.327
1638	22.3504
1638.5	23.3712
1639	24.1999
1639.5	24.8669
1640	25.4551
1640.5	25.9116
1641	26.0047
1641.5	25.4316
1642	24.1111
1642.5	22.5522
1643	21.3414
1643.5	21.0028
1644	21.4715
1644.5	22.2957
1645	22.667
1645.5	22.3117
1646	21.4067
1646.5	20.6468
1647	20.562
1647.5	21.3603
1648	22.5057
1648.5	23.2935
1649	23.3117
1649.5	22.7327
1650	22.0387
1650.5	21.7788
1651	22.0828
1651.5	22.5093
1652	22.4515
1652.5	21.5994
1653	20.1438
1653.5	18.7079
1654	18.0264
1654.5	18.4836
1655	19.8318
1655.5	21.646
1656	23.3329
1656.5	24.5408
1657	25.0688
1657.5	25.1066
1658	24.9917
1658.5	25.1234
1659	25.6411
1659.5	26.4363
1660	27.0386
1660.5	27.0128
1661	26.1259
1661.5	24.9648
1662	24.1428
1662.5	24.175
1663	24.9079
1663.5	25.8497
1664	26.2688
1664.5	26.0174
1665	25.3489
1665.5	24.7648
1666	24.4909
1666.5	24.4865
1667	24.5082
1667.5	24.4745
1668	24.5284
1668.5	24.7369
1669	24.9362
1669.5	24.7284
1670	23.8676
1670.5	22.3993
1671	21.0756
1671.5	20.5007
1672	20.9374
1672.5	21.9389
1673	22.9051
1673.5	23.3073
1674	23.1762
1674.5	22.9356
1675	22.9664
1675.5	23.2869
1676	23.6308
1676.5	23.7172
1677	23.5006
1677.5	23.2836
1678	23.3009
1678.5	23.4796
1679	23.3789
1679.5	22.645
1680	21.1673
1680.5	19.6564
1681	19.0069
1681.5	19.877
1682	21.8484
1682.5	24.0971
1683	25.4795
1683.5	25.5413
1684	24.4256
1684.5	23.299
1685	22.9262
1685.5	23.6508
1686	24.8835
1686.5	25.937
1687	26.161
1687.5	25.5855
1688	24.6754
1688.5	24.041
1689	23.9061
1689.5	24.177
1690	24.349
1690.5	23.9927
1691	22.8595
1691.5	21.4306
1692	20.2924
1692.5	19.9954
1693	20.5427
1693.5	21.5905
1694	22.3939
1694.5	22.4836
1695	21.8404
1695.5	21.0121
1696	20.4196
1696.5	20.2809
1697	20.3966
1697.5	20.4692
1698	20.3027
1698.5	20.0191
1699	19.8704
1699.5	20.043
1700	20.5867
1700.5	21.4577
1701	22.4506
1701.5	23.3162
1702	23.7306
1702.5	23.5527
1703	22.7641
1703.5	21.743
1704	20.9355
1704.5	20.8387
1705	21.4301
1705.5	22.377
1706	23.1609
1706.5	23.4483
1707	23.0682
1707.5	22.1299
1708	20.8992
1708.5	19.7023
1709	18.8309
1709.5	18.3813
1710	18.3222
1710.5	18.4242
1711	18.5752
1711.5	18.8561
1712	19.5041
1712.5	20.6775
1713	22.085
1713.5	23.2489
1714	23.6212
1714.5	23.2183
1715	22.3544
1715.5	21.5534
1716	20.9718
1716.5	20.3558
1717	19.3576
1717.5	18.0284
1718	16.8261
1718.5	16.407
1719	17.0743
1719.5	18.6736
1720	20.3645
1720.5	21.6289
1721	22.2574
1721.5	22.5033
1722	22.6513
1722.5	22.872
1723	23.0619
1723.5	22.9596
1724	22.4741
1724.5	21.6907
1725	20.8985
1725.5	20.4292
1726	20.5166
1726.5	21.1441
1727	21.9728
1727.5	22.6336
1728	22.9219
1728.5	22.8457
1729	22.4312
1729.5	21.7147
1730	20.598
1730.5	19.0996
1731	17.7134
1731.5	17.1585
1732	17.9847
1732.5	20.0022
1733	22.4722
1733.5	24.2076
1734	24.5223
1734.5	23.5061
1735	22.2173
1735.5	21.424
1736	21.4928
1736.5	22.1389
1737	22.9587
1737.5	23.5829
1738	23.8724
1738.5	23.654
1739	22.8312
1739.5	21.3779
1740	19.6191
1740.5	18.2298
1741	17.8985
1741.5	18.9142
1742	20.7995
1742.5	22.7647
1743	24.1747
1743.5	24.8767
1744	24.9422
1744.5	24.659
1745	24.0802
1745.5	23.1474
1746	21.9749
1746.5	20.8439
1747	20.1062
1747.5	19.8554
1748	19.9545
1748.5	19.9996
1749	19.7677
1749.5	19.344
1750	19.1212
1750.5	19.3273
1751	19.7686
1751.5	19.9619
1752	19.4131
1752.5	18.2044
1753	16.9009
1753.5	16.5426
1754	17.3441
1754.5	18.9203
1755	20.2561
1755.5	20.634
1756	19.9151
1756.5	18.9069
1757	18.5409
1757.5	19.4893
1758	21.0353
1758.5	22.2432
1759	22.1898
1759.5	21.0326
1760	19.4037
1760.5	18.3051
1761	18.1467
1761.5	18.7799
1762	19.3782
1762.5	19.5014
1763	19.0897
1763.5	18.6259
1764	18.5133
1764.5	18.9365
1765	19.6131
1765.5	20.1742
1766	20.4204
1766.5	20.467
1767	20.4881
1767.5	20.5209
1768	20.3993
1768.5	19.7942
1769	18.6645
1769.5	17.2172
1770	16.0396
1770.5	15.5297
1771	15.8653
1771.5	16.7173
1772	17.6126
1772.5	18.0822
1773	18.0698
1773.5	17.8219
1774	17.8603
1774.5	18.4376
1775	19.5284
1775.5	20.7281
1776	21.6106
1776.5	21.8654
1777	21.6208
1777.5	21.1933
1778	20.9575
1778.5	20.9775
1779	21.1576
1779.5	21.3523
1780	21.5262
1780.5	21.7182
1781	21.9121
1781.5	21.9675
1782	21.6184
1782.5	20.9018
1783	20.0775
1783.5	19.5809
1784	19.56
1784.5	19.8581
1785	19.9586
1785.5	19.4987
1786	18.434
1786.5	17.3853
1787	16.941
1787.5	17.488
1788	18.5845
1788.5	19.6241
1789	19.9139
1789.5	19.3704
1790	18.2736
1790.5	17.3253
1791	16.9459
1791.5	17.2475
1792	17.8825
1792.5	18.5284
1793	18.9283
1793.5	19.0779
1794	19.0409
1794.5	18.9286
1795	18.8475
1795.5	18.9173
1796	19.2317
1796.5	19.7882
1797	20.4994
1797.5	21.1766
1798	21.7164
1798.5	22.1234
1799	22.5032
1799.5	22.8855
1800	23.1521
1800.5	23.1769
1801	22.8817
1801.5	22.3763
1802	21.7722
1802.5	21.1047
1803	20.3539
1803.5	19.5532
1804	18.9505
1804.5	18.7762
1805	19.1332
1805.5	19.7623
1806	20.3191
1806.5	20.5181
1807	20.3754
1807.5	19.9575
1808	19.1775
1808.5	17.9394
1809	16.3536
1809.5	15.0876
1810	14.8812
1810.5	16.2944
1811	18.7499
1811.5	21.1485
1812	22.0871
1812.5	21.3292
1813	19.4421
1813.5	17.6421
1814	16.5996
1814.5	16.4606
1815	16.9136
1815.5	17.7063
1816	18.795
1816.5	20.0141
1817	20.9837
1817.5	20.9719
1818	19.9205
1818.5	18.2309
1819	16.905
1819.5	16.6503
1820	17.7356
1820.5	19.4867
1821	21.0332
1821.5	21.486
1822	20.7719
1822.5	19.3392
1823	17.9891
1823.5	17.3038
1824	17.5285
1824.5	18.3564
1825	19.224
1825.5	19.5835
1826	19.2975
1826.5	18.5625
1827	17.7377
1827.5	17.033
1828	16.4503
1828.5	15.9675
1829	15.667
1829.5	15.7448
1830	16.2642
1830.5	17.0593
1831	17.8277
1831.5	18.3519
1832	18.6897
1832.5	19.0587
1833	19.5736
1833.5	20.1956
1834	20.7749
1834.5	21.2169
1835	21.439
1835.5	21.3319
1836	20.7335
1836.5	19.4421
1837	17.8888
1837.5	16.6986
1838	16.647
1838.5	17.7855
1839	19.6809
1839.5	21.2561
1840	21.744
1840.5	20.7392
1841	18.9138
1841.5	17.1367
1842	16.2856
1842.5	16.4212
1843	17.2682
1843.5	18.2103
1844	18.8368
1844.5	19.0535
1845	19.1782
1845.5	19.503
1846	20.0785
1846.5	20.458
1847	20.2139
1847.5	19.2635
1848	18.1554
1848.5	17.5167
1849	17.6137
1849.5	18.0557
1850	18.1793
1850.5	17.7229
1851	17.0975
1851.5	17.3012
1852	18.5585
1852.5	20.326
1853	21.3501
1853.5	20.9729
1854	19.2668
1854.5	17.3437
1855	16.0946
1855.5	15.8693
1856	15.952
1856.5	15.6537
1857	14.8194
1857.5	14.1279
1858	14.2963
1858.5	15.554
1859	17.4061
1859.5	19.15
1860	20.2851
1860.5	20.8093
1861	20.9495
1861.5	20.9717
1862	20.8238
1862.5	20.2752
1863	19.2832
1863.5	17.9866
1864	16.8022
1864.5	16.065
1865	16.0161
1865.5	16.4569
1866	17.1065
1866.5	17.6669
1867	18.07
1867.5	18.4041
1868	18.7433
1868.5	18.977
1869	18.8669
1869.5	18.3605
1870	17.6922
1870.5	17.3636
1871	17.657
1871.5	18.4913
1872	19.326
1872.5	19.6175
1873	19.1683
1873.5	18.3466
1874	17.5827
1874.5	17.1445
1875	16.9786
1875.5	16.9979
1876	17.239
1876.5	17.7395
1877	18.4271
1877.5	18.9369
1878	18.9297
1878.5	18.3376
1879	17.6942
1879.5	17.5292
1880	18.1923
1880.5	19.3033
1881	20.3584
1881.5	20.8815
1882	20.9006
1882.5	20.5975
1883	20.1305
1883.5	19.3977
1884	18.0844
1884.5	16.2258
1885	14.1601
1885.5	12.5446
1886	11.8505
1886.5	12.3315
1887	13.8856
1887.5	15.9768
1888	17.981
1888.5	19.1611
1889	19.1504
1889.5	17.8556
1890	16.1821
1890.5	15.044
1891	15.1707
1891.5	16.1705
1892	17.193
1892.5	17.2375
1893	16.2639
1893.5	15.0526
1894	14.922
1894.5	16.419
1895	19.1849
1895.5	21.5776
1896	22.4271
1896.5	21.4819
1897	19.7401
1897.5	18.1957
1898	17.3753
1898.5	17.0365
1899	16.7352
1899.5	16.3037
1900	15.9704
1900.5	16.1082
1901	16.6447
1901.5	17.2423
1902	17.5073
1902.5	17.4721
1903	17.3713
1903.5	17.4
1904	17.4819
1904.5	17.3829
1905	17.0603
1905.5	16.702
1906	16.6768
1906.5	17.1103
1907	17.9069
1907.5	18.7061
1908	19.2242
1908.5	19.2805
1909	18.9116
1909.5	18.2163
1910	17.3873
1910.5	16.713
1911	16.3996
1911.5	16.4549
1912	16.6165
1912.5	16.6062
1913	16.3738
1913.5	16.1569
1914	16.3628
1914.5	17.0646
1915	18.0863
1915.5	19.1233
1916	20.0131
1916.5	20.721
1917	21.1697
1917.5	21.1622
1918	20.3631
1918.5	18.8197
1919	16.9242
1919.5	15.3682
1920	14.5501
1920.5	14.4583
1921	14.6622
1921.5	14.8472
1922	15.0774
1922.5	15.656
1923	16.6654
1923.5	17.8271
1924	18.51
1924.5	18.276
1925	16.9854
1925.5	15.1952
1926	13.4803
1926.5	12.3712
1927	11.9824
1927.5	12.281
1928	13.0034
1928.5	13.9259
1929	14.798
1929.5	15.3932
1930	15.5666
1930.5	15.2873
1931	14.7578
1931.5	14.2237
1932	14.0003
1932.5	14.2869
1933	15.2851
1933.5	16.8781
1934	18.7896
1934.5	20.4703
1935	21.4637
1935.5	21.5303
1936	20.8606
1936.5	20.0169
1937	19.5384
1937.5	19.639
1938	20.0919
1938.5	20.4149
1939	20.2402
1939.5	19.5321
1940	18.5648
1940.5	17.6935
1941	17.0516
1941.5	16.5007
1942	15.9031
1942.5	15.3264
1943	15.0591
1943.5	15.3181
1944	16.1605
1944.5	17.1968
1945	18.059
1945.5	18.4759
1946	18.5162
1946.5	18.3048
1947	17.9459
1947.5	17.4216
1948	16.6776
1948.5	15.8526
1949	15.1445
1949.5	14.716
1950	14.4764
1950.5	14.2836
1951	14.0735
1951.5	13.9756
1952	14.2239
1952.5	14.8542
1953	15.6607
1953.5	16.2584
1954	16.4414
1954.5	16.2565
1955	16.0149
1955.5	16.0211
1956	16.4278
1956.5	17.1119
1957	17.8482
1957.5	18.3465
1958	18.3459
1958.5	17.6777
1959	16.2938
1959.5	14.6463
1960	13.3401
1960.5	13.0989
1961	14.0569
1961.5	15.9311
1962	17.7243
1962.5	18.6057
1963	17.9895
1963.5	16.4982
1964	15.0998
1964.5	14.8844
1965	15.8924
1965.5	17.4935
1966	18.4426
1966.5	18.1366
1967	16.7591
1967.5	15.626
1968	15.7939
1968.5	17.7234
1969	20.2134
1969.5	21.853
1970	21.5
1970.5	19.5607
1971	17.0875
1971.5	15.3744
1972	14.7495
1972.5	14.8482
1973	14.9391
1973.5	14.7332
1974	14.2398
1974.5	13.6212
1975	12.9691
1975.5	12.5358
1976	12.7535
1976.5	14.2117
1977	16.7745
1977.5	19.6158
1978	21.2355
1978.5	20.945
1979	18.9891
1979.5	16.7876
1980	15.7062
1980.5	16.2863
1981	17.6537
1981.5	18.737
1982	18.8374
1982.5	18.2746
1983	17.6092
1983.5	17.2765
1984	17.1327
1984.5	16.8527
1985	16.2621
1985.5	15.6381
1986	15.5175
1986.5	16.2549
1987	17.6925
1987.5	19.1957
1988	19.9396
1988.5	19.492
1989	18.02
1989.5	16.3948
1990	15.3426
1990.5	15.0057
1991	14.8949
1991.5	14.4056
1992	13.4679
1992.5	12.5332
1993	12.3153
1993.5	12.8684
1994	13.7872
1994.5	14.3918
1995	14.5557
1995.5	14.6888
1996	15.3955
1996.5	16.6692
1997	17.8025
1997.5	17.8994
1998	16.6984
1998.5	14.8712
1999	13.6642
1999.5	13.8403
2000	15.1559
2000.5	16.6813
2001	17.5606
2001.5	17.6876
2002	17.5069
2002.5	17.5687
2003	17.8433
2003.5	17.8458
2004	16.921
2004.5	15.122
2005	13.0312
2005.5	11.6894
2006	11.6298
2006.5	12.9396
2007	14.7907
2007.5	16.4557
2008	17.3304
2008.5	17.4108
2009	16.8279
2009.5	15.882
2010	14.8909
2010.5	14.1899
2011	14.0238
2011.5	14.3991
2012	15.1238
2012.5	15.7669
2013	16.0571
2013.5	15.9461
2014	15.7298
2014.5	15.7858
2015	16.4148
2015.5	17.5662
2016	18.9092
2016.5	19.8213
2017	19.8664
2017.5	18.8579
2018	17.3736
2018.5	16.0453
2019	15.3575
2019.5	15.1041
2020	14.7427
2020.5	13.8567
2021	12.5961
2021.5	11.5092
2022	11.006
2022.5	11.0561
2023	11.2868
2023.5	11.4556
2024	11.7464
2024.5	12.6018
2025	14.0801
2025.5	15.7506
2026	16.786
2026.5	16.7742
2027	15.7952
2027.5	14.641
2028	13.8393
2028.5	13.5079
2029	13.3349
2029.5	13.1121
2030	12.9642
2030.5	13.1448
2031	13.7942
2031.5	14.5875
2032	15.2071
2032.5	15.5121
2033	15.6962
2033.5	15.9082
2034	16.0889
2034.5	16.0907
2035	15.9375
2035.5	16.0232
2036	16.6868
2036.5	17.9559
2037	19.0893
2037.5	19.2876
2038	18.0071
2038.5	15.73
2039	13.2723
2039.5	11.5881
2040	11.0087
2040.5	11.5434
2041	12.5991
2041.5	13.6154
2042	13.9063
2042.5	13.2127
2043	11.621
2043.5	9.92718
2044	9.10245
2044.5	9.87422
2045	11.8915
2045.5	14.2123
2046	15.6574
2046.5	15.8331
2047	14.9715
2047.5	13.8345
2048	13.1427
2048.5	13.2812
2049	14.1751
2049.5	15.4318
2050	16.5648
2050.5	17.1592
2051	17.1069
2051.5	16.5815
2052	16.0991
2052.5	16.0222
2053	16.3988
2053.5	16.845
2054	16.881
2054.5	16.2942
2055	15.3323
2055.5	14.5498
2056	14.3843
2056.5	14.834
2057	15.3813
2057.5	15.3831
2058	14.5523
2058.5	13.3623
2059	12.6258
2059.5	12.9906
2060	14.1665
2060.5	15.4111
2061	15.9157
2061.5	15.7575
2062	15.4442
2062.5	15.5472
2063	15.9352
2063.5	16.0374
2064	15.3928
2064.5	14.2727
2065	13.4901
2065.5	13.7063
2066	14.9159
2066.5	16.497
2067	17.636
2067.5	17.8578
2068	17.0731
2068.5	15.5693
2069	13.7055
2069.5	12.1572
2070	11.5127
2070.5	12.2768
2071	13.8745
2071.5	15.4261
2072	15.897
2072.5	15.2381
2073	14.0007
2073.5	13.132
2074	12.9619
2074.5	13.2704
2075	13.4615
2075.5	13.3238
2076	13.039
2076.5	12.9039
2077	12.9466
2077.5	12.9319
2078	12.7311
2078.5	12.5063
2079	12.6828
2079.5	13.4816
2080	14.8305
2080.5	16.1373
2081	16.8737
2081.5	16.664
2082	15.7861
2082.5	14.7207
2083	14.1392
2083.5	14.3479
2084	15.37
2084.5	16.657
2085	17.649
2085.5	17.7891
2086	17.1293
2086.5	15.9218
2087	14.6709
2087.5	13.7814
2088	13.5236
2088.5	13.8959
2089	14.6878
2089.5	15.5473
2090	15.998
2090.5	15.7191
2091	14.615
2091.5	13.2091
2092	12.1775
2092.5	12.1862
2093	13.2179
2093.5	14.8063
2094	16.0147
2094.5	16.2997
2095	15.5133
2095.5	14.369
2096	13.505
2096.5	13.3501
2097	13.6952
2097.5	14.1929
2098	14.5943
2098.5	14.9656
2099	15.4437
2099.5	15.8641
2100	15.805
2100.5	14.7297
2101	12.8885
2101.5	10.9785
2102	10.0576
2102.5	10.4329
2103	11.7621
2103.5	12.9687
2104	13.4271
2104.5	13.1336
2105	12.8883
2105.5	13.2231
2106	14.0761
2106.5	14.7426
2107	14.6417
2107.5	13.8701
2108	13.1148
2108.5	13.1067
2109	13.8411
2109.5	14.749
2110	14.98
2110.5	14.3488
2111	13.1885
2111.5	12.2623
2112	11.9671
2112.5	12.2318
2113	12.4818
2113.5	12.3436
2114	11.8429
2114.5	11.5291
2115	11.8227
2115.5	12.7581
2116	13.7415
2116.5	14.2039
2117	14.0058
2117.5	13.6243
2118	13.6781
2118.5	14.3152
2119	15.1275
2119.5	15.406
2120	14.9984
2120.5	14.2655
2121	13.972
2121.5	14.4342
2122	15.4639
2122.5	16.3442
2123	16.5994
2123.5	16.0853
2124	15.2371
2124.5	14.4204
2125	13.8059
2125.5	13.2212
2126	12.4461
2126.5	11.4083
2127	10.3412
2127.5	9.67628
2128	9.79314
2128.5	10.7344
2129	12.2639
2129.5	13.7132
2130	14.5712
2130.5	14.546
2131	13.9543
2131.5	13.2577
2132	12.9656
2132.5	13.2032
2133	13.8455
2133.5	14.4951
2134	14.898
2134.5	14.9381
2135	14.7659
2135.5	14.4924
2136	14.1551
2136.5	13.7328
2137	13.2527
2137.5	12.919
2138	12.9719
2138.5	13.6611
2139	14.831
2139.5	16.1697
2140	17.1513
2140.5	17.4097
2141	16.7045
2141.5	15.1675
2142	13.2866
2142.5	11.7097
2143	10.9796
2143.5	11.1978
2144	12.145
2144.5	13.2072
2145	14.0423
2145.5	14.5563
2146	14.8673
2146.5	14.9646
2147	14.7095
2147.5	14.0554
2148	13.1697
2148.5	12.5214
2149	12.4487
2149.5	13.0625
2150	13.9677
2150.5	14.7251
2151	14.9101
2151.5	14.46
2152	13.5356
2152.5	12.7132
2153	12.5127
2153.5	13.3061
2154	14.5385
2154.5	15.37
2155	14.8901
2155.5	13.254
2156	11.2178
2156.5	9.8814
2157	9.54222
2157.5	9.86116
2158	10.1257
2158.5	10.231
2159	10.7335
2159.5	12.0763
2160	14.1098
2160.5	15.8273
2161	16.3597
2161.5	15.392
2162	13.7755
2162.5	12.5372
2163	12.548
2163.5	13.6487
2164	15.3546
2164.5	16.9536
2165	17.9479
2165.5	17.9933
2166	17.0283
2166.5	15.3822
2167	13.6064
2167.5	12.3713
2168	11.901
2168.5	11.9444
2169	11.8086
2169.5	11.1482
2170	10.2549
2170.5	9.82213
2171	10.3301
2171.5	11.3647
2172	12.0587
2172.5	11.6224
2173	10.4506
2173.5	9.50354
2174	9.9475
2174.5	11.7544
2175	14.2383
2175.5	16.1817
2176	16.9446
2176.5	16.2995
2177	14.6959
2177.5	12.6265
2178	10.6647
2178.5	9.31988
2179	8.8861
2179.5	9.30437
2180	10.0885
2180.5	10.9089
2181	11.7663
2181.5	12.8699
2182	14.2823
2182.5	15.5389
2183	16.0985
2183.5	15.5678
2184	14.3585
2184.5	12.9704
2185	11.8638
2185.5	11.1513
2186	10.9316
2186.5	11.2752
2187	12.107
2187.5	13.0303
2188	13.4408
2188.5	13.1323
2189	12.5968
2189.5	12.6415
2190	13.601
2190.5	14.7377
2191	14.9938
2191.5	13.6836
2192	11.595
2192.5	9.8913
2193	9.55061
2193.5	10.1149
2194	10.7849
2194.5	10.9815
2195	11.0451
2195.5	11.6448
2196	12.9787
2196.5	14.5252
2197	15.4448
2197.5	15.4411
2198	14.6932
2198.5	13.5435
2199	12.2008
2199.5	10.7311
2200	9.48456
2200.5	8.95893
2201	9.58039
2201.5	10.9169
2202	12.1817
2202.5	12.5336
2203	12.0471
2203.5	11.16
2204	10.4143
2204.5	9.91432
2205	9.5615
2205.5	9.35988
2206	9.51196
2206.5	10.2593
2207	11.3541
2207.5	12.3405
2208	12.6786
2208.5	12.3562
2209	11.6312
2209.5	11.0487
2210	10.9945
2210.5	11.6452
2211	12.5986
2211.5	13.2061
2212	12.6761
2212.5	11.1619
2213	9.45018
2213.5	8.9275
2214	10.0537
2214.5	12.3891
2215	14.449
2215.5	15.2464
2216	14.5483
2216.5	13.3103
2217	12.292
2217.5	11.7751
2218	11.3954
2218.5	10.9388
2219	10.6165
2219.5	10.7802
2220	11.5519
2220.5	12.4601
2221	12.9976
2221.5	12.8998
2222	12.5483
2222.5	12.3307
2223	12.391
2223.5	12.4555
2224	12.2835
2224.5	11.9996
2225	11.9937
2225.5	12.5908
2226	13.5264
2226.5	14.2907
2227	14.3882
2227.5	14.0116
2228	13.5614
2228.5	13.3582
2229	13.2096
2229.5	12.7031
2230	11.7005
2230.5	10.5652
2231	9.89719
2231.5	9.84893
2232	10.0855
2232.5	9.98371
2233	9.38315
2233.5	8.61636
2234	8.40026
2234.5	9.07734
2235	10.6223
2235.5	12.4579
2236	14.0558
2236.5	14.8593
2237	14.7355
2237.5	13.7312
2238	12.3425
2238.5	11.3862
2239	11.5968
2239.5	13.0149
2240	14.8576
2240.5	15.9635
2241	15.7722
2241.5	14.6674
2242	13.7865
2242.5	13.8986
2243	14.8534
2243.5	15.4902
2244	14.9219
2244.5	13.048
2245	11.0245
2245.5	9.89741
2246	10.1789
2246.5	11.0672
2247	11.7801
2247.5	11.9522
2248	12.0025
2248.5	12.3683
2249	12.9645
2249.5	13.2195
2250	12.5202
2250.5	11.0432
2251	9.46528
2251.5	8.73444
2252	9.08444
2252.5	10.2905
2253	11.6485
2253.5	12.5431
2254	12.6341
2254.5	12.1031
2255	11.3916
2255.5	11.0011
2256	11.1048
2256.5	11.5503
2257	11.9307
2257.5	11.9648
2258	11.6377
2258.5	11.2327
2259	10.9968
2259.5	10.9713
2260	10.9015
2260.5	10.5599
2261	9.87972
2261.5	9.21556
2262	9.00235
2262.5	9.64565
2263	11.0173
2263.5	12.7296
2264	14.0944
2264.5	14.7095
2265	14.445
2265.5	13.8251
2266	13.3644
2266.5	13.4372
2267	13.8595
2267.5	14.304
2268	14.5216
2268.5	14.6551
2269	15.0237
2269.5	15.7027
2270	16.3372
2270.5	16.2273
2271	15.1711
2271.5	13.4944
2272	12.08
2272.5	11.5263
2273	11.9081
2273.5	12.6283
2274	13.123
2274.5	13.1477
2275	12.9482
2275.5	12.7979
2276	12.9026
2276.5	13.2796
2277	13.931
2277.5	14.698
2278	15.2013
2278.5	14.9671
2279	13.9276
2279.5	12.5408
2280	11.5522
2280.5	11.2857
2281	11.5107
2281.5	11.6609
2282	11.5266
2282.5	11.3631
2283	11.6137
2283.5	12.277
2284	13.0065
2284.5	13.4429
2285	13.6338
2285.5	13.8556
2286	14.1555
2286.5	14.2472
2287	13.7651
2287.5	12.8742
2288	12.0656
2288.5	11.8375
2289	12.1659
2289.5	12.7289
2290	13.1892
2290.5	13.4792
2291	13.5954
2291.5	13.5189
2292	13.2423
2292.5	12.9981
2293	13.0727
2293.5	13.5331
2294	13.8936
2294.5	13.6438
2295	12.5484
2295.5	11.2622
2296	10.4796
2296.5	10.5859
2297	11.1166
2297.5	11.4387
2298	11.1942
2298.5	10.6689
2299	10.5024
2299.5	11.1537
2300	12.5651
2300.5	14.1957
2301	15.2634
2301.5	15.2697
2302	14.3216
2302.5	13.1801
2303	12.6392
2303.5	12.957
2304	13.7347
2304.5	14.3193
2305	14.3861
2305.5	13.9947
2306	13.3082
2306.5	12.3864
2307	11.2071
2307.5	10.0094
2308	9.16872
2308.5	8.96997
2309	9.17725
2309.5	9.48634
2310	9.88977
2310.5	10.6546
2311	11.9003
2311.5	13.2381
2312	14.1098
2312.5	14.2475
2313	13.9853
2313.5	13.6714
2314	13.2292
2314.5	12.2829
2315	10.7574
2315.5	9.25074
2316	8.61201
2316.5	9.29234
2317	10.8637
2317.5	12.4173
2318	13.1675
2318.5	13.0341
2319	12.3892
2319.5	11.7739
2320	11.4947
2320.5	11.4223
2321	11.0033
2321.5	9.95221
2322	8.60953
2322.5	8.12992
2323	9.20559
2323.5	11.571
2324	13.441
2324.5	13.5387
2325	11.9588
2325.5	10.9515
2326	12.7248
2326.5	18.1773
2327	25.5525
2327.5	32.5013
2328	36.8204
2328.5	37.6127
2329	34.1504
2329.5	27.7141
2330	19.8861
2330.5	13.2321
2331	9.34608
2331.5	8.61821
2332	9.6031
2332.5	10.6584
2333	10.9565
2333.5	10.8988
2334	11.0843
2334.5	11.7804
2335	12.5482
2335.5	12.9385
2336	12.659
2336.5	11.8253
2337	10.7357
2337.5	10.0342
2338	10.2121
2338.5	11.4367
2339	12.8303
2339.5	13.4157
2340	12.5463
2340.5	10.9539
2341	9.71181
2341.5	9.59016
2342	10.2349
2342.5	10.8933
2343	11.2196
2343.5	11.5991
2344	12.6699
2344.5	14.2394
2345	15.5594
2345.5	15.6005
2346	14.2811
2346.5	12.1661
2347	10.496
2347.5	10.0373
2348	11.0458
2348.5	12.6201
2349	13.7715
2349.5	13.6206
2350	12.5118
2350.5	11.3294
2351	11.0642
2351.5	11.6884
2352	12.4204
2352.5	12.2224
2353	10.9576
2353.5	9.39554
2354	8.73447
2354.5	9.47923
2355	11.2282
2355.5	12.9425
2356	13.9122
2356.5	14.0377
2357	13.6456
2357.5	12.9843
2358	12.2149
2358.5	11.4683
2359	11.0133
2359.5	10.9751
2360	11.3017
2360.5	11.7075
2361	11.9487
2361.5	11.9079
2362	11.5911
2362.5	11.0094
2363	10.1712
2363.5	9.29364
2364	8.61389
2364.5	8.21737
2365	7.85759
2365.5	7.36371
2366	7.04935
2366.5	7.54277
2367	9.38395
2367.5	11.8927
2368	13.7907
2368.5	13.581
2369	11.6369
2369.5	9.25049
2370	8.28718
2370.5	9.13272
2371	10.9143
2371.5	11.9891
2372	11.7757
2372.5	10.629
2373	9.62774
2373.5	9.2468
2374	9.36582
2374.5	9.54404
2375	9.70346
2375.5	10.0779
2376	10.7271
2376.5	11.3728
2377	11.6087
2377.5	11.5026
2378	11.6285
2378.5	12.4062
2379	13.6483
2379.5	14.4393
2380	14.0932
2380.5	12.5445
2381	10.7437
2381.5	9.64618
2382	9.78418
2382.5	10.6032
2383	11.3751
2383.5	11.4794
2384	11.0422
2384.5	10.3387
2385	9.67125
2385.5	9.1804
2386	8.98357
2386.5	9.10528
2387	9.40486
2387.5	9.53833
2388	9.25549
2388.5	8.6522
2389	8.27641
2389.5	8.59743
2390	9.62871
2390.5	10.7518
2391	11.4245
2391.5	11.5074
2392	11.5068
2392.5	11.8472
2393	12.5954
2393.5	13.2669
2394	13.4675
2394.5	13.1554
2395	12.6807
2395.5	12.2849
2396	11.8928
2396.5	11.357
2397	10.7656
2397.5	10.5094
2398	10.8383
2398.5	11.5935
2399	12.1557
2399.5	12.0405
2400	11.2771
2400.5	10.4022
2401	9.99872
2401.5	10.2073
2402	10.7314
2402.5	11.0889
2403	10.9569
2403.5	10.2362
2404	9.12087
2404.5	8.09604
2405	7.68531
2405.5	8.11066
2406	9.03556
2406.5	9.79767
2407	9.87908
2407.5	9.33325
2408	8.53791
2408.5	7.80982
2409	7.192
2409.5	6.77129
2410	6.86596
2410.5	7.92371
2411	9.7086
2411.5	11.3907
2412	11.8848
2412.5	11.3026
2413	10.6162
2413.5	11.0539
2414	12.5508
2414.5	14.2055
2415	14.8502
2415.5	14.366
2416	13.3084
2416.5	12.4318
2417	11.829
2417.5	11.2381
2418	10.6678
2418.5	10.5086
2419	11.0294
2419.5	11.7718
2420	11.9992
2420.5	11.4579
2421	10.7185
2421.5	10.7206
2422	11.5922
2422.5	12.6904
2423	12.9819
2423.5	12.4266
2424	11.6882
2424.5	11.5298
2425	11.8258
2425.5	11.8534
2426	11.0616
2426.5	9.70079
2427	8.65892
2427.5	8.61208
2428	9.70134
2428.5	11.5004
2429	13.2707
2429.5	14.29
2430	13.95
2430.5	12.2705
2431	9.89911
2431.5	8.19001
2432	7.88451
2432.5	8.78852
2433	9.6963
2433.5	9.95824
2434	10.1093
2434.5	10.9774
2435	12.6403
2435.5	13.8381
2436	13.5047
2436.5	11.3857
2437	8.92915
2437.5	7.30108
2438	6.94954
2438.5	7.28742
2439	7.95779
2439.5	8.99729
2440	10.3505
2440.5	11.5131
2441	11.9023
2441.5	11.5633
2442	11.1784
2442.5	11.2752
2443	11.6377
2443.5	11.5022
2444	10.778
2444.5	10.0475
2445	9.9823
2445.5	10.422
2446	10.5599
2446.5	9.89144
2447	8.68964
2447.5	7.82573
2448	7.78189
2448.5	8.47816
2449	9.49147
2449.5	10.6122
2450	11.7556
2450.5	12.6463
2451	12.9357
2451.5	12.3616
2452	11.3747
2452.5	10.4878
2453	10.0337
2453.5	9.80492
2454	9.58337
2454.5	9.42685
2455	9.56228
2455.5	10.1058
2456	10.7004
2456.5	10.957
2457	10.6776
2457.5	10.1696
2458	9.7178
2458.5	9.31415
2459	8.74741
2459.5	7.98855
2460	7.55177
2460.5	8.03387
2461	9.83391
2461.5	12.0727
2462	13.4796
2462.5	12.8229
2463	10.5132
2463.5	7.7404
2464	6.16943
2464.5	6.3224
2465	7.76669
2465.5	9.08818
2466	9.49845
2466.5	8.97403
2467	8.3779
2467.5	8.21302
2468	8.45385
2468.5	8.81036
2469	9.26997
2469.5	10.0781
2470	11.2399
2470.5	12.2225
2471	12.2936
2471.5	11.3618
2472	10.2364
2472.5	9.94547
2473	10.95
2473.5	12.6297
2474	13.9635
2474.5	14.1158
2475	13.1681
2475.5	11.6251
2476	10.1087
2476.5	8.93439
2477	8.17342
2477.5	7.75068
2478	7.5293
2478.5	7.47731
2479	7.62567
2479.5	7.99361
2480	8.49772
2480.5	8.88709
2481	8.97468
2481.5	8.68896
2482	8.24137
2482.5	7.92152
2483	8.09325
2483.5	8.90285
2484	10.3361
2484.5	11.8962
2485	13.1416
2485.5	13.7098
2486	13.7085
2486.5	13.2131
2487	12.2233
2487.5	10.8735
2488	9.56674
2488.5	9.02705
2489	9.46429
2489.5	10.4884
2490	11.1066
2490.5	10.7998
2491	9.66615
2491.5	8.4257
2492	7.51927
2492.5	7.04252
2493	6.92849
2493.5	7.32144
2494	8.23848
2494.5	9.42072
2495	10.4069
2495.5	10.9886
2496	11.2655
2496.5	11.4345
2497	11.4742
2497.5	11.1966
2498	10.5399
2498.5	9.65572
2499	8.72922
2499.5	7.94486
2500	7.47094
2500.5	7.52331
2501	7.85286
2501.5	8.03234
2502	7.73667
2502.5	7.36707
2503	7.76958
2503.5	9.33796
2504	11.3784
2504.5	12.3408
2505	11.6074
2505.5	9.73358
2506	8.15231
2506.5	7.69212
2507	8.26176
2507.5	9.02022
2508	9.4859
2508.5	9.79161
2509	10.3363
2509.5	11.0685
2510	11.4533
2510.5	11.1576
2511	10.3878
2511.5	10.0006
2512	10.5733
2512.5	11.9358
2513	13.0112
2513.5	13.11
2514	12.174
2514.5	11.0201
2515	10.1304
2515.5	9.48423
2516	8.87856
2516.5	8.64114
2517	9.43391
2517.5	11.1057
2518	12.6129
2518.5	12.6499
2519	11.1699
2519.5	9.46756
2520	9.22626
2520.5	10.7482
2521	12.9176
2521.5	14.2803
2522	14.0347
2522.5	12.3801
2523	10.0121
2523.5	7.69206
2524	6.20177
2524.5	5.97321
2525	7.10805
2525.5	8.78204
2526	10.2178
2526.5	10.9004
2527	11.0153
2527.5	10.8872
2528	10.6896
2528.5	10.3307
2529	9.70306
2529.5	8.97311
2530	8.36164
2530.5	8.02606
2531	7.84358
2531.5	7.62358
2532	7.29426
2532.5	7.01012
2533	7.03516
2533.5	7.41574
2534	7.94666
2534.5	8.29318
2535	8.44037
2535.5	8.59382
2536	8.84802
2536.5	8.89361
2537	8.30641
2537.5	7.293
2538	6.76402
2538.5	7.93642
2539	10.5699
2539.5	13.593
2540	15.4218
2540.5	15.5614
2541	14.2264
2541.5	12.2133
2542	10.1676
2542.5	8.61226
2543	8.06938
2543.5	8.7635
2544	10.3804
2544.5	11.6488
2545	11.6247
2545.5	10.4049
2546	9.38865
2546.5	9.70797
2547	11.1349
2547.5	12.3458
2548	11.938
2548.5	10.2036
2549	8.56814
2549.5	8.68674
2550	10.2503
2550.5	11.9672
2551	12.2818
2551.5	11.2562
2552	10.0936
2552.5	10.196
2553	11.4204
2553.5	12.5923
2554	12.7768
2554.5	12.198
2555	11.974
2555.5	12.611
2556	13.4969
2556.5	13.4407
2557	12.3089
2557.5	10.8897
2558	10.2105
2558.5	10.3177
2559	10.4262
2559.5	10.0094
2560	9.43982
2560.5	9.54448
2561	10.3646
2561.5	11.2083
2562	11.1717
2562.5	10.2193
2563	9.0284
2563.5	8.25722
2564	7.97467
2564.5	8.00073
2565	8.27099
2565.5	8.91473
2566	9.70712
2566.5	10.0183
2567	9.21054
2567.5	7.5274
2568	5.77712
2568.5	5.08172
2569	5.7758
2569.5	7.61094
2570	9.841
2570.5	11.6812
2571	12.4216
2571.5	11.6962
2572	9.76218
2572.5	7.34296
2573	5.57645
2573.5	5.05037
2574	5.9135
2574.5	7.46112
2575	9.00785
2575.5	9.84073
2576	9.78829
2576.5	8.9719
2577	7.89736
2577.5	6.94723
2578	6.34377
2578.5	6.02004
2579	5.98828
2579.5	6.40006
2580	7.27181
2580.5	8.45114
2581	9.55579
2581.5	10.4074
2582	11.0625
2582.5	11.6252
2583	11.8729
2583.5	11.2818
2584	9.8901
2584.5	8.18032
2585	7.05776
2585.5	6.85775
2586	7.36711
2586.5	8.06256
2587	8.71052
2587.5	9.22003
2588	9.45793
2588.5	9.29031
2589	9.02345
2589.5	9.30413
2590	10.5111
2590.5	12.0809
2591	13.0052
2591.5	12.5753
2592	11.5627
2592.5	10.9448
2593	11.2708
2593.5	11.958
2594	12.4261
2594.5	12.4759
2595	12.313
2595.5	11.8217
2596	10.6745
2596.5	9.01406
2597	7.67999
2597.5	7.56823
2598	8.60872
2598.5	9.69689
2599	9.95256
2599.5	9.46447
2600	9.33344
2600.5	10.3379
2601	12.3287
2601.5	13.9195
2602	14.1065
2602.5	12.4615
2603	10.1679
2603.5	8.52782
2604	8.5588
2604.5	9.62404
2605	10.5801
2605.5	10.3931
2606	9.20693
2606.5	7.92813
2607	7.52325
2607.5	8.04832
2608	9.04561
2608.5	10.0106
2609	10.8519
2609.5	11.6386
2610	12.2883
2610.5	12.5446
2611	12.2889
2611.5	11.6521
2612	10.9131
2612.5	10.4279
2613	10.4337
2613.5	10.9672
2614	11.6578
2614.5	11.9627
2615	11.352
2615.5	9.84854
2616	7.98927
2616.5	6.74056
2617	6.69196
2617.5	8.10624
2618	10.1718
2618.5	11.9146
2619	12.3922
2619.5	11.7105
2620	10.4074
2620.5	9.28055
2621	8.61952
2621.5	8.44478
2622	8.61588
2622.5	9.13245
2623	9.75808
2623.5	9.90396
2624	9.09572
2624.5	7.7547
2625	7.02787
2625.5	7.838
2626	9.70501
2626.5	11.4754
2627	11.895
2627.5	11.0967
2628	9.7253
2628.5	8.43948
2629	7.52514
2629.5	7.23218
2630	7.75411
2630.5	8.80853
2631	9.706
2631.5	9.96557
2632	9.85
2632.5	10.2211
2633	11.3336
2633.5	12.5164
2634	12.7554
2634.5	12.0577
2635	11.1717
2635.5	10.9272
2636	11.1764
2636.5	11.1561
2637	10.5859
2637.5	9.8093
2638	9.46887
2638.5	9.75486
2639	10.5592
2639.5	11.6711
2640	12.8106
2640.5	13.3291
2641	12.5248
2641.5	10.3653
2642	7.97929
2642.5	6.73606
2643	7.10696
2643.5	8.20646
2644	8.65048
2644.5	7.87375
2645	6.68582
2645.5	6.01575
2646	6.35232
2646.5	7.15922
2647	7.87954
2647.5	8.29351
2648	8.58808
2648.5	8.84806
2649	8.9531
2649.5	8.79809
2650	8.45621
2650.5	8.15015
2651	7.98164
2651.5	8.01052
2652	8.29226
2652.5	8.90332
2653	9.62925
2653.5	10.0034
2654	9.63175
2654.5	8.75144
2655	8.03771
2655.5	8.00248
2656	8.22797
2656.5	8.04723
2657	7.04843
2657.5	5.8396
2658	5.2373
2658.5	5.56133
2659	6.31239
2659.5	6.85549
2660	6.93975
2660.5	6.84261
2661	7.01845
2661.5	7.57291
2662	8.34832
2662.5	8.94723
2663	9.0467
2663.5	8.55815
2664	7.82459
2664.5	7.3349
2665	7.50725
2665.5	8.16768
2666	8.80542
2666.5	8.90726
2667	8.53959
2667.5	8.02352
2668	7.78262
2668.5	7.88574
2669	8.23422
2669.5	8.70293
2670	9.24586
2670.5	9.74548
2671	9.96233
2671.5	9.79063
2672	9.45523
2672.5	9.41285
2673	9.92023
2673.5	10.6259
2674	10.9586
2674.5	10.6471
2675	10.1397
2675.5	9.94802
2676	10.2507
2676.5	10.457
2677	10.1213
2677.5	9.3298
2678	8.73853
2678.5	8.99624
2679	9.93031
2679.5	10.8247
2680	10.8409
2680.5	9.95145
2681	8.82
2681.5	8.61528
2682	9.61566
2682.5	11.3457
2683	12.6069
2683.5	12.7268
2684	11.9145
2684.5	11.1489
2685	10.9537
2685.5	11.2887
2686	11.4759
2686.5	11.0803
2687	10.0691
2687.5	8.88357
2688	8.07008
2688.5	8.14266
2689	8.98804
2689.5	10.0618
2690	10.626
2690.5	10.4806
2691	10.048
2691.5	9.94612
2692	10.1713
2692.5	10.1194
2693	9.43716
2693.5	8.41005
2694	7.97466
2694.5	8.51553
2695	9.77671
2695.5	10.7976
2696	10.9046
2696.5	9.99259
2697	8.64956
2697.5	7.4728
2698	6.99341
2698.5	7.28355
2699	8.06564
2699.5	8.81263
2700	9.2889
2700.5	9.54814
2701	9.79887
2701.5	9.94727
2702	9.65928
2702.5	8.97638
2703	8.45676
2703.5	8.851
2704	9.97437
2704.5	10.8243
2705	10.5521
2705.5	9.44039
2706	9.03345
2706.5	10.0915
2707	11.9955
2707.5	12.8468
2708	11.6543
2708.5	9.07762
2709	7.18195
2709.5	7.02107
2710	8.56011
2710.5	10.2378
2711	10.9738
2711.5	10.4322
2712	9.2101
2712.5	8.00699
2713	7.45942
2713.5	7.58362
2714	8.09093
2714.5	8.45966
2715	8.42589
2715.5	7.99528
2716	7.49643
2716.5	7.31038
2717	7.43466
2717.5	7.64806
2718	7.73112
2718.5	7.57977
2719	7.33428
2719.5	7.30702
2720	7.67258
2720.5	8.38509
2721	9.21324
2721.5	9.8502
2722	9.99935
2722.5	9.4833
2723	8.37338
2723.5	7.06274
2724	6.15835
2724.5	5.92495
2725	6.18347
2725.5	6.38363
2726	6.30586
2726.5	6.41392
2727	7.26816
2727.5	8.81937
2728	10.1113
2728.5	10.0553
2729	8.6965
2729.5	7.08584
2730	6.41317
2730.5	6.94371
2731	7.75131
2731.5	8.08928
2732	7.95595
2732.5	7.91131
2733	8.18668
2733.5	8.36697
2734	8.04254
2734.5	7.36294
2735	7.01458
2735.5	7.27441
2736	7.66501
2736.5	7.39912
2737	6.08686
2737.5	4.37544
2738	3.27649
2738.5	3.4466
2739	4.84176
2739.5	6.68971
2740	8.09002
2740.5	8.65536
2741	8.55124
2741.5	8.2649
2742	8.07599
2742.5	7.79218
2743	7.17755
2743.5	6.43919
2744	6.36824
2744.5	7.37255
2745	8.83966
2745.5	9.4238
2746	8.04165
2746.5	5.36638
2747	3.37683
2747.5	3.68798
2748	6.42605
2748.5	9.98012
2749	12.349
2749.5	12.8031
2750	11.8247
2750.5	10.3998
2751	9.19926
2751.5	8.35222
2752	7.95798
2752.5	8.26956
2753	9.42182
2753.5	10.845
2754	11.6307
2754.5	11.2305
2755	9.92057
2755.5	8.72673
2756	8.47114
2756.5	9.15146
2757	10.1749
2757.5	10.8672
2758	10.9675
2758.5	10.6662
2759	10.2128
2759.5	9.75885
2760	9.32946
2760.5	8.8589
2761	8.26916
2761.5	7.55392
2762	6.84814
2762.5	6.4371
2763	6.57364
2763.5	7.38765
2764	8.8601
2764.5	10.7353
2765	12.3351
2765.5	12.8192
2766	11.7795
2766.5	9.6895
2767	7.85913
2767.5	7.46568
2768	8.39351
2768.5	9.6333
2769	10.1964
2769.5	9.86341
2770	9.18164
2770.5	8.52993
2771	7.93693
2771.5	7.46692
2772	7.51713
2772.5	8.22922
2773	8.99153
2773.5	8.82901
2774	7.35273
2774.5	5.52063
2775	4.86019
2775.5	5.85761
2776	7.65996
2776.5	8.76821
2777	8.33715
2777.5	6.96623
2778	5.72655
2778.5	5.41802
2779	6.20056
2779.5	7.569
2780	8.79628
2780.5	9.36415
2781	9.16843
2781.5	8.6184
2782	8.42876
2782.5	8.94482
2783	9.92538
2783.5	10.7584
2784	10.9109
2784.5	10.4182
2785	9.69185
2785.5	9.05997
2786	8.60824
2786.5	8.3109
2787	8.22992
2787.5	8.41284
2788	8.64103
2788.5	8.45204
2789	7.53673
2789.5	6.3236
2790	5.5743
2790.5	5.61182
2791	6.01131
2791.5	6.07536
2792	5.91076
2792.5	6.40934
2793	8.14784
2793.5	10.5643
2794	12.139
2794.5	11.9804
2795	10.7041
2795.5	9.54952
2796	9.22256
2796.5	9.40636
2797	9.36652
2797.5	8.9104
2798	8.26015
2798.5	7.58673
2799	6.90617
2799.5	6.44249
2800	6.62771
2800.5	7.53431
2801	8.53458
2801.5	8.69502
2802	7.88121
2802.5	7.05929
2803	7.22154
2803.5	8.51732
2804	10.1996
2804.5	11.4348
2805	12.1135
2805.5	12.4153
2806	12.2471
2806.5	11.2662
2807	9.56399
2807.5	8.1004
2808	7.81727
2808.5	8.81149
2809	10.1688
2809.5	10.6456
2810	10.0027
2810.5	8.94689
2811	8.39208
2811.5	8.76828
2812	9.79433
2812.5	10.7076
2813	10.9448
2813.5	10.4277
2814	9.63947
2814.5	9.40143
2815	10.0874
2815.5	11.0506
2816	11.166
2816.5	9.83428
2817	7.73237
2817.5	6.51019
2818	7.01155
2818.5	8.62827
2819	10.0087
2819.5	10.2601
2820	9.597
2820.5	8.83727
2821	8.36188
2821.5	8.17692
2822	8.34997
2822.5	9.14903
2823	10.4356
2823.5	11.4386
2824	11.382
2824.5	10.2507
2825	8.93147
2825.5	8.40086
2826	8.61892
2826.5	8.83472
2827	8.45117
2827.5	7.58602
2828	6.84883
2828.5	6.48775
2829	6.16152
2829.5	5.49085
2830	4.589
2830.5	4.09458
2831	4.54681
2831.5	5.7905
2832	7.22612
2832.5	8.28851
2833	8.80004
2833.5	8.98492
2834	9.20158
2834.5	9.61911
2835	10.129
2835.5	10.3494
2836	9.77715
2836.5	8.28803
2837	6.43716
2837.5	5.09058
2838	4.82023
2838.5	5.49422
2839	6.48209
2839.5	7.37005
2840	8.24495
2840.5	9.20248
2841	9.94322
2841.5	9.90189
2842	8.9034
2842.5	7.38399
2843	5.7754
2843.5	4.16476
2844	2.54242
2844.5	1.41642
2845	1.72224
2845.5	3.82629
2846	6.94825
2846.5	9.56539
2847	10.5191
2847.5	9.9586
2848	9.11055
2848.5	8.84376
2849	9.15596
2849.5	9.43372
2850	9.18568
2850.5	8.64102
2851	8.39749
2851.5	8.74341
2852	9.4241
2852.5	9.91519
2853	9.90468
2853.5	9.56017
2854	9.074
2854.5	8.3539
2855	7.18923
2855.5	5.69999
2856	4.59177
2856.5	4.5525
2857	5.56717
2857.5	6.89578
2858	7.64758
2858.5	7.46512
2859	6.80614
2859.5	6.41678
2860	6.61002
2860.5	7.12671
2861	7.43213
2861.5	7.22343
2862	6.83064
2862.5	6.94734
2863	7.95953
2863.5	9.53406
2864	10.731
2864.5	10.607
2865	9.12097
2865.5	7.22055
2866	6.04669
2866.5	6.18354
2867	7.32931
2867.5	8.60346
2868	9.29885
2868.5	9.35322
2869	9.02434
2869.5	8.48813
2870	7.77538
2870.5	7.07773
2871	6.87786
2871.5	7.39874
2872	8.13828
2872.5	8.15598
2873	7.01072
2873.5	5.47504
2874	4.99348
2874.5	6.09161
2875	8.02651
2875.5	9.67578
2876	10.6327
2876.5	11.3353
2877	12.0759
2877.5	12.3341
2878	11.5378
2878.5	9.99904
2879	8.84908
2879.5	8.9389
2880	9.71729
2880.5	9.8864
2881	8.94693
2881.5	7.69325
2882	7.4059
2882.5	8.52841
2883	10.0235
2883.5	10.4603
2884	9.41196
2884.5	7.64036
2885	6.33306
2885.5	6.13646
2886	6.80307
2886.5	7.64058
2887	8.254
2887.5	8.49346
2888	8.22132
2888.5	7.32504
2889	6.0624
2889.5	5.25545
2890	5.63169
2890.5	7.18352
2891	9.08719
2891.5	10.3246
2892	10.4646
2892.5	10.0023
2893	9.67657
2893.5	9.76837
2894	10.0284
2894.5	10.0503
2895	9.69509
2895.5	9.19658
2896	8.83369
2896.5	8.6171
2897	8.3617
2897.5	7.94413
2898	7.45692
2898.5	7.09936
2899	6.92137
2899.5	6.83971
2900	6.83788
2900.5	6.98817
2901	7.25271
2901.5	7.36826
2902	7.14409
2902.5	6.90923
2903	7.24258
2903.5	8.29506
2904	9.46188
2904.5	9.90165
2905	9.45366
2905.5	8.95406
2906	9.15725
2906.5	9.92469
2907	10.4536
2907.5	10.1435
2908	9.14212
2908.5	8.08134
2909	7.39812
2909.5	7.16808
2910	7.34388
2910.5	7.80776
2911	8.27648
2911.5	8.38996
2912	8.09272
2912.5	7.71364
2913	7.49076
2913.5	7.28744
2914	6.85709
2914.5	6.33576
2915	6.26938
2915.5	6.86186
2916	7.5309
2916.5	7.47181
2917	6.48934
2917.5	5.24762
2918	4.6933
2918.5	5.2564
2919	6.44576
2919.5	7.49038
2920	7.87389
2920.5	7.54746
2921	6.79807
2921.5	5.92255
2922	4.95656
2922.5	3.79642
2923	2.63318
2923.5	2.09241
2924	2.76369
2924.5	4.50954
2925	6.30214
2925.5	6.92944
2926	6.25336
2926.5	5.16773
2927	4.76851
2927.5	5.50574
2928	6.96577
2928.5	8.27655
2929	8.69224
2929.5	8.12436
2930	7.04371
2930.5	6.13585
2931	5.80347
2931.5	5.86808
2932	5.78502
2932.5	5.28658
2933	4.87437
2933.5	5.36162
2934	7.08456
2934.5	9.44594
2935	11.2045
2935.5	11.3424
2936	9.88178
2936.5	8.04711
2937	7.0334
2937.5	7.02135
2938	7.12602
2938.5	6.38312
2939	4.86449
2939.5	3.80275
2940	4.29673
2940.5	6.05644
2941	7.77548
2941.5	8.3122
2942	7.53692
2942.5	6.2033
2943	5.24139
2943.5	5.18919
2944	5.99393
2944.5	7.21371
2945	8.21966
2945.5	8.55488
2946	8.21812
2946.5	7.54695
2947	6.78209
2947.5	5.89145
2948	4.93923
2948.5	4.30938
2949	4.32721
2949.5	4.75682
2950	4.94325
2950.5	4.60074
2951	4.3091
2951.5	4.71823
2952	5.54215
2952.5	5.74586
2953	4.72635
2953.5	3.18214
2954	2.62456
2954.5	3.95113
2955	6.33929
2955.5	8.16458
2956	8.41346
2956.5	7.31721
2957	5.9516
2957.5	5.32806
2958	5.71904
2958.5	6.55023
2959	6.88921
2959.5	6.27327
2960	5.09836
2960.5	4.40449
2961	5.04915
2961.5	6.90074
2962	8.78782
2962.5	9.41375
2963	8.63161
2963.5	7.33393
2964	6.51588
2964.5	6.45136
2965	6.7388
2965.5	7.00377
2966	7.38991
2966.5	8.26204
2967	9.49957
2967.5	10.4695
2968	10.5816
2968.5	9.81509
2969	8.71681
2969.5	7.9503
2970	7.84945
2970.5	8.25414
2971	8.66962
2971.5	8.58019
2972	7.70463
2972.5	6.23455
2973	4.86142
2973.5	4.43005
2974	5.3407
2974.5	7.08121
2975	8.46817
2975.5	8.56857
2976	7.30217
2976.5	5.44173
2977	4.05592
2977.5	3.86725
2978	4.95085
2978.5	6.82288
2979	8.71278
2979.5	9.95132
2980	10.1601
2980.5	9.36058
2981	7.94355
2981.5	6.49739
2982	5.56739
2982.5	5.44566
2983	6.01522
2983.5	6.90498
2984	7.83681
2984.5	8.77255
2985	9.70233
2985.5	10.2992
2986	9.9902
2986.5	8.59851
2987	6.92028
2987.5	6.21943
2988	6.91715
2988.5	8.21439
2989	8.96173
2989.5	8.80495
2990	8.31006
2990.5	8.04423
2991	7.85657
2991.5	7.28632
2992	6.46069
2992.5	5.93461
2993	5.86798
2993.5	5.7619
2994	5.1729
2994.5	4.49363
2995	4.73061
2995.5	6.4144
2996	8.73539
2996.5	10.2343
2997	10.1652
2997.5	9.1064
2998	8.42439
2998.5	9.05929
2999	10.6586
2999.5	11.8423
3000	11.4294
3000.5	9.69
3001	8.0065
3001.5	7.39799
3002	7.62458
3002.5	7.6108
3003	6.65424
3003.5	5.12679
3004	4.05394
3004.5	4.17503
3005	5.36963
3005.5	6.89668
3006	7.97266
3006.5	8.10153
3007	7.27643
3007.5	5.99386
3008	4.96615
3008.5	4.62873
3009	4.82541
3009.5	4.96437
3010	4.59122
3010.5	3.78042
3011	3.06417
3011.5	3.05739
3012	4.01629
3012.5	5.61772
3013	7.15196
3013.5	8.02448
3014	8.13281
3014.5	7.79971
3015	7.32884
3015.5	6.87325
3016	6.63434
3016.5	6.87736
3017	7.58902
3017.5	8.26888
3018	8.36364
3018.5	7.99214
3019	7.99151
3019.5	8.85098
3020	9.90474
3020.5	9.94777
3021	8.53967
3021.5	6.51715
3022	5.15359
3022.5	4.97226
3023	5.50575
3023.5	6.05848
3024	6.4014
3024.5	6.66486
3025	6.86782
3025.5	6.92456
3026	6.89077
3026.5	6.91018
3027	6.90837
3027.5	6.56997
3028	5.76684
3028.5	4.90482
3029	4.67029
3029.5	5.29679
3030	6.32808
3030.5	7.03475
3031	6.94673
3031.5	6.10902
3032	5.02156
3032.5	4.36747
3033	4.57552
3033.5	5.39415
3034	5.93205
3034.5	5.46003
3035	4.353
3035.5	3.86683
3036	4.9481
3036.5	7.14251
3037	8.76022
3037.5	8.26567
3038	5.65644
3038.5	2.57466
3039	1.03944
3039.5	1.92091
3040	4.22589
3040.5	6.21672
3041	6.79976
3041.5	6.1677
3042	5.35798
3042.5	5.24919
3043	5.89122
3043.5	6.64614
3044	6.87407
3044.5	6.49516
3045	5.97617
3045.5	5.78273
3046	5.85766
3046.5	5.69266
3047	4.88593
3047.5	3.68268
3048	2.9168
3048.5	3.30415
3049	4.74792
3049.5	6.40702
3050	7.49695
3050.5	7.9439
3051	8.18224
3051.5	8.39134
3052	8.33106
3052.5	7.8499
3053	7.23491
3053.5	6.91662
3054	7.00304
3054.5	7.32105
3055	7.8203
3055.5	8.61545
3056	9.5349
3056.5	9.93797
3057	9.4035
3057.5	8.3526
3058	7.65592
3058.5	7.68279
3059	7.96391
3059.5	7.82078
3060	7.08994
3060.5	6.10995
3061	5.22721
3061.5	4.5995
3062	4.40676
3062.5	4.88298
3063	5.88548
3063.5	6.77747
3064	6.87813
3064.5	6.02708
3065	4.66352
3065.5	3.45337
3066	2.91245
3066.5	3.2501
3067	4.33923
3067.5	5.75912
3068	6.98039
3068.5	7.62057
3069	7.61129
3069.5	7.15103
3070	6.60763
3070.5	6.37585
3071	6.58845
3071.5	6.92929
3072	6.88317
3072.5	6.27
3073	5.44272
3073.5	4.88579
3074	4.743
3074.5	4.87119
3075	5.21132
3075.5	5.78302
3076	6.34474
3076.5	6.43344
3077	5.88552
3077.5	5.11513
3078	4.6986
3078.5	4.77392
3079	4.99259
3079.5	4.98935
3080	4.73421
3080.5	4.45821
3081	4.42862
3081.5	4.83298
3082	5.67181
3082.5	6.67747
3083	7.50628
3083.5	8.04478
3084	8.40998
3084.5	8.59185
3085	8.33205
3085.5	7.58768
3086	6.96596
3086.5	7.29952
3087	8.62767
3087.5	9.84367
3088	9.64484
3088.5	7.82998
3089	5.54587
3089.5	4.14714
3090	4.11569
3090.5	5.00274
3091	6.00322
3091.5	6.48915
3092	6.25586
3092.5	5.57247
3093	5.00509
3093.5	4.95744
3094	5.25739
3094.5	5.31897
3095	4.85839
3095.5	4.35775
3096	4.5723
3096.5	5.43698
3097	5.86141
3097.5	4.82934
3098	2.59442
3098.5	0.59163
3099	0.09923
3099.5	1.13341
3100	2.7293
3100.5	4.08708
3101	5.14824
3101.5	6.09629
3102	6.7218
3102.5	6.62638
3103	5.92796
3103.5	5.37983
3104	5.64413
3104.5	6.65479
3105	7.93953
3105.5	9.17226
3106	10.1853
3106.5	10.6311
3107	10.0896
3107.5	8.66226
3108	7.16003
3108.5	6.40425
3109	6.40767
3109.5	6.5169
3110	6.38227
3110.5	6.46631
3111	7.3495
3111.5	8.71059
3112	9.35949
3112.5	8.52523
3113	6.73459
3113.5	5.32039
3114	5.2355
3114.5	6.38911
3115	7.91615
3115.5	8.8619
3116	8.70651
3116.5	7.56342
3117	6.05434
3117.5	4.88828
3118	4.40621
3118.5	4.50342
3119	4.96141
3119.5	5.70995
3120	6.69007
3120.5	7.63467
3121	8.21669
3121.5	8.37239
3122	8.22154
3122.5	7.75475
3123	6.87552
3123.5	5.81312
3124	5.19511
3124.5	5.43475
3125	6.12745
3125.5	6.32025
3126	5.47484
3126.5	4.0732
3127	3.22521
3127.5	3.70965
3128	5.32834
3128.5	7.03104
3129	7.66407
3129.5	6.83953
3130	5.30118
3130.5	4.40635
3131	5.01078
3131.5	6.88276
3132	9.04546
3132.5	10.5188
3133	10.7662
3133.5	9.79012
3134	8.15321
3134.5	6.80235
3135	6.42016
3135.5	6.73881
3136	6.72559
3136.5	5.6765
3137	3.99783
3137.5	2.7223
3138	2.43454
3138.5	2.97507
3139	4.03369
3139.5	5.47577
3140	6.9359
3140.5	7.66785
3141	7.38461
3141.5	6.91468
3142	7.33274
3142.5	8.55286
3143	9.33549
3143.5	8.83546
3144	7.61554
3144.5	6.75187
3145	6.43753
3145.5	6.01087
3146	5.16617
3146.5	4.48481
3147	4.63685
3147.5	5.57821
3148	6.83405
3148.5	8.15511
3149	9.40877
3149.5	10.0454
3150	9.32541
3150.5	7.29256
3151	5.14534
3151.5	4.31087
3152	5.22007
3152.5	7.08715
3153	8.73242
3153.5	9.43754
3154	9.11294
3154.5	8.04596
3155	6.60531
3155.5	5.11168
3156	3.90914
3156.5	3.4426
3157	4.04904
3157.5	5.5556
3158	7.23642
3158.5	8.35568
3159	8.68429
3159.5	8.3534
3160	7.42186
3160.5	5.99052
3161	4.68122
3161.5	4.40085
3162	5.27696
3162.5	6.23873
3163	6.20962
3163.5	5.53286
3164	5.53245
3164.5	6.55603
3165	7.19926
3165.5	6.04985
3166	3.7922
3166.5	2.7417
3167	4.15533
3167.5	6.86001
3168	8.74064
3168.5	9.03998
3169	8.69626
3169.5	8.72443
3170	8.98897
3170.5	8.76481
3171	7.98312
3171.5	7.40087
3172	7.59499
3172.5	8.18417
3173	8.23548
3173.5	7.31726
3174	5.99798
3174.5	5.28199
3175	5.57599
3175.5	6.23995
3176	6.24046
3176.5	5.30032
3177	4.27187
3177.5	4.18682
3178	5.0309
3178.5	5.80242
3179	5.85854
3179.5	5.77045
3180	6.47369
3180.5	7.86109
3181	8.88206
3181.5	9.00439
3182	8.88917
3182.5	9.2933
3183	9.85854
3183.5	9.62142
3184	8.49904
3184.5	7.4824
3185	7.35694
3185.5	7.85567
3186	8.31913
3186.5	8.66514
3187	9.23763
3187.5	9.98736
3188	10.3628
3188.5	10.0115
3189	9.15323
3189.5	8.16505
3190	7.18544
3190.5	6.32434
3191	5.9093
3191.5	6.14692
3192	6.69423
3192.5	6.96906
3193	6.90974
3193.5	7.08083
3194	7.88387
3194.5	8.93058
3195	9.42371
3195.5	9.00165
3196	7.97901
3196.5	6.88894
3197	6.11461
3197.5	5.95667
3198	6.64862
3198.5	8.02387
3199	9.3629
3199.5	9.92369
3200	9.67767
3200.5	9.32416
3201	9.49613
3201.5	10.0622
3202	10.267
3202.5	9.4781
3203	7.78336
3203.5	5.99644
3204	5.13239
3204.5	5.68732
3205	7.20278
3205.5	8.55078
3206	8.85204
3206.5	8.24241
3207	7.69536
3207.5	8.02322
3208	9.06882
3208.5	9.92495
3209	9.92624
3209.5	9.32042
3210	8.87382
3210.5	8.89102
3211	8.87668
3211.5	8.34187
3212	7.69822
3212.5	7.92807
3213	9.30676
3213.5	10.8669
3214	11.431
3214.5	10.8954
3215	10.0695
3215.5	9.40892
3216	8.50535
3216.5	6.99312
3217	5.44205
3217.5	4.89138
3218	5.75869
3218.5	7.64885
3219	10.1003
3219.5	12.9874
3220	16.0031
3220.5	18.1453
3221	18.2064
3221.5	15.905
3222	12.372
3222.5	9.35792
3223	7.91036
3223.5	7.82334
3224	8.27598
3224.5	8.77083
3225	9.29501
3225.5	9.78404
3226	9.90035
3226.5	9.52089
3227	9.10909
3227.5	9.25182
3228	9.95299
3228.5	10.698
3229	11.1335
3229.5	11.3364
3230	11.4401
3230.5	11.4142
3231	11.3182
3231.5	11.3457
3232	11.3626
3232.5	10.7735
3233	9.2644
3233.5	7.46488
3234	6.39663
3234.5	6.29842
3235	6.43019
3235.5	6.11276
3236	5.57584
3236.5	5.62106
3237	6.76095
3237.5	8.85633
3238	11.2528
3238.5	12.9826
3239	13.1673
3239.5	11.7628
3240	9.88414
3240.5	8.92547
3241	9.19978
3241.5	9.76774
3242	9.74773
3242.5	9.41728
3243	9.69013
3243.5	10.7732
3244	11.8427
3244.5	12.069
3245	11.5442
3245.5	11.005
3246	10.9028
3246.5	10.9664
3247	10.5499
3247.5	9.27681
3248	7.52437
3248.5	6.39894
3249	6.91677
3249.5	8.83077
3250	10.4623
3250.5	10.2318
3251	8.42311
3251.5	6.96662
3252	7.31517
3252.5	8.98327
3253	10.4385
3253.5	10.9123
3254	10.7926
3254.5	10.5568
3255	10.1819
3255.5	9.63889
3256	9.26202
3256.5	9.2835
3257	9.44213
3257.5	9.42639
3258	9.39469
3258.5	9.65197
3259	10.0341
3259.5	10.0638
3260	9.67588
3260.5	9.3688
3261	9.51704
3261.5	9.83612
3262	9.72471
3262.5	8.96562
3263	7.9097
3263.5	7.10256
3264	6.94991
3264.5	7.66087
3265	9.17717
3265.5	11.0003
3266	12.3173
3266.5	12.5947
3267	12.0361
3267.5	11.2622
3268	10.5801
3268.5	9.83889
3269	9.00596
3269.5	8.46531
3270	8.49148
3270.5	8.77594
3271	8.90538
3271.5	9.10112
3272	9.92758
3272.5	11.2538
3273	12.0641
3273.5	11.5543
3274	10.0719
3274.5	8.75161
3275	8.51051
3275.5	9.54595
3276	11.368
3276.5	12.9488
3277	13.1992
3277.5	11.8537
3278	9.82344
3278.5	8.31093
3279	7.66946
3279.5	7.45154
3280	7.36117
3280.5	7.61346
3281	8.37743
3281.5	9.4172
3282	10.4496
3282.5	11.4509
3283	12.4258
3283.5	13.1815
3284	13.4821
3284.5	13.1854
3285	12.1866
3285.5	10.5806
3286	8.94039
3286.5	8.00755
3287	7.95009
3287.5	8.26903
3288	8.53691
3288.5	8.78518
3289	8.98168
3289.5	8.66198
3290	7.53953
3290.5	6.21076
3291	5.77709
3291.5	6.82802
3292	8.93551
3292.5	10.9366
3293	11.6532
3293.5	10.7827
3294	9.34707
3294.5	8.83777
3295	9.56794
3295.5	10.3006
3296	9.93591
3296.5	9.04963
3297	9.04249
3297.5	10.1162
3298	11.0433
3298.5	10.9652
3299	10.5093
3299.5	10.7705
3300	11.8377
3300.5	12.7844
3301	12.7249
3301.5	11.5691
3302	9.98915
3302.5	8.97942
3303	9.09461
3303.5	9.79217
3304	9.80198
3304.5	8.47223
3305	6.5686
3305.5	5.492
3306	5.90391
3306.5	7.35944
3307	9.02589
3307.5	10.3522
3308	11.1317
3308.5	11.3563
3309	11.1835
3309.5	10.8694
3310	10.5929
3310.5	10.3629
3311	10.1106
3311.5	9.87633
3312	9.91839
3312.5	10.5116
3313	11.4394
3313.5	11.8161
3314	10.8753
3314.5	9.06966
3315	7.86263
3315.5	8.05772
3316	8.93515
3316.5	9.4163
3317	9.55982
3317.5	10.1095
3318	10.8486
3318.5	10.5262
3319	8.75668
3319.5	7.06345
3320	7.25268
3320.5	9.1895
3321	10.9776
3321.5	11.1842
3322	10.13
3322.5	8.94855
3323	8.17955
3323.5	7.69107
3324	7.40552
3324.5	7.48081
3325	7.98908
3325.5	8.90235
3326	10.2156
3326.5	11.5796
3327	12.0844
3327.5	11.1665
3328	9.73359
3328.5	9.60099
3329	11.4552
3329.5	13.9514
3330	15.2629
3330.5	15.015
3331	14.137
3331.5	13.3249
3332	12.5688
3332.5	12.0267
3333	12.2504
3333.5	13.1278
3334	13.4243
3334.5	12.0999
3335	9.72366
3335.5	7.96537
3336	7.84783
3336.5	8.94644
3337	10.2883
3337.5	11.2851
3338	11.8594
3338.5	12.1721
3339	12.3758
3339.5	12.3692
3340	11.7829
3340.5	10.5323
3341	9.38773
3341.5	9.52214
3342	11.2159
3342.5	13.3198
3343	14.3869
3343.5	14.2182
3344	13.8837
3344.5	14.1465
3345	14.2655
3345.5	12.8542
3346	9.88246
3346.5	7.17388
3347	6.63001
3347.5	8.16172
3348	9.85311
3348.5	10.1924
3349	9.60929
3349.5	9.53499
3350	10.4621
3350.5	11.5488
3351	11.9138
3351.5	11.5949
3352	11.1396
3352.5	10.8994
3353	11.0222
3353.5	11.6076
3354	12.4143
3354.5	12.8548
3355	12.695
3355.5	12.4196
3356	12.4675
3356.5	12.4238
3357	11.5738
3357.5	10.1177
3358	9.15186
3358.5	9.33711
3359	10.1781
3359.5	10.8493
3360	11.1704
3360.5	11.3812
3361	11.4751
3361.5	11.3799
3362	11.4538
3362.5	11.9334
3363	12.1288
3363.5	11.1161
3364	9.44302
3364.5	9.09913
3365	11.137
3365.5	14.0163
3366	15.2652
3366.5	14.4609
3367	13.4503
3367.5	13.5869
3368	14.0401
3368.5	13.4726
3369	12.2865
3369.5	11.8629
3370	12.2417
3370.5	12.1958
3371	11.3092
3371.5	10.5868
3372	10.7218
3372.5	11.0026
3373	10.6002
3373.5	9.98777
3374	10.2055
3374.5	11.3441
3375	12.6531
3375.5	13.6795
3376	14.312
3376.5	14.0628
3377	12.5043
3377.5	10.3421
3378	8.97715
3378.5	8.89922
3379	9.40375
3379.5	10.0034
3380	11.0766
3380.5	12.7124
3381	13.9412
3381.5	13.9281
3382	13.2558
3382.5	13.1027
3383	13.4771
3383.5	13.3888
3384	12.4889
3384.5	11.5898
3385	11.5604
3385.5	12.3552
3386	13.2381
3386.5	13.506
3387	12.9677
3387.5	12.1315
3388	11.8938
3388.5	12.5678
3389	13.2349
3389.5	12.7149
3390	11.1688
3390.5	10.0293
3391	10.3377
3391.5	11.6634
3392	12.7763
3392.5	12.8724
3393	12.0114
3393.5	10.9162
3394	10.5722
3394.5	11.4803
3395	12.9934
3395.5	13.9252
3396	14.1227
3396.5	14.565
3397	15.6861
3397.5	16.3516
3398	15.162
3398.5	12.3103
3399	9.4655
3399.5	8.07299
3400	8.3248
3400.5	9.49099
3401	10.5921
3401.5	10.979
3402	10.8748
3402.5	11.3149
3403	13.104
3403.5	15.8571
3404	18.3761
3404.5	19.7789
3405	19.9308
3405.5	19.0716
3406	17.5424
3406.5	15.7473
3407	13.9196
3407.5	12.0418
3408	10.3499
3408.5	9.54839
3409	10.0651
3409.5	11.3719
3410	12.5615
3410.5	13.3688
3411	14.0841
3411.5	14.7002
3412	14.851
3412.5	14.5725
3413	14.2857
3413.5	14.0539
3414	13.5877
3414.5	13.0328
3415	13.021
3415.5	13.6412
3416	13.9768
3416.5	13.2142
3417	11.9411
3417.5	11.789
3418	13.5243
3418.5	16.0703
3419	17.4983
3419.5	16.8336
3420	14.7946
3420.5	12.8567
3421	11.9112
3421.5	11.9712
3422	12.6924
3422.5	13.4878
3423	13.3514
3423.5	11.6968
3424	9.59397
3424.5	9.21428
3425	11.3035
3425.5	13.8767
3426	14.3895
3426.5	12.8711
3427	11.7991
3427.5	12.8062
3428	14.5219
3428.5	14.7155
3429	13.2585
3429.5	12.0958
3430	12.7503
3430.5	14.7007
3431	16.3031
3431.5	16.6022
3432	15.8124
3432.5	14.5226
3433	13.2384
3433.5	12.6
3434	13.147
3434.5	14.3806
3435	14.7492
3435.5	13.2889
3436	10.9814
3436.5	9.76866
3437	10.3859
3437.5	11.8192
3438	13.0048
3438.5	13.7289
3439	13.8904
3439.5	13.1606
3440	11.8057
3440.5	10.9471
3441	11.3208
3441.5	12.322
3442	12.8819
3442.5	12.8787
3443	12.8331
3443.5	12.8729
3444	12.7028
3444.5	12.2826
3445	11.9382
3445.5	11.9482
3446	12.4138
3446.5	13.2383
3447	13.8477
3447.5	13.5458
3448	12.6574
3448.5	12.766
3449	14.9283
3449.5	17.9351
3450	19.3345
3450.5	18.2223
3451	16.1527
3451.5	14.8827
3452	14.3766
3452.5	13.7181
3453	12.8764
3453.5	12.7257
3454	13.5938
3454.5	14.624
3455	14.7703
3455.5	14.0077
3456	13.1043
3456.5	12.5551
3457	12.3022
3457.5	12.2881
3458	12.7286
3458.5	13.582
3459	14.1921
3459.5	14.01
3460	13.5554
3460.5	13.8106
3461	14.8745
3461.5	15.8047
3462	15.8703
3462.5	15.3507
3463	14.8273
3463.5	14.2534
3464	13.2757
3464.5	12.1135
3465	11.4297
3465.5	11.5354
3466	12.0909
3466.5	12.5264
3467	12.5143
3467.5	12.1404
3468	11.8776
3468.5	12.2223
3469	13.1487
3469.5	13.9599
3470	13.9207
3470.5	13.1018
3471	12.3998
3471.5	12.5956
3472	13.4694
3472.5	14.1826
3473	14.3872
3473.5	14.3975
3474	14.3001
3474.5	13.4501
3475	11.3254
3475.5	8.54637
3476	6.47039
3476.5	5.81799
3477	6.50791
3477.5	8.30558
3478	10.832
3478.5	13.1018
3479	13.9925
3479.5	13.4094
3480	12.4285
3480.5	11.8833
3481	11.7864
3481.5	11.9348
3482	12.2332
3482.5	12.3439
3483	11.8617
3483.5	11.1061
3484	10.8333
3484.5	10.8948
3485	10.3082
3485.5	8.96407
3486	8.33449
3486.5	9.73648
3487	12.4664
3487.5	14.491
3488	14.8301
3488.5	14.0066
3489	12.7538
3489.5	11.3528
3490	10.286
3490.5	10.4576
3491	11.9248
3491.5	13.0091
3492	12.034
3492.5	9.50791
3493	7.85321
3493.5	8.68976
3494	11.0549
3494.5	12.6818
3495	12.597
3495.5	11.5118
3496	10.4375
3496.5	9.92229
3497	10.1683
3497.5	11.0232
3498	11.9233
3498.5	12.5015
3499	13.0071
3499.5	13.5619
3500	13.6343
3500.5	12.9509
3501	12.3685
3501.5	12.8293
3502	13.7099
3502.5	13.7359
3503	13.0099
3503.5	12.7631
3504	13.3644
3504.5	13.9065
3505	13.8657
3505.5	13.7997
3506	13.8453
3506.5	13.2417
3507	11.8617
3507.5	10.8953
3508	11.151
3508.5	11.5509
3509	10.5322
3509.5	8.43928
3510	7.17937
3510.5	8.10526
3511	10.8194
3511.5	13.816
3512	15.5127
3512.5	15.2134
3513	13.431
3513.5	11.5456
3514	10.5807
3514.5	10.3301
3515	10.058
3515.5	9.85032
3516	10.4353
3516.5	11.7507
3517	12.7402
3517.5	12.7576
3518	12.4163
3518.5	12.5472
3519	12.851
3519.5	12.5594
3520	11.8016
3520.5	11.3733
3521	11.3887
3521.5	11.0226
3522	9.82669
3522.5	8.65815
3523	8.63739
3523.5	9.8439
3524	11.1984
3524.5	11.4695
3525	10.3839
3525.5	9.02567
3526	8.69784
3526.5	9.40868
3527	9.71846
3527.5	8.48403
3528	6.56228
3528.5	6.10769
3529	7.88825
3529.5	10.5793
3530	12.4523
3530.5	12.9778
3531	12.5804
3531.5	11.5803
3532	10.107
3532.5	8.64601
3533	7.94421
3533.5	8.24286
3534	8.961
3534.5	9.35036
3535	9.39615
3535.5	9.6123
3536	10.0528
3536.5	10.0924
3537	9.43838
3537.5	8.89593
3538	9.34435
3538.5	10.2291
3539	10.2901
3539.5	9.43223
3540	8.91777
3540.5	9.47725
3541	10.1062
3541.5	9.58
3542	8.16259
3542.5	7.16944
3543	7.41971
3543.5	8.50117
3544	9.29383
3544.5	9.1567
3545	8.50118
3545.5	8.28349
3546	8.85229
3546.5	9.58316
3547	9.89264
3547.5	9.95618
3548	9.74903
3548.5	8.60031
3549	6.52877
3549.5	5.23769
3550	6.34816
3550.5	9.02178
3551	11.061
3551.5	11.423
3552	10.7641
3552.5	9.90404
3553	9.02726
3553.5	8.35287
3554	8.22791
3554.5	8.41694
3555	8.24132
3555.5	7.56983
3556	7.00487
3556.5	6.92109
3557	7.24365
3557.5	7.91154
3558	8.76545
3558.5	8.99293
3559	7.80263
3559.5	5.7164
3560	4.38189
3560.5	4.82767
3561	6.42106
3561.5	7.84975
3562	8.682
3562.5	9.21089
3563	9.52932
3563.5	9.4507
3564	9.016
3564.5	8.42223
3565	7.54245
3565.5	6.29841
3566	5.34055
3566.5	5.64228
3567	7.22409
3567.5	8.93834
3568	10.0256
3568.5	10.7942
3569	11.6413
3569.5	11.9321
3570	10.6663
3570.5	8.03809
3571	5.46758
3571.5	4.25118
3572	4.5197
3572.5	5.5607
3573	6.74829
3573.5	7.86497
3574	8.6865
3574.5	8.93709
3575	8.61809
3575.5	8.02379
3576	7.28089
3576.5	6.44482
3577	5.98627
3577.5	6.48827
3578	7.51749
3578.5	7.7651
3579	6.92185
3579.5	6.28902
3580	6.91112
3580.5	7.76673
3581	7.2317
3581.5	5.79061
3582	5.36597
3582.5	6.46659
3583	7.37528
3583.5	6.78686
3584	5.73132
3584.5	5.76986
3585	6.86742
3585.5	7.76207
3586	7.75234
3586.5	7.1194
3587	6.21043
3587.5	5.45185
3588	5.72836
3588.5	7.48223
3589	9.39275
3589.5	9.67649
3590	8.31775
3590.5	7.09226
3591	7.13575
3591.5	7.57345
3592	7.48532
3592.5	7.14662
3593	6.91521
3593.5	6.21978
3594	4.84543
3594.5	3.83027
3595	4.09541
3595.5	5.20037
3596	6.18223
3596.5	6.74807
3597	6.73557
3597.5	5.7868
3598	4.44628
3598.5	4.34403
3599	5.86633
3599.5	7.32291
3600	7.37366
3600.5	6.82946
3601	7.02563
3601.5	7.42122
3602	6.86841
3602.5	5.91033
3603	6.09922
3603.5	7.57839
3604	8.75242
3604.5	8.65739
3605	7.8263
3605.5	7.138
3606	6.85372
3606.5	6.83063
3607	6.92684
3607.5	6.93352
3608	6.7682
3608.5	6.81842
3609	7.46789
3609.5	8.30338
3610	8.36114
3610.5	7.15446
3611	5.19347
3611.5	3.50785
3612	2.81424
3612.5	3.26376
3613	4.42556
3613.5	5.70994
3614	7.11852
3614.5	9.00024
3615	10.843
3615.5	11.1523
3616	9.48947
3616.5	7.71803
3617	7.62601
3617.5	8.62194
3618	8.68528
3618.5	7.35177
3619	5.86835
3619.5	4.95628
3620	4.41561
3620.5	4.43548
3621	5.40526
3621.5	6.61654
3622	6.81432
3622.5	5.86642
3623	4.73612
3623.5	3.92559
3624	3.43884
3624.5	3.67885
3625	4.8603
3625.5	5.89609
3626	5.74385
3626.5	5.19329
3627	5.85722
3627.5	7.6491
3628	8.62097
3628.5	7.80514
3629	6.14964
3629.5	4.97449
3630	4.6296
3630.5	4.99
3631	6.16072
3631.5	7.83871
3632	8.8745
3632.5	8.40787
3633	6.94161
3633.5	5.60197
3634	4.94678
3634.5	4.98775
3635	6.00573
3635.5	8.37873
3636	11.5332
3636.5	14.0179
3637	15.1428
3637.5	15.6577
3638	16.2204
3638.5	16.0764
3639	13.7799
3639.5	9.55331
3640	5.66894
3640.5	4.60342
3641	6.59313
3641.5	8.89697
3642	8.77019
3642.5	6.33338
3643	4.18014
3643.5	4.27852
3644	5.72949
3644.5	6.7602
3645	6.84612
3645.5	6.56473
3646	6.32041
3646.5	6.26134
3647	6.74637
3647.5	7.65226
3648	7.64741
3648.5	5.66064
3649	2.63347
3649.5	0.90134
3650	1.63753
3650.5	3.22908
3651	3.67597
3651.5	3.0348
3652	3.07654
3652.5	4.28386
3653	4.87201
3653.5	3.77627
3654	2.95376
3654.5	5.03549
3655	8.76515
3655.5	10.4464
3656	8.73254
3656.5	6.06229
3657	4.57066
3657.5	3.54539
3658	2.37962
3658.5	2.48902
3659	4.41448
3659.5	6.08461
3660	5.9007
3660.5	5.10383
3661	5.2381
3661.5	5.2022
3662	3.67026
3662.5	2.00756
3663	2.56779
3663.5	4.86504
3664	6.61695
3664.5	6.7559
3665	5.92229
3665.5	4.78993
3666	3.60867
3666.5	2.92946
3667	3.20187
3667.5	3.91661
3668	4.3574
3668.5	4.30081
3669	3.77782
3669.5	3.0327
3670	2.79446
3670.5	3.62301
3671	4.74609
3671.5	4.64693
3672	3.21459
3672.5	1.94256
3673	2.22669
3673.5	3.90138
3674	5.70302
3674.5	6.41114
3675	5.48744
3675.5	3.55089
3676	1.80809
3676.5	0.81662
3677	0.39951
3677.5	0.58261
3678	1.67518
3678.5	3.21367
3679	3.89434
3679.5	3.15135
3680	1.94553
3680.5	1.18591
3681	0.83816
3681.5	0.72913
3682	1.18905
3682.5	2.09331
3683	2.31335
3683.5	1.17831
3684	0
3684.5	0.49262
3685	2.51094
3685.5	4.021
3686	3.878
3686.5	3.02383
3687	2.79579
3687.5	3.06617
3688	2.92429
3688.5	2.43796
3689	2.42974
3689.5	3.01294
3690	3.44274
3690.5	3.42708
3691	3.42253
3691.5	3.76241
3692	4.19696
3692.5	4.37783
3693	4.05226
3693.5	3.22451
3694	2.6464
3694.5	3.40518
3695	5.26487
3695.5	6.08851
3696	4.73792
3696.5	2.89389
3697	2.97602
3697.5	4.38389
3698	4.68322
3698.5	3.25135
3699	1.89929
3699.5	1.78518
3700	1.94218
