#Imported=	16.12.2021 13:58:47
60	58.5626
60.5	58.6948
61	58.8542
61.5	58.7911
62	58.1976
62.5	57.0161
63	55.4598
63.5	53.9051
64	52.7738
64.5	52.4911
65	53.3477
65.5	54.9601
66	56.8914
66.5	58.6075
67	59.7627
67.5	60.0039
68	59.7028
68.5	59.2174
69	58.8957
69.5	58.9202
70	59.3862
70.5	60.1527
71	61.0144
71.5	61.8816
72	62.7326
72.5	63.6055
73	64.5807
73.5	65.6354
74	66.7065
74.5	67.6724
75	68.4198
75.5	68.7337
76	68.6159
76.5	68.1379
77	67.3736
77.5	66.5563
78	65.9283
78.5	65.7434
79	65.9799
79.5	66.5907
80	67.3689
80.5	68.056
81	68.3653
81.5	68.3164
82	68.0191
82.5	67.6534
83	67.4277
83.5	67.4929
84	67.7952
84.5	68.1787
85	68.5116
85.5	68.7171
86	68.8137
86.5	68.919
87	69.1225
87.5	69.4347
88	69.7801
88.5	70.0001
89	69.8938
89.5	69.4126
90	68.643
90.5	67.6896
91	66.7475
91.5	65.987
92	65.5269
92.5	65.3139
93	65.3299
93.5	65.5398
94	65.8949
94.5	66.3889
95	66.9827
95.5	67.6297
96	68.2593
96.5	68.7782
97	69.0713
97.5	69.0452
98	68.7308
98.5	68.1273
99	67.3009
99.5	66.3625
100	65.4336
100.5	64.6086
101	63.9434
101.5	63.5254
102	63.3571
102.5	63.4898
103	63.926
103.5	64.5907
104	65.4162
104.5	66.2381
105	66.8227
105.5	66.8639
106	66.3184
106.5	65.1881
107	63.5672
107.5	61.8137
108	60.3351
108.5	59.4512
109	59.2203
109.5	59.6932
110	60.6146
110.5	61.6698
111	62.4666
111.5	62.8524
112	62.7532
112.5	62.2217
113	61.5125
113.5	60.9484
114	60.7914
114.5	61.1214
115	61.9941
115.5	63.1671
116	64.3347
116.5	65.0892
117	65.3044
117.5	64.9134
118	64.0499
118.5	63.0211
119	62.1991
119.5	61.7826
120	61.7771
120.5	62.1302
121	62.5737
121.5	62.869
122	62.8305
122.5	62.5183
123	62.0213
123.5	61.5131
124	61.1418
124.5	61.0719
125	61.2388
125.5	61.5772
126	62.0203
126.5	62.4837
127	62.9243
127.5	63.3122
128	63.6336
128.5	63.8419
129	63.909
129.5	63.8269
130	63.5859
130.5	63.3021
131	63.0604
131.5	62.9303
132	62.904
132.5	62.9429
133	62.9601
133.5	62.9225
134	62.8695
134.5	62.8963
135	63.0953
135.5	63.5676
136	64.2094
136.5	64.8555
137	65.3255
137.5	65.5316
138	65.4164
138.5	65.0743
139	64.651
139.5	64.2212
140	63.779
140.5	63.2671
141	62.6034
141.5	61.8103
142	61.0243
142.5	60.452
143	60.2437
143.5	60.5847
144	61.4301
144.5	62.6249
145	63.9033
145.5	65.0044
146	65.716
146.5	65.8748
147	65.4984
147.5	64.6776
148	63.6985
148.5	62.7975
149	62.2205
149.5	62.0145
150	62.1523
150.5	62.4214
151	62.6063
151.5	62.604
152	62.4468
152.5	62.2819
153	62.3418
153.5	62.6558
154	63.1017
154.5	63.4215
155	63.3833
155.5	62.8046
156	61.6659
156.5	60.3553
157	59.2018
157.5	58.4702
158	58.242
158.5	58.5652
159	59.1968
159.5	59.9374
160	60.6969
160.5	61.4517
161	62.2178
161.5	62.9933
162	63.7127
162.5	64.2472
163	64.5236
163.5	64.5275
164	64.2605
164.5	63.8881
165	63.5662
165.5	63.4365
166	63.5422
166.5	63.9491
167	64.6669
167.5	65.7044
168	67.1152
168.5	68.7897
169	70.6207
169.5	72.414
170	73.9418
170.5	74.8818
171	75.0276
171.5	74.4801
172	73.2763
172.5	71.6871
173	69.9576
173.5	68.3264
174	66.8902
174.5	65.6305
175	64.4752
175.5	63.3253
176	62.1249
176.5	60.8882
177	59.7085
177.5	58.7475
178	58.1029
178.5	57.8498
179	58.0678
179.5	58.6191
180	59.314
180.5	59.8819
181	60.1333
181.5	59.8764
182	59.1272
182.5	58.0044
183	56.725
183.5	55.5312
184	54.539
184.5	53.8037
185	53.2575
185.5	52.8765
186	52.6559
186.5	52.6187
187	52.8495
187.5	53.315
188	53.9409
188.5	54.5843
189	55.0806
189.5	55.3607
190	55.4334
190.5	55.3748
191	55.2108
191.5	54.9323
192	54.4903
192.5	53.8556
193	53.1625
193.5	52.5979
194	52.4298
194.5	52.7567
195	53.5801
195.5	54.5499
196	55.3286
196.5	55.6176
197	55.4267
197.5	54.9305
198	54.4869
198.5	54.369
199	54.6342
199.5	55.1476
200	55.6502
200.5	55.901
201	55.7942
201.5	55.4296
202	54.9404
202.5	54.4511
203	53.9968
203.5	53.5664
204	53.1405
204.5	52.762
205	52.508
205.5	52.4062
206	52.4404
206.5	52.4839
207	52.398
207.5	52.0381
208	51.5333
208.5	51.0505
209	50.8129
209.5	50.9238
210	51.4392
210.5	52.2076
211	52.9869
211.5	53.5644
212	53.8628
212.5	53.8535
213	53.5362
213.5	53.0316
214	52.4707
214.5	52.0342
215	51.8635
215.5	52.1353
216	52.8446
216.5	53.8923
217	55.0558
217.5	56.0378
218	56.6646
218.5	56.8552
219	56.7312
219.5	56.4075
220	56.0509
220.5	55.7545
221	55.5544
221.5	55.4389
222	55.4105
222.5	55.4899
223	55.6601
223.5	55.8866
224	56.1029
224.5	56.2694
225	56.3713
225.5	56.4348
226	56.4803
226.5	56.458
227	56.2971
227.5	55.9367
228	55.4099
228.5	54.9062
229	54.7144
229.5	55.1202
230	56.1201
230.5	57.456
231	58.6453
231.5	59.3134
232	59.1697
232.5	58.4844
233	57.7325
233.5	57.5197
234	58.0295
234.5	59.2382
235	60.695
235.5	61.9406
236	62.4922
236.5	62.477
237	62.2691
237.5	62.3575
238	63.0355
238.5	64.4767
239	66.5208
239.5	68.7934
240	70.8707
240.5	72.4995
241	73.5454
241.5	73.845
242	73.5441
242.5	72.7032
243	71.5562
243.5	70.4696
244	69.7714
244.5	69.6312
245	70.0224
245.5	70.813
246	71.5548
246.5	71.8488
247	71.4005
247.5	70.3015
248	68.6602
248.5	66.7643
249	64.8975
249.5	63.3311
250	62.1091
250.5	61.2222
251	60.694
251.5	60.42
252	60.3555
252.5	60.4044
253	60.4078
253.5	60.1954
254	59.686
254.5	58.9051
255	57.9442
255.5	57.0445
256	56.4735
256.5	56.5244
257	57.1438
257.5	58.2919
258	59.7619
258.5	61.2925
259	62.6319
259.5	63.6064
260	64.1711
260.5	64.296
261	64.1218
261.5	63.7092
262	63.1345
262.5	62.4919
263	61.8527
263.5	61.2824
264	60.81
264.5	60.4669
265	60.2224
265.5	60.0522
266	59.9398
266.5	59.882
267	59.9277
267.5	60.1445
268	60.5619
268.5	61.2169
269	62.0319
269.5	62.8968
270	63.626
270.5	64.1308
271	64.3585
271.5	64.309
272	64.068
272.5	63.6638
273	63.1195
273.5	62.4343
274	61.6081
274.5	60.7399
275	59.9644
275.5	59.4946
276	59.4226
276.5	59.8309
277	60.64
277.5	61.5778
278	62.4316
278.5	63.0481
279	63.3675
279.5	63.3044
280	62.9265
280.5	62.2192
281	61.2276
281.5	60.1149
282	59.1116
282.5	58.5288
283	58.5992
283.5	59.6509
284	61.555
284.5	63.9894
285	66.5923
285.5	69.0044
286	70.9975
286.5	72.4926
287	73.6141
287.5	74.4704
288	75.2501
288.5	76.0224
289	76.7676
289.5	77.3968
290	77.7527
290.5	77.5917
291	76.7953
291.5	75.303
292	73.3316
292.5	71.2249
293	69.3871
293.5	68.0811
294	67.3822
294.5	67.1902
295	67.0136
295.5	66.4842
296	65.3988
296.5	63.8798
297	62.152
297.5	60.5683
298	59.3711
298.5	58.705
299	58.322
299.5	58.0462
300	57.7362
300.5	57.3804
301	57.0853
301.5	57.0305
302	57.3258
302.5	57.9852
303	58.81
303.5	59.5986
304	60.1161
304.5	60.3012
305	60.1452
305.5	59.7508
306	59.2929
306.5	58.8333
307	58.343
307.5	57.7518
308	56.9715
308.5	56.0598
309	55.1623
309.5	54.5647
310	54.3842
310.5	54.674
311	55.2895
311.5	55.9871
312	56.5391
312.5	56.8415
313	56.9221
313.5	56.8963
314	56.8764
314.5	56.8835
315	56.8967
315.5	56.9076
316	56.98
316.5	57.2501
317	57.8068
317.5	58.6255
318	59.4512
318.5	60.009
319	60.0142
319.5	59.5368
320	58.8097
320.5	58.3769
321	58.6374
321.5	59.8462
322	61.7307
322.5	63.8833
323	65.8034
323.5	67.2174
324	68.06
324.5	68.5971
325	69.2554
325.5	70.335
326	71.9061
326.5	73.8363
327	75.9434
327.5	77.989
328	79.8427
328.5	81.4862
329	83.0241
329.5	84.5145
330	85.9864
330.5	87.4261
331	88.7738
331.5	89.9709
332	90.9539
332.5	91.596
333	91.8764
333.5	91.6982
334	90.9721
334.5	89.7896
335	88.2109
335.5	86.4385
336	84.6993
336.5	83.1828
337	81.9059
337.5	80.81
338	79.7712
338.5	78.6423
339	77.3252
339.5	75.8069
340	74.1992
340.5	72.6408
341	71.231
341.5	69.9974
342	68.9435
342.5	67.9723
343	67.0248
343.5	66.0766
344	65.1644
344.5	64.3603
345	63.7022
345.5	63.1567
346	62.6376
346.5	62.0126
347	61.1833
347.5	60.0839
348	58.8752
348.5	57.7536
349	56.9381
349.5	56.5131
350	56.5312
350.5	56.8329
351	57.2018
351.5	57.3353
352	57.0761
352.5	56.3741
353	55.2927
353.5	54.1013
354	53.1013
354.5	52.6021
355	52.7363
355.5	53.6251
356	54.9182
356.5	56.2593
357	57.2979
357.5	57.9435
358	58.2346
358.5	58.3731
359	58.5769
359.5	58.9281
360	59.2699
360.5	59.4013
361	59.164
361.5	58.7209
362	58.3413
362.5	58.3969
363	58.9875
363.5	60.0242
364	61.0344
364.5	61.5851
365	61.3714
365.5	60.5748
366	59.5275
366.5	58.6502
367	58.1669
367.5	58.1088
368	58.2935
368.5	58.4701
369	58.584
369.5	58.7307
370	59.0345
370.5	59.5956
371	60.2927
371.5	60.9278
372	61.1979
372.5	61.0379
373	60.4697
373.5	59.659
374	58.8133
374.5	58.1154
375	57.6709
375.5	57.5212
376	57.7188
376.5	58.0988
377	58.4595
377.5	58.5368
378	58.1987
378.5	57.3902
379	56.3356
379.5	55.374
380	54.9367
380.5	55.1391
381	55.7966
381.5	56.5002
382	56.8425
382.5	56.571
383	55.7341
383.5	54.667
384	53.754
384.5	53.2677
385	53.196
385.5	53.3257
386	53.3471
386.5	53.0917
387	52.534
387.5	51.8532
388	51.255
388.5	50.9156
389	50.8924
389.5	51.1815
390	51.6515
390.5	52.2162
391	52.7767
391.5	53.2215
392	53.4083
392.5	53.2014
393	52.5951
393.5	51.6317
394	50.6046
394.5	49.7701
395	49.4071
395.5	49.4811
396	49.8934
396.5	50.4274
397	50.8638
397.5	51.0977
398	51.2076
398.5	51.3529
399	51.6407
399.5	52.0122
400	52.3143
400.5	52.2983
401	51.883
401.5	51.0584
402	50.0005
402.5	48.9951
403	48.275
403.5	47.9052
404	47.8417
404.5	48.0518
405	48.4103
405.5	48.8652
406	49.3637
406.5	49.8203
407	50.1154
407.5	50.168
408	49.9982
408.5	49.683
409	49.408
409.5	49.3274
410	49.5887
410.5	50.125
411	50.8468
411.5	51.5855
412	52.2169
412.5	52.6542
413	52.8808
413.5	52.9102
414	52.7296
414.5	52.4257
415	52.0882
415.5	51.8675
416	51.8742
416.5	52.156
417	52.6388
417.5	53.1729
418	53.6028
418.5	53.8498
419	53.9213
419.5	53.8746
420	53.8269
420.5	53.8421
421	53.9269
421.5	54.051
422	54.2102
422.5	54.4204
423	54.6985
423.5	55.0389
424	55.3498
424.5	55.4926
425	55.2525
425.5	54.6295
426	53.7089
426.5	52.7594
427	52.0876
427.5	52.0439
428	52.6909
428.5	53.9103
429	55.4497
429.5	56.8331
430	57.6785
430.5	57.7961
431	57.3732
431.5	56.6362
432	55.9247
432.5	55.448
433	55.3156
433.5	55.3828
434	55.4908
434.5	55.4957
435	55.4251
435.5	55.4094
436	55.6126
436.5	56.092
437	56.8477
437.5	57.7121
438	58.508
438.5	59.0255
439	59.2278
439.5	59.1208
440	58.8288
440.5	58.5308
441	58.3754
441.5	58.434
442	58.6548
442.5	58.8806
443	58.8777
443.5	58.4563
444	57.4894
444.5	56.2531
445	55.1408
445.5	54.572
446	54.6815
446.5	55.4661
447	56.5358
447.5	57.5005
448	58.0009
448.5	58.0902
449	57.9629
449.5	57.9321
450	58.094
450.5	58.3185
451	58.3168
451.5	57.9048
452	57.0234
452.5	55.989
453	55.1642
453.5	54.9413
454	55.288
454.5	55.9726
455	56.5793
455.5	56.8629
456	56.7593
456.5	56.4995
457	56.3606
457.5	56.632
458	57.2957
458.5	58.2329
459	59.1935
459.5	59.9354
460	60.3175
460.5	60.3423
461	60.1194
461.5	59.7548
462	59.4069
462.5	59.1861
463	59.1919
463.5	59.3766
464	59.6572
464.5	59.8708
465	59.9085
465.5	59.7221
466	59.3946
466.5	59.0368
467	58.7317
467.5	58.4602
468	58.1325
468.5	57.6122
469	56.8787
469.5	55.9981
470	55.1868
470.5	54.6171
471	54.4044
471.5	54.4232
472	54.4785
472.5	54.3159
473	53.8464
473.5	53.0857
474	52.2132
474.5	51.4749
475	51.1009
475.5	51.0938
476	51.3231
476.5	51.6264
477	51.8418
477.5	51.9068
478	51.8265
478.5	51.6816
479	51.5039
479.5	51.2687
480	50.9117
480.5	50.3497
481	49.6389
481.5	48.893
482	48.2783
482.5	47.8651
483	47.6514
483.5	47.5339
484	47.3729
484.5	47.0893
485	46.7284
485.5	46.4185
486	46.3299
486.5	46.4767
487	46.8205
487.5	47.3094
488	47.8965
488.5	48.6356
489	49.5924
489.5	50.7317
490	51.8947
490.5	52.7735
491	53.072
491.5	52.4823
492	51.3246
492.5	49.9535
493	48.8909
493.5	48.4612
494	48.8546
494.5	49.858
495	51.058
495.5	51.9645
496	52.2701
496.5	51.87
497	50.8692
497.5	49.7744
498	49.0125
498.5	48.9257
499	49.5063
499.5	50.6161
500	51.807
500.5	52.6929
501	52.9058
501.5	52.5801
502	51.967
502.5	51.5152
503	51.512
503.5	52.0406
504	52.8738
504.5	53.6805
505	54.1265
505.5	54.123
506	53.7245
506.5	53.0723
507	52.3967
507.5	51.8223
508	51.3994
508.5	51.0963
509	50.9016
509.5	50.806
510	50.8062
510.5	50.8934
511	50.9915
511.5	51.0231
512	50.9182
512.5	50.7075
513	50.4827
513.5	50.3988
514	50.5663
514.5	51.039
515	51.6417
515.5	52.167
516	52.3507
516.5	52.1389
517	51.5561
517.5	50.8021
518	50.161
518.5	49.9258
519	50.2257
519.5	51.0199
520	52.2081
520.5	53.4366
521	54.4122
521.5	54.8512
522	54.753
522.5	54.1771
523	53.4041
523.5	52.7607
524	52.5711
524.5	52.8948
525	53.6253
525.5	54.5303
526	55.2729
526.5	55.5951
527	55.3659
527.5	54.6671
528	53.5451
528.5	52.2018
529	50.89
529.5	50.0165
530	49.8641
530.5	50.6488
531	52.4207
531.5	54.6716
532	56.8333
532.5	58.2666
533	58.7771
533.5	58.4121
534	57.6755
534.5	56.9734
535	56.5735
535.5	56.3826
536	56.2127
536.5	55.8689
537	55.3541
537.5	54.8147
538	54.4662
538.5	54.3998
539	54.595
539.5	54.8129
540	54.8895
540.5	54.7276
541	54.4024
541.5	53.9959
542	53.5967
542.5	53.2476
543	52.9795
543.5	52.8071
544	52.7491
544.5	52.8381
545	53.0153
545.5	53.2125
546	53.3501
546.5	53.412
547	53.4173
547.5	53.4064
548	53.3867
548.5	53.3069
549	53.111
549.5	52.7668
550	52.286
550.5	51.7734
551	51.3281
551.5	51.0291
552	50.8882
552.5	50.9233
553	51.1158
553.5	51.4529
554	51.9093
554.5	52.344
555	52.5717
555.5	52.3538
556	51.6479
556.5	50.4796
557	49.1366
557.5	47.9876
558	47.4841
558.5	47.756
559	48.7535
559.5	50.1788
560	51.5009
560.5	52.2764
561	52.2051
561.5	51.3904
562	50.0438
562.5	48.6669
563	47.6746
563.5	47.4748
564	47.9386
564.5	48.8263
565	49.6908
565.5	50.1337
566	49.8767
566.5	49.0533
567	48.0288
567.5	47.2402
568	46.977
568.5	47.3075
569	48.1242
569.5	48.9969
570	49.5424
570.5	49.4568
571	48.7827
571.5	47.6907
572	46.6096
572.5	45.9075
573	45.9733
573.5	46.6838
574	47.8122
574.5	48.9979
575	49.9087
575.5	50.3265
576	50.2588
576.5	49.9082
577	49.5029
577.5	49.2534
578	49.2225
578.5	49.348
579	49.4137
579.5	49.2235
580	48.6669
580.5	47.8696
581	47.0734
581.5	46.5526
582	46.4261
582.5	46.7188
583	47.1637
583.5	47.5129
584	47.5283
584.5	47.2089
585	46.6352
585.5	46.0184
586	45.5555
586.5	45.4323
587	45.6799
587.5	46.2688
588	47.1576
588.5	48.1228
589	48.9502
589.5	49.3968
590	49.3976
590.5	48.9585
591	48.3289
591.5	47.8013
592	47.6769
592.5	47.9728
593	48.5813
593.5	49.2857
594	49.8787
594.5	50.2863
595	50.5782
595.5	50.8774
596	51.2463
596.5	51.6141
597	51.8706
597.5	51.8933
598	51.7321
598.5	51.4587
599	51.1575
599.5	50.8528
600	50.4937
600.5	50.0319
601	49.4995
601.5	49.0409
602	48.835
602.5	49.0085
603	49.6131
603.5	50.4439
604	51.3173
604.5	52.0864
605	52.7556
605.5	53.394
606	54.0599
606.5	54.7164
607	55.1998
607.5	55.3999
608	55.2661
608.5	54.8973
609	54.542
609.5	54.43
610	54.6466
610.5	55.0784
611	55.5076
611.5	55.7174
612	55.6294
612.5	55.2894
613	54.9101
613.5	54.5987
614	54.334
614.5	53.9954
615	53.4603
615.5	52.7765
616	52.1288
616.5	51.8374
617	52.0067
617.5	52.595
618	53.3361
618.5	53.8801
619	53.9974
619.5	53.7469
620	53.4041
620.5	53.2855
621	53.4901
621.5	53.8838
622	54.1711
622.5	54.1794
623	53.9237
623.5	53.6374
624	53.5717
624.5	53.8664
625	54.37
625.5	54.8125
626	54.8695
626.5	54.507
627	53.8267
627.5	53.0765
628	52.5048
628.5	52.265
629	52.3528
629.5	52.6457
630	53.0198
630.5	53.3228
631	53.4556
631.5	53.33
632	53.0259
632.5	52.6604
633	52.4123
633.5	52.3709
634	52.5163
634.5	52.6447
635	52.5395
635.5	51.9995
636	51.1616
636.5	50.2731
637	49.7017
637.5	49.6143
638	50.0488
638.5	50.7939
639	51.5661
639.5	52.1563
640	52.5326
640.5	52.7599
641	52.8694
641.5	52.8615
642	52.6629
642.5	52.2319
643	51.6737
643.5	51.1722
644	50.9257
644.5	50.9872
645	51.2659
645.5	51.4397
646	51.2082
646.5	50.3278
647	48.9926
647.5	47.5368
648	46.4686
648.5	46.1031
649	46.645
649.5	47.7802
650	49.0729
650.5	50.0169
651	50.4277
651.5	50.2888
652	49.7754
652.5	49.1784
653	48.6889
653.5	48.3919
654	48.2699
654.5	48.304
655	48.425
655.5	48.592
656	48.7631
656.5	48.9088
657	49.0334
657.5	49.1884
658	49.4302
658.5	49.787
659	50.1624
659.5	50.396
660	50.2379
660.5	49.6901
661	48.8825
661.5	48.1448
662	47.7704
662.5	47.9372
663	48.4937
663.5	49.095
664	49.3284
664.5	49.0439
665	48.3251
665.5	47.4781
666	46.9019
666.5	46.866
667	47.3888
667.5	48.1875
668	48.9272
668.5	49.3307
669	49.3305
669.5	48.9572
670	48.4562
670.5	47.9587
671	47.4918
671.5	46.968
672	46.2685
672.5	45.3995
673	44.5206
673.5	43.9302
674	43.8347
674.5	44.3015
675	45.2642
675.5	46.349
676	47.2378
676.5	47.6867
677	47.7233
677.5	47.4617
678	47.1493
678.5	46.9432
679	46.9006
679.5	46.9012
680	46.804
680.5	46.4717
681	45.9211
681.5	45.225
682	44.5537
682.5	44.0697
683	43.9682
683.5	44.2876
684	45.006
684.5	46.0456
685	47.1355
685.5	48.0302
686	48.4857
686.5	48.4554
687	47.923
687.5	47.0808
688	46.1456
688.5	45.3277
689	44.7417
689.5	44.4486
690	44.4849
690.5	44.7662
691	45.2505
691.5	45.8595
692	46.5207
692.5	47.2058
693	47.9055
693.5	48.6065
694	49.2224
694.5	49.6216
695	49.6206
695.5	49.0964
696	48.2044
696.5	47.2214
697	46.5407
697.5	46.3771
698	46.7567
698.5	47.2601
699	47.5048
699.5	47.2166
700	46.6024
700.5	46.0559
701	46.0335
701.5	46.6412
702	47.7218
702.5	48.7489
703	49.3206
703.5	49.1752
704	48.6389
704.5	48.06
705	47.7412
705.5	47.6355
706	47.4534
706.5	46.8493
707	45.7466
707.5	44.3319
708	43.1187
708.5	42.5139
709	42.7705
709.5	43.5552
710	44.4958
710.5	45.2259
711	45.6923
711.5	46.0855
712	46.7006
712.5	47.6289
713	48.6527
713.5	49.2918
714	49.1248
714.5	47.9837
715	46.3367
715.5	44.8473
716	44.2167
716.5	44.6778
717	46.1647
717.5	47.8934
718	49.1608
718.5	49.3603
719	48.7074
719.5	47.6645
720	46.9484
720.5	46.9473
721	47.7036
721.5	48.6693
722	49.2654
722.5	48.9537
723	47.9396
723.5	46.6248
724	45.6134
724.5	45.2297
725	45.55
725.5	46.2634
726	46.9779
726.5	47.3754
727	47.3978
727.5	47.1033
728	46.5782
728.5	45.9805
729	45.4251
729.5	45.0461
730	44.9068
730.5	45.0205
731	45.2377
731.5	45.3882
732	45.3291
732.5	45.1281
733	44.9202
733.5	44.848
734	44.8846
734.5	44.8822
735	44.6763
735.5	44.2877
736	43.9566
736.5	44.0222
737	44.6744
737.5	45.8989
738	47.2109
738.5	48.1315
739	48.2936
739.5	47.793
740	46.861
740.5	45.9008
741	45.1417
741.5	44.6795
742	44.4013
742.5	44.2538
743	44.262
743.5	44.4407
744	44.7822
744.5	45.1548
745	45.3939
745.5	45.3625
746	45.1342
746.5	44.8801
747	44.8341
747.5	45.0545
748	45.4762
748.5	45.8782
749	46.0411
749.5	45.7983
750	45.2022
750.5	44.4426
751	43.7899
751.5	43.4569
752	43.5538
752.5	44.0886
753	44.8239
753.5	45.5246
754	45.9533
754.5	46.0283
755	45.7236
755.5	45.2032
756	44.6248
756.5	44.1439
757	43.8429
757.5	43.8024
758	44.1022
758.5	44.7115
759	45.5748
759.5	46.4536
760	47.0502
760.5	46.9486
761	46.0855
761.5	44.5602
762	42.7081
762.5	41.071
763	40.1154
763.5	40.0968
764	40.864
764.5	42.2097
765	43.6873
765.5	44.9658
766	45.7176
766.5	45.9363
767	45.6149
767.5	44.8322
768	43.8145
768.5	42.7548
769	41.8803
769.5	41.3486
770	41.3607
770.5	41.8802
771	42.8343
771.5	44.07
772	45.2714
772.5	46.1248
773	46.3572
773.5	45.9704
774	45.0717
774.5	44.0795
775	43.3789
775.5	43.3423
776	43.8355
776.5	44.5962
777	45.1985
777.5	45.3786
778	45.0602
778.5	44.4705
779	43.9158
779.5	43.6515
780	43.6846
780.5	43.9064
781	44.1595
781.5	44.3316
782	44.3983
782.5	44.3974
783	44.3876
783.5	44.4054
784	44.4471
784.5	44.467
785	44.3455
785.5	44.0055
786	43.4285
786.5	42.7771
787	42.3947
787.5	42.7072
788	43.8964
788.5	45.6832
789	47.467
789.5	48.5069
790	48.3899
790.5	47.0082
791	45.1363
791.5	43.4814
792	42.6182
792.5	42.5067
793	42.8716
793.5	43.2526
794	43.4536
794.5	43.5457
795	43.7592
795.5	44.1826
796	44.6625
796.5	44.8879
797	44.5875
797.5	43.7723
798	42.7399
798.5	41.8649
799	41.393
799.5	41.3583
800	41.7063
800.5	42.2155
801	42.7818
801.5	43.3171
802	43.7319
802.5	43.861
803	43.5875
803.5	42.9234
804	41.9824
804.5	41.093
805	40.521
805.5	40.4491
806	40.7157
806.5	41.1054
807	41.3819
807.5	41.5026
808	41.6279
808.5	42.0335
809	42.8849
809.5	44.2083
810	45.6147
810.5	46.6855
811	47.0294
811.5	46.6837
812	45.838
812.5	44.9291
813	44.266
813.5	43.9939
814	43.9212
814.5	43.8481
815	43.6586
815.5	43.4638
816	43.5009
816.5	43.9852
817	44.8803
817.5	45.9915
818	46.9253
818.5	47.3784
819	47.0466
819.5	46.1291
820	44.8529
820.5	43.6023
821	42.7105
821.5	42.4349
822	42.7596
822.5	43.4562
823	44.2387
823.5	44.8128
824	45.0432
824.5	44.9031
825	44.5811
825.5	44.216
826	43.9231
826.5	43.7475
827	43.7459
827.5	43.9424
828	44.336
828.5	44.8931
829	45.4439
829.5	45.8309
830	45.9418
830.5	45.8648
831	45.7553
831.5	45.785
832	45.9843
832.5	46.2532
833	46.399
833.5	46.3094
834	45.978
834.5	45.5929
835	45.3203
835.5	45.2536
836	45.3341
836.5	45.4773
837	45.6237
837.5	45.8074
838	46.1444
838.5	46.6472
839	47.2204
839.5	47.6055
840	47.5898
840.5	47.0449
841	46.1588
841.5	45.3184
842	44.9841
842.5	45.2806
843	46.0361
843.5	46.8013
844	47.1105
844.5	46.7368
845	45.8574
845.5	44.9906
846	44.6663
846.5	45.0764
847	46.0303
847.5	47.1453
848	47.9811
848.5	48.3288
849	48.1633
849.5	47.7258
850	47.1822
850.5	46.6731
851	46.2677
851.5	46.0276
852	45.9244
852.5	45.8667
853	45.6589
853.5	45.1696
854	44.3654
854.5	43.4184
855	42.6169
855.5	42.2075
856	42.1819
856.5	42.3512
857	42.5224
857.5	42.6519
858	42.8728
858.5	43.3853
859	44.1319
859.5	44.8403
860	45.0925
860.5	44.7251
861	43.8353
861.5	42.9705
862	42.6041
862.5	43.0746
863	44.0103
863.5	44.9473
864	45.4113
864.5	45.3721
865	45.0653
865.5	44.9132
866	45.1153
866.5	45.6163
867	46.0472
867.5	46.1153
868	45.6755
868.5	44.9792
869	44.3206
869.5	43.9643
870	43.9354
870.5	44.1392
871	44.3534
871.5	44.4304
872	44.2672
872.5	43.9446
873	43.5732
873.5	43.3461
874	43.4218
874.5	43.9532
875	44.8846
875.5	45.9813
876	46.8914
876.5	47.3619
877	47.3347
877.5	46.9519
878	46.5691
878.5	46.3871
879	46.35
879.5	46.1718
880	45.5047
880.5	44.3408
881	42.9951
881.5	42.0947
882	42.0271
882.5	42.9036
883	44.4021
883.5	45.8514
884	46.7148
884.5	46.8371
885	46.4761
885.5	45.9932
886	45.7091
886.5	45.6974
887	45.8977
887.5	46.1694
888	46.5039
888.5	46.9572
889	47.5221
889.5	48.0714
890	48.38
890.5	48.3102
891	47.826
891.5	47.2313
892	46.812
892.5	46.7902
893	47.075
893.5	47.4834
894	47.795
894.5	47.9407
895	47.9517
895.5	47.9159
896	47.8225
896.5	47.5432
897	47.0319
897.5	46.3456
898	45.7277
898.5	45.4194
899	45.571
899.5	46.0018
900	46.3968
900.5	46.4053
901	45.9946
901.5	45.291
902	44.5671
902.5	44.0647
903	43.9272
903.5	44.1413
904	44.5759
904.5	45.0812
905	45.4483
905.5	45.5092
906	45.1042
906.5	44.4015
907	43.6551
907.5	43.227
908	43.2681
908.5	43.753
909	44.3566
909.5	44.7849
910	44.8857
910.5	44.8653
911	44.9844
911.5	45.44
912	46.0886
912.5	46.6487
913	46.8525
913.5	46.7201
914	46.4834
914.5	46.4834
915	46.8569
915.5	47.5091
916	48.0518
916.5	48.1667
917	47.7155
917.5	46.9306
918	46.112
918.5	45.5414
919	45.2853
919.5	45.2956
920	45.3809
920.5	45.4631
921	45.5951
921.5	45.8895
922	46.4429
922.5	47.1944
923	47.922
923.5	48.3197
924	48.2435
924.5	47.7596
925	47.0947
925.5	46.5886
926	46.4027
926.5	46.4622
927	46.4721
927.5	46.159
928	45.4913
928.5	44.695
929	44.1311
929.5	43.9986
930	44.2889
930.5	44.8363
931	45.3875
931.5	45.8501
932	46.2486
932.5	46.621
933	46.8791
933.5	46.8655
934	46.4876
934.5	45.7439
935	44.9224
935.5	44.2396
936	43.7734
936.5	43.3535
937	42.781
937.5	42.0541
938	41.4221
938.5	41.3228
939	41.887
939.5	42.9589
940	44.1014
940.5	44.8663
941	45.0761
941.5	44.9338
942	44.8576
942.5	45.1958
943	45.9759
943.5	47.0137
944	48.0878
944.5	49.0546
945	49.8822
945.5	50.5404
946	50.992
946.5	51.1376
947	51.0107
947.5	50.8094
948	50.8271
948.5	51.2042
949	51.8595
949.5	52.502
950	52.8527
950.5	52.847
951	52.7367
951.5	52.8949
952	53.5681
952.5	54.5592
953	55.4317
953.5	55.582
954	54.8868
954.5	53.4783
955	51.8105
955.5	50.4547
956	49.8391
956.5	50.0697
957	50.9067
957.5	52.0561
958	53.1004
958.5	53.7725
959	53.8587
959.5	53.5262
960	52.9842
960.5	52.5656
961	52.5063
961.5	52.9509
962	53.7664
962.5	54.7078
963	55.5086
963.5	56.0487
964	56.3272
964.5	56.4033
965	56.3558
965.5	56.1069
966	55.5223
966.5	54.5731
967	53.3406
967.5	52.172
968	51.4103
968.5	51.4127
969	52.0086
969.5	52.9459
970	53.8544
970.5	54.537
971	55.0165
971.5	55.5036
972	56.1389
972.5	56.8976
973	57.5553
973.5	57.9234
974	57.9451
974.5	57.859
975	57.9169
975.5	58.2466
976	58.7088
976.5	59.0057
977	58.9256
977.5	58.4826
978	57.8744
978.5	57.4484
979	57.4618
979.5	58.0632
980	59.1234
980.5	60.51
981	61.9637
981.5	63.2542
982	64.1569
982.5	64.7041
983	65.0462
983.5	65.4568
984	66.1277
984.5	67.0767
985	68.0708
985.5	68.8005
986	68.9737
986.5	68.6105
987	67.891
987.5	67.0448
988	66.3169
988.5	65.8711
989	65.8789
989.5	66.3576
990	67.3237
990.5	68.5768
991	69.8474
991.5	70.9163
992	71.8011
992.5	72.647
993	73.6018
993.5	74.5818
994	75.294
994.5	75.3878
995	74.8418
995.5	73.8239
996	72.7643
996.5	71.9054
997	71.2352
997.5	70.4852
998	69.5219
998.5	68.492
999	67.7169
999.5	67.4208
1000	67.4295
1000.5	67.3044
1001	66.5687
1001.5	65.2522
1002	63.7111
1002.5	62.5171
1003	61.9129
1003.5	61.8273
1004	61.8701
1004.5	61.6991
1005	61.246
1005.5	60.7919
1006	60.6502
1006.5	61.0726
1007	61.8344
1007.5	62.5839
1008	62.8635
1008.5	62.5074
1009	61.4802
1009.5	60.07
1010	58.6932
1010.5	57.7799
1011	57.4671
1011.5	57.6595
1012	58.1008
1012.5	58.427
1013	58.4462
1013.5	58.1375
1014	57.6496
1014.5	57.0926
1015	56.5709
1015.5	56.1914
1016	56.2147
1016.5	56.787
1017	57.9114
1017.5	59.2852
1018	60.3483
1018.5	60.6249
1019	60.0869
1019.5	59.2343
1020	58.7463
1020.5	58.9913
1021	59.8224
1021.5	60.6677
1022	60.939
1022.5	60.4444
1023	59.5538
1023.5	58.9737
1024	59.3157
1024.5	60.6071
1025	62.389
1025.5	64.0026
1026	65.0268
1026.5	65.3923
1027	65.2689
1027.5	65.0289
1028	64.8628
1028.5	64.8244
1029	64.8674
1029.5	64.9758
1030	65.1474
1030.5	65.3542
1031	65.4356
1031.5	65.1812
1032	64.3837
1032.5	63.0245
1033	61.4741
1033.5	60.2598
1034	59.7833
1034.5	60.0144
1035	60.6311
1035.5	61.0019
1036	60.714
1036.5	59.6015
1037	58.1031
1037.5	56.6962
1038	55.8302
1038.5	55.5921
1039	55.9188
1039.5	56.4466
1040	56.8544
1040.5	56.8164
1041	56.326
1041.5	55.4726
1042	54.5612
1042.5	53.9264
1043	53.8316
1043.5	54.269
1044	55.0046
1044.5	55.7507
1045	56.2707
1045.5	56.482
1046	56.3628
1046.5	56.0164
1047	55.4521
1047.5	54.6853
1048	53.7927
1048.5	52.877
1049	52.0662
1049.5	51.4277
1050	51.0167
1050.5	50.7915
1051	50.754
1051.5	50.8804
1052	51.0437
1052.5	51.0719
1053	50.8378
1053.5	50.4034
1054	50.0217
1054.5	50.0086
1055	50.5089
1055.5	51.4246
1056	52.2731
1056.5	52.5868
1057	52.0982
1057.5	51.0369
1058	49.7124
1058.5	48.5039
1059	47.5924
1059.5	47.097
1060	46.9353
1060.5	47.0935
1061	47.5449
1061.5	48.1242
1062	48.6334
1062.5	48.8684
1063	48.7806
1063.5	48.4142
1064	47.9834
1064.5	47.6385
1065	47.4615
1065.5	47.4101
1066	47.4752
1066.5	47.6759
1067	48.0056
1067.5	48.4193
1068	48.7659
1068.5	48.8931
1069	48.6395
1069.5	48.0959
1070	47.4079
1070.5	46.7983
1071	46.4346
1071.5	46.4355
1072	46.8255
1072.5	47.5398
1073	48.5423
1073.5	49.6726
1074	50.7738
1074.5	51.6489
1075	52.2286
1075.5	52.4629
1076	52.3533
1076.5	51.983
1077	51.3728
1077.5	50.6204
1078	49.8778
1078.5	49.3845
1079	49.2633
1079.5	49.5239
1080	49.9947
1080.5	50.33
1081	50.2282
1081.5	49.5972
1082	48.6693
1082.5	47.8408
1083	47.5163
1083.5	47.8785
1084	48.9805
1084.5	50.3555
1085	51.5605
1085.5	52.1732
1086	52.1484
1086.5	51.6175
1087	51.041
1087.5	50.8512
1088	51.4104
1088.5	52.5129
1089	53.7504
1089.5	54.5169
1090	54.5324
1090.5	53.7545
1091	52.5526
1091.5	51.4329
1092	50.775
1092.5	50.6773
1093	51.0978
1093.5	52.054
1094	53.3171
1094.5	54.6599
1095	55.6835
1095.5	56.1151
1096	55.836
1096.5	55.2063
1097	54.7952
1097.5	55.1392
1098	56.1274
1098.5	57.3645
1099	58.3099
1099.5	58.78
1100	58.8982
1100.5	59.0206
1101	59.3661
1101.5	59.9117
1102	60.4278
1102.5	60.7721
1103	60.9268
1103.5	61.0064
1104	60.9773
1104.5	60.6557
1105	59.9918
1105.5	59.1334
1106	58.5046
1106.5	58.4131
1107	58.9068
1107.5	59.4466
1108	59.4695
1108.5	58.5561
1109	57.1258
1109.5	55.8442
1110	55.344
1110.5	55.6006
1111	56.2078
1111.5	56.4838
1112	56.0703
1112.5	54.8917
1113	53.4894
1113.5	52.357
1114	51.9339
1114.5	52.1857
1115	52.9403
1115.5	53.7411
1116	54.1997
1116.5	53.9952
1117	53.2145
1117.5	52.093
1118	50.9489
1118.5	50.0099
1119	49.3203
1119.5	48.7871
1120	48.3144
1120.5	47.9831
1121	47.9799
1121.5	48.3873
1122	49.1683
1122.5	49.9636
1123	50.4415
1123.5	50.3376
1124	49.7816
1124.5	48.9874
1125	48.2697
1125.5	47.8242
1126	47.7948
1126.5	48.1443
1127	48.7962
1127.5	49.6755
1128	50.5893
1128.5	51.369
1129	51.8658
1129.5	52.0845
1130	52.0409
1130.5	51.7857
1131	51.2976
1131.5	50.4166
1132	49.1741
1132.5	47.7698
1133	46.6505
1133.5	46.1657
1134	46.5159
1134.5	47.4727
1135	48.5275
1135.5	49.1971
1136	49.3436
1136.5	49.1399
1137	48.9349
1137.5	49.0279
1138	49.5017
1138.5	50.2701
1139	51.1293
1139.5	51.8953
1140	52.3749
1140.5	52.4306
1141	51.9092
1141.5	51.0404
1142	50.1864
1142.5	49.8882
1143	50.3075
1143.5	51.2746
1144	52.2491
1144.5	52.7444
1145	52.4845
1145.5	51.7466
1146	50.9498
1146.5	50.5092
1147	50.4488
1147.5	50.6338
1148	50.8435
1148.5	50.986
1149	51.1337
1149.5	51.4123
1150	51.8623
1150.5	52.4451
1151	53.0167
1151.5	53.4742
1152	53.7761
1152.5	54.0376
1153	54.4494
1153.5	55.2222
1154	56.3886
1154.5	57.8929
1155	59.4522
1155.5	60.7892
1156	61.5924
1156.5	61.8792
1157	61.6936
1157.5	61.1547
1158	60.479
1158.5	59.854
1159	59.4655
1159.5	59.3895
1160	59.6224
1160.5	59.9179
1161	60.0243
1161.5	59.709
1162	59.0514
1162.5	58.1726
1163	57.1924
1163.5	56.1108
1164	54.8355
1164.5	53.4375
1165	52.172
1165.5	51.5113
1166	51.5712
1166.5	52.2353
1167	53.0665
1167.5	53.5815
1168	53.5119
1168.5	53.0003
1169	52.3182
1169.5	51.5865
1170	50.8034
1170.5	49.9638
1171	49.2364
1171.5	48.8725
1172	49.0649
1172.5	49.6727
1173	50.1681
1173.5	49.9622
1174	48.8953
1174.5	47.2494
1175	45.5273
1175.5	44.2129
1176	43.4987
1176.5	43.3653
1177	43.5394
1177.5	43.892
1178	44.3133
1178.5	44.699
1179	44.8991
1179.5	44.8655
1180	44.7039
1180.5	44.7307
1181	45.2071
1181.5	46.2201
1182	47.4853
1182.5	48.4696
1183	48.7468
1183.5	48.3995
1184	47.8653
1184.5	47.709
1185	48.1047
1185.5	48.8355
1186	49.3219
1186.5	49.1238
1187	48.0916
1187.5	46.6648
1188	45.397
1188.5	44.6747
1189	44.4081
1189.5	44.3086
1190	44.0883
1190.5	43.7438
1191	43.5092
1191.5	43.7721
1192	44.6173
1192.5	45.95
1193	47.3612
1193.5	48.4267
1194	48.6594
1194.5	48.0119
1195	46.5824
1195.5	44.6811
1196	42.9001
1196.5	41.7419
1197	41.4745
1197.5	41.9503
1198	42.96
1198.5	44.1104
1199	45.173
1199.5	46.022
1200	46.6938
1200.5	47.1635
1201	47.3589
1201.5	47.2676
1202	46.8849
1202.5	46.3501
1203	45.8385
1203.5	45.5135
1204	45.3896
1204.5	45.3998
1205	45.4032
1205.5	45.2746
1206	44.9368
1206.5	44.3806
1207	43.6785
1207.5	42.9142
1208	42.2283
1208.5	41.7651
1209	41.7926
1209.5	42.3507
1210	43.4103
1210.5	44.7594
1211	46.0018
1211.5	46.7396
1212	46.7725
1212.5	46.2213
1213	45.3324
1213.5	44.5293
1214	44.0376
1214.5	43.9155
1215	43.9522
1215.5	43.9724
1216	43.8615
1216.5	43.6537
1217	43.462
1217.5	43.4164
1218	43.5551
1218.5	43.824
1219	44.0512
1219.5	44.0907
1220	43.8515
1220.5	43.4443
1221	43.0537
1221.5	42.9107
1222	43.1207
1222.5	43.6921
1223	44.4397
1223.5	45.2123
1224	45.8833
1224.5	46.4142
1225	46.7667
1225.5	46.9024
1226	46.8254
1226.5	46.5345
1227	46.0964
1227.5	45.5618
1228	44.9238
1228.5	44.1964
1229	43.4243
1229.5	42.7732
1230	42.4589
1230.5	42.6827
1231	43.38
1231.5	44.2327
1232	44.7968
1232.5	44.7806
1233	44.1701
1233.5	43.1865
1234	42.33
1234.5	41.9314
1235	42.0474
1235.5	42.4235
1236	42.8352
1236.5	43.1762
1237	43.5186
1237.5	44.0107
1238	44.6346
1238.5	45.2013
1239	45.401
1239.5	45.1573
1240	44.5306
1240.5	43.7899
1241	43.1893
1241.5	42.8964
1242	42.8993
1242.5	43.1586
1243	43.7035
1243.5	44.4429
1244	45.2274
1244.5	45.7519
1245	45.8053
1245.5	45.3029
1246	44.5547
1246.5	44.004
1247	44.0337
1247.5	44.5369
1248	45.2317
1248.5	45.7468
1249	45.9467
1249.5	45.8834
1250	45.7295
1250.5	45.547
1251	45.19
1251.5	44.534
1252	43.6377
1252.5	42.8322
1253	42.5252
1253.5	42.9895
1254	44.1353
1254.5	45.3395
1255	46.0148
1255.5	45.8809
1256	45.1389
1256.5	44.2486
1257	43.764
1257.5	43.9555
1258	44.7309
1258.5	45.5401
1259	45.9171
1259.5	45.5823
1260	44.6793
1260.5	43.4956
1261	42.4737
1261.5	41.8877
1262	41.8663
1262.5	42.1589
1263	42.5787
1263.5	42.9737
1264	43.3177
1264.5	43.6597
1265	44.0419
1265.5	44.4268
1266	44.7112
1266.5	44.8581
1267	44.9193
1267.5	45.0382
1268	45.3175
1268.5	45.7522
1269	46.1695
1269.5	46.3851
1270	46.3053
1270.5	46.0548
1271	45.8032
1271.5	45.6431
1272	45.4504
1272.5	44.9745
1273	44.0077
1273.5	42.7182
1274	41.4437
1274.5	40.6341
1275	40.5078
1275.5	41.1534
1276	42.1881
1276.5	43.195
1277	43.7586
1277.5	43.8261
1278	43.4878
1278.5	43.0651
1279	42.9155
1279.5	43.3302
1280	44.2467
1280.5	45.3109
1281	46.0799
1281.5	46.3333
1282	46.0357
1282.5	45.2987
1283	44.3708
1283.5	43.3864
1284	42.524
1284.5	42.0127
1285	42.252
1285.5	43.2972
1286	44.895
1286.5	46.3987
1287	47.1064
1287.5	46.711
1288	45.4735
1288.5	44.0588
1289	42.9543
1289.5	42.2695
1290	41.8253
1290.5	41.505
1291	41.382
1291.5	41.6571
1292	42.4122
1292.5	43.2963
1293	43.8461
1293.5	43.7386
1294	43.1416
1294.5	42.5607
1295	42.4793
1295.5	43.0054
1296	43.9372
1296.5	44.7361
1297	45.0238
1297.5	44.6674
1298	44.034
1298.5	43.5171
1299	43.3842
1299.5	43.5954
1300	43.9168
1300.5	44.057
1301	43.9726
1301.5	43.9302
1302	44.1971
1302.5	44.7804
1303	45.2608
1303.5	45.145
1304	44.1072
1304.5	42.6478
1305	41.5844
1305.5	41.7634
1306	42.9904
1306.5	44.7318
1307	46.1187
1307.5	46.6271
1308	46.1337
1308.5	45.0527
1309	43.8243
1309.5	42.8369
1310	42.3285
1310.5	42.4132
1311	43.0287
1311.5	43.6559
1312	43.8461
1312.5	43.4865
1313	43.0067
1313.5	43.09
1314	44.051
1314.5	45.5395
1315	46.6156
1315.5	46.7078
1316	45.8271
1316.5	44.6425
1317	43.9685
1317.5	44.2405
1318	45.133
1318.5	46.0248
1319	46.468
1319.5	46.4726
1320	46.2314
1320.5	45.9869
1321	45.9146
1321.5	46.1031
1322	46.5368
1322.5	47.0383
1323	47.2989
1323.5	47.0563
1324	46.287
1324.5	45.2439
1325	44.424
1325.5	44.0887
1326	44.2325
1326.5	44.513
1327	44.6325
1327.5	44.4492
1328	44.0727
1328.5	43.669
1329	43.386
1329.5	43.2831
1330	43.3511
1330.5	43.422
1331	43.3054
1331.5	42.9295
1332	42.5109
1332.5	42.5136
1333	43.3377
1333.5	45.0094
1334	47.1731
1334.5	48.9481
1335	49.7398
1335.5	49.2385
1336	47.9122
1336.5	46.2705
1337	44.943
1337.5	44.2545
1338	44.3645
1338.5	45.0041
1339	45.8352
1339.5	46.4505
1340	46.6594
1340.5	46.512
1341	46.3018
1341.5	46.2556
1342	46.3848
1342.5	46.4567
1343	46.2534
1343.5	45.6695
1344	44.9953
1344.5	44.5021
1345	44.4324
1345.5	44.7705
1346	45.4987
1346.5	46.4889
1347	47.4751
1347.5	48.0233
1348	47.772
1348.5	46.5991
1349	44.6694
1349.5	42.8312
1350	41.8512
1350.5	42.1476
1351	43.3477
1351.5	44.9442
1352	46.3673
1352.5	47.4151
1353	48.1315
1353.5	48.666
1354	48.9174
1354.5	48.5817
1355	47.6272
1355.5	46.1914
1356	44.7796
1356.5	43.8244
1357	43.6267
1357.5	44.0919
1358	45.0335
1358.5	46.2519
1359	47.3235
1359.5	47.7839
1360	47.183
1360.5	45.6869
1361	43.8325
1361.5	42.6233
1362	42.6683
1362.5	43.9722
1363	45.5828
1363.5	46.7219
1364	46.9563
1364.5	46.7133
1365	46.4733
1365.5	46.3849
1366	46.1684
1366.5	45.5088
1367	44.5944
1367.5	43.9646
1368	44.2594
1368.5	45.1175
1369	45.8605
1369.5	45.7043
1370	44.6743
1370.5	43.3856
1371	42.8419
1371.5	43.3722
1372	44.7847
1372.5	46.2363
1373	47.1728
1373.5	47.4129
1374	47.4737
1374.5	47.7791
1375	48.4255
1375.5	49.1018
1376	49.3562
1376.5	48.9993
1377	48.2685
1377.5	47.6178
1378	47.334
1378.5	47.3885
1379	47.4568
1379.5	47.2253
1380	46.7114
1380.5	46.2959
1381	46.3226
1381.5	46.9535
1382	47.8147
1382.5	48.4275
1383	48.3804
1383.5	47.7828
1384	46.7947
1384.5	45.6285
1385	44.4539
1385.5	43.4749
1386	42.9598
1386.5	43.1195
1387	44.132
1387.5	45.5574
1388	46.8484
1388.5	47.4177
1389	47.258
1389.5	46.5569
1390	45.724
1390.5	45.0406
1391	44.6337
1391.5	44.4183
1392	44.3802
1392.5	44.6353
1393	45.2129
1393.5	46.1208
1394	47.1942
1394.5	48.1577
1395	48.7415
1395.5	48.8021
1396	48.3354
1396.5	47.3176
1397	46.049
1397.5	44.8035
1398	43.9291
1398.5	43.6059
1399	43.9745
1399.5	44.9098
1400	45.9923
1400.5	46.7729
1401	46.9597
1401.5	46.5153
1402	45.6115
1402.5	44.7915
1403	44.4356
1403.5	44.6964
1404	45.3187
1404.5	45.9533
1405	46.2347
1405.5	46.0849
1406	45.555
1406.5	44.9235
1407	44.4204
1407.5	44.3001
1408	44.5827
1408.5	45.1508
1409	45.691
1409.5	45.894
1410	45.5456
1410.5	44.8812
1411	44.3313
1411.5	44.313
1412	44.7151
1412.5	45.2058
1413	45.2847
1413.5	44.8047
1414	43.8965
1414.5	42.8839
1415	41.9848
1415.5	41.3295
1416	40.9461
1416.5	40.8763
1417	41.1443
1417.5	41.5366
1418	41.8205
1418.5	41.9002
1419	42.0267
1419.5	42.6027
1420	43.6871
1420.5	44.9477
1421	45.7315
1421.5	45.818
1422	45.5279
1422.5	45.4899
1423	46.0112
1423.5	46.9313
1424	47.6388
1424.5	47.7973
1425	47.4295
1425.5	46.9051
1426	46.3497
1426.5	45.5578
1427	44.422
1427.5	43.1912
1428	42.4791
1428.5	42.6448
1429	43.6404
1429.5	44.6341
1430	44.9721
1430.5	44.4358
1431	43.7015
1431.5	43.4315
1432	44.0283
1432.5	44.9597
1433	45.5651
1433.5	45.3689
1434	44.4632
1434.5	43.3012
1435	42.5642
1435.5	42.5627
1436	43.3133
1436.5	44.2312
1437	44.6635
1437.5	44.178
1438	43.0697
1438.5	42.0087
1439	41.8049
1439.5	42.8006
1440	44.7227
1440.5	46.4701
1441	47.2803
1441.5	46.8161
1442	45.7027
1442.5	44.7352
1443	44.4929
1443.5	44.9482
1444	45.8547
1444.5	46.7601
1445	47.3636
1445.5	47.3529
1446	46.653
1446.5	45.1918
1447	43.2867
1447.5	41.7255
1448	41.4123
1448.5	42.567
1449	44.6659
1449.5	46.6783
1450	47.5985
1450.5	47.2351
1451	46.1097
1451.5	45.1621
1452	44.9479
1452.5	45.377
1453	45.8124
1453.5	45.6867
1454	44.954
1454.5	43.9148
1455	43.107
1455.5	42.8319
1456	43.154
1456.5	43.9169
1457	44.7951
1457.5	45.4879
1458	45.8307
1458.5	45.8495
1459	45.6451
1459.5	45.4386
1460	45.3568
1460.5	45.3818
1461	45.3755
1461.5	45.2364
1462	44.986
1462.5	44.7755
1463	44.7668
1463.5	44.931
1464	45.1048
1464.5	45.0129
1465	44.5767
1465.5	43.9352
1466	43.4461
1466.5	43.3958
1467	43.9479
1467.5	44.889
1468	45.8057
1468.5	46.333
1469	46.4666
1469.5	46.4022
1470	46.49
1470.5	46.8451
1471	47.3117
1471.5	47.4958
1472	47.1005
1472.5	45.9636
1473	44.5077
1473.5	43.1719
1474	42.4039
1474.5	42.2147
1475	42.5196
1475.5	43.1675
1476	44.0694
1476.5	45.2754
1477	46.6956
1477.5	48.0406
1478	48.8576
1478.5	48.9859
1479	48.4951
1479.5	47.6585
1480	46.875
1480.5	46.2526
1481	45.6845
1481.5	45.0451
1482	44.3861
1482.5	43.952
1483	43.8933
1483.5	44.1963
1484	44.4877
1484.5	44.4241
1485	43.9474
1485.5	43.4118
1486	43.2421
1486.5	43.6646
1487	44.4821
1487.5	45.2528
1488	45.643
1488.5	45.6062
1489	45.3032
1489.5	45.04
1490	44.915
1490.5	44.8403
1491	44.6648
1491.5	44.2882
1492	43.8242
1492.5	43.4678
1493	43.4364
1493.5	43.6679
1494	43.8982
1494.5	43.6612
1495	42.8128
1495.5	41.5321
1496	40.5378
1496.5	40.5504
1497	41.933
1497.5	43.9992
1498	45.8375
1498.5	46.3982
1499	45.7886
1499.5	44.671
1500	43.9967
1500.5	44.2756
1501	45.6347
1501.5	47.3503
1502	48.7278
1502.5	49.0692
1503	48.3321
1503.5	46.7638
1504	45.0578
1504.5	43.888
1505	43.659
1505.5	44.2261
1506	44.9731
1506.5	45.3323
1507	45.1824
1507.5	44.717
1508	44.2659
1508.5	44.0028
1509	43.9079
1509.5	43.8926
1510	43.8941
1510.5	43.9014
1511	43.8812
1511.5	43.8378
1512	43.8184
1512.5	43.9031
1513	44.182
1513.5	44.6119
1514	45.0098
1514.5	45.0354
1515	44.4213
1515.5	43.3367
1516	42.276
1516.5	41.8919
1517	42.6477
1517.5	44.3865
1518	46.3863
1518.5	47.8487
1519	48.2103
1519.5	47.4351
1520	45.7457
1520.5	44.0127
1521	42.784
1521.5	42.2773
1522	42.3881
1522.5	42.7699
1523	43.0953
1523.5	43.1715
1524	42.9535
1524.5	42.548
1525	42.1241
1525.5	41.8797
1526	41.9748
1526.5	42.4129
1527	42.9183
1527.5	43.1112
1528	42.7942
1528.5	42.1021
1529	41.5546
1529.5	41.5429
1530	41.9825
1530.5	42.4524
1531	42.4664
1531.5	42.1026
1532	41.8808
1532.5	42.244
1533	43.2445
1533.5	44.2219
1534	44.5801
1534.5	44.2264
1535	43.5151
1535.5	43.0657
1536	43.0065
1536.5	43.1166
1537	43.2118
1537.5	43.4767
1538	44.4476
1538.5	46.2219
1539	48.3327
1539.5	49.7876
1540	49.453
1540.5	47.6166
1541	45.2184
1541.5	43.4749
1542	43.3703
1542.5	44.5295
1543	45.8767
1543.5	46.4666
1544	45.7683
1544.5	44.2751
1545	42.8937
1545.5	42.2139
1546	42.3821
1546.5	43.0058
1547	43.6824
1547.5	44.3294
1548	45.1308
1548.5	46.2119
1549	47.3562
1549.5	48.0601
1550	47.9341
1550.5	47.0116
1551	45.7601
1551.5	44.7276
1552	44.2208
1552.5	44.1896
1553	44.3995
1553.5	44.6942
1554	44.9805
1554.5	45.1322
1555	44.9935
1555.5	44.4747
1556	43.6558
1556.5	42.9051
1557	42.6071
1557.5	42.8786
1558	43.6089
1558.5	44.5049
1559	45.2128
1559.5	45.5858
1560	45.5919
1560.5	45.2795
1561	44.802
1561.5	44.3871
1562	44.1655
1562.5	44.1629
1563	44.3055
1563.5	44.5226
1564	44.8943
1564.5	45.5673
1565	46.6109
1565.5	47.755
1566	48.497
1566.5	48.4733
1567	47.6302
1567.5	46.3896
1568	45.3058
1568.5	44.7497
1569	44.6793
1569.5	44.7714
1570	44.7148
1570.5	44.3568
1571	43.758
1571.5	43.0784
1572	42.4289
1572.5	41.868
1573	41.4511
1573.5	41.2296
1574	41.1513
1574.5	41.0912
1575	40.888
1575.5	40.4508
1576	40.0637
1576.5	40.1403
1577	41.0043
1577.5	42.6967
1578	44.6176
1578.5	45.9482
1579	46.2271
1579.5	45.4416
1580	44.1449
1580.5	43.0706
1581	42.5582
1581.5	42.5595
1582	42.8293
1582.5	43.1898
1583	43.6667
1583.5	44.2918
1584	44.8986
1584.5	45.1682
1585	44.8973
1585.5	44.2305
1586	43.7981
1586.5	44.0827
1587	45.0364
1587.5	46.0908
1588	46.22
1588.5	45.0723
1589	43.1643
1589.5	41.4065
1590	40.7131
1590.5	41.3144
1591	42.311
1591.5	42.8727
1592	42.5521
1592.5	41.5832
1593	40.8253
1593.5	40.8576
1594	41.7466
1594.5	43.1099
1595	44.2749
1595.5	44.7235
1596	44.3403
1596.5	43.3464
1597	42.3016
1597.5	41.7518
1598	42.0536
1598.5	42.9965
1599	43.8893
1599.5	44.1518
1600	43.6135
1600.5	42.6674
1601	42.1674
1601.5	42.4534
1602	43.3078
1602.5	44.1293
1603	44.1974
1603.5	43.514
1604	42.5463
1604.5	41.814
1605	41.6551
1605.5	41.895
1606	42.1254
1606.5	42.0799
1607	41.7988
1607.5	41.6465
1608	42.0153
1608.5	43.0561
1609	44.4087
1609.5	45.3881
1610	45.4585
1610.5	44.4878
1611	42.9284
1611.5	41.7951
1612	41.6566
1612.5	42.4995
1613	43.7803
1613.5	44.5361
1614	44.324
1614.5	43.293
1615	41.8858
1615.5	40.6238
1616	39.834
1616.5	39.5967
1617	39.9144
1617.5	40.7866
1618	42.0117
1618.5	43.2133
1619	43.978
1619.5	44.1939
1620	44.1651
1620.5	44.3067
1621	44.8001
1621.5	45.4351
1622	45.7435
1622.5	45.6524
1623	45.4342
1623.5	45.4568
1624	45.7936
1624.5	45.8738
1625	45.2395
1625.5	43.9288
1626	42.6161
1626.5	42.2174
1627	43.0015
1627.5	44.3453
1628	45.3426
1628.5	45.4785
1629	44.9912
1629.5	44.5243
1630	44.5716
1630.5	44.9808
1631	45.2571
1631.5	45.0294
1632	44.2558
1632.5	43.4044
1633	43.0139
1633.5	43.3352
1634	44.2921
1634.5	45.4356
1635	46.0606
1635.5	45.8605
1636	45.0174
1636.5	44.1591
1637	43.972
1637.5	44.6444
1638	45.7212
1638.5	46.4818
1639	46.613
1639.5	46.3615
1640	46.1493
1640.5	46.1967
1641	46.157
1641.5	45.6453
1642	44.6025
1642.5	43.3207
1643	42.2986
1643.5	41.762
1644	41.6658
1644.5	41.9944
1645	42.8568
1645.5	44.1697
1646	45.4843
1646.5	46.0922
1647	45.5231
1647.5	44.1627
1648	42.8624
1648.5	42.3978
1649	42.9735
1649.5	43.8502
1650	44.4459
1650.5	44.6937
1651	44.9924
1651.5	45.8579
1652	47.1738
1652.5	48.4415
1653	49.2315
1653.5	49.4205
1654	49.2417
1654.5	48.7793
1655	47.8708
1655.5	46.2699
1656	44.1956
1656.5	42.2233
1657	41.0564
1657.5	41.2418
1658	42.3798
1658.5	43.8078
1659	44.8915
1659.5	45.1496
1660	44.4174
1660.5	42.9488
1661	41.2593
1661.5	39.9765
1662	39.6853
1662.5	40.421
1663	41.7367
1663.5	42.8386
1664	43.1724
1664.5	42.931
1665	42.614
1665.5	42.6674
1666	43.1428
1666.5	43.5432
1667	43.5818
1667.5	43.338
1668	43.1667
1668.5	43.3155
1669	43.5778
1669.5	43.5329
1670	42.9765
1670.5	42.1727
1671	41.5894
1671.5	41.5049
1672	41.8598
1672.5	42.2945
1673	42.6339
1673.5	42.8915
1674	43.0938
1674.5	43.1087
1675	42.765
1675.5	42.1862
1676	41.747
1676.5	41.8657
1677	42.4852
1677.5	43.1064
1678	43.1387
1678.5	42.5151
1679	41.8579
1679.5	41.7997
1680	42.5163
1680.5	43.5778
1681	44.1252
1681.5	43.9456
1682	43.4352
1682.5	43.2137
1683	43.6132
1683.5	44.2253
1684	44.3739
1684.5	43.7957
1685	42.9629
1685.5	42.7206
1686	43.4651
1686.5	44.8914
1687	45.9179
1687.5	45.6772
1688	44.2708
1688.5	42.415
1689	41.0427
1689.5	40.6443
1690	40.9979
1690.5	41.5942
1691	42.1617
1691.5	42.7554
1692	43.4711
1692.5	44.2023
1693	44.6255
1693.5	44.4743
1694	43.9732
1694.5	43.5033
1695	43.3749
1695.5	43.6247
1696	43.9014
1696.5	43.8495
1697	43.3617
1697.5	42.5579
1698	41.7151
1698.5	41.0481
1699	40.6874
1699.5	40.7206
1700	41.0828
1700.5	41.6128
1701	42.081
1701.5	42.2365
1702	41.9582
1702.5	41.4649
1703	41.1916
1703.5	41.5106
1704	42.497
1704.5	43.6988
1705	44.5533
1705.5	44.6447
1706	44.0427
1706.5	43.3926
1707	43.1319
1707.5	43.3219
1708	43.6319
1708.5	43.6354
1709	43.3212
1709.5	43.0948
1710	43.3826
1710.5	44.1769
1711	44.9891
1711.5	45.2747
1712	44.759
1712.5	43.8366
1713	43.1844
1713.5	43.1119
1714	43.4714
1714.5	43.7149
1715	43.4014
1715.5	42.5647
1716	41.6725
1716.5	41.2186
1717	41.258
1717.5	41.5081
1718	41.6428
1718.5	41.5613
1719	41.5841
1719.5	42.0131
1720	42.8461
1720.5	43.7407
1721	44.1672
1721.5	43.8747
1722	42.9958
1722.5	42.0639
1723	41.7043
1723.5	42.1545
1724	43.2594
1724.5	44.5302
1725	45.2357
1725.5	44.9241
1726	43.7179
1726.5	42.0726
1727	40.6106
1727.5	39.7946
1728	39.7639
1728.5	40.4231
1729	41.4383
1729.5	42.2468
1730	42.4231
1730.5	41.8434
1731	40.838
1731.5	40.2174
1732	40.642
1732.5	42.0618
1733	43.6878
1733.5	44.5021
1734	44.1767
1734.5	43.084
1735	41.9843
1735.5	41.6216
1736	41.9662
1736.5	42.6041
1737	43.1264
1737.5	43.2435
1738	42.8838
1738.5	42.1125
1739	41.148
1739.5	40.4475
1740	40.449
1740.5	41.1803
1741	42.2826
1741.5	43.1581
1742	43.3314
1742.5	42.896
1743	42.3144
1743.5	42.0238
1744	42.2386
1744.5	42.8722
1745	43.799
1745.5	44.8652
1746	45.7705
1746.5	46.0954
1747	45.6241
1747.5	44.5042
1748	43.2955
1748.5	42.6583
1749	42.7762
1749.5	43.3155
1750	43.622
1750.5	43.3955
1751	42.9197
1751.5	42.6285
1752	42.7601
1752.5	43.0995
1753	43.2079
1753.5	42.917
1754	42.4855
1754.5	42.3496
1755	42.646
1755.5	43.1794
1756	43.5915
1756.5	43.5445
1757	42.9916
1757.5	42.1118
1758	41.1424
1758.5	40.3821
1759	40.0792
1759.5	40.257
1760	40.6908
1760.5	40.9548
1761	40.7724
1761.5	40.352
1762	40.0789
1762.5	40.2451
1763	40.8117
1763.5	41.4786
1764	42.0818
1764.5	42.6766
1765	43.3291
1765.5	43.7879
1766	43.6829
1766.5	42.8718
1767	41.7232
1767.5	41.027
1768	41.2398
1768.5	42.0672
1769	42.7001
1769.5	42.5213
1770	41.614
1770.5	40.4753
1771	39.6596
1771.5	39.3944
1772	39.5254
1772.5	39.8949
1773	40.475
1773.5	41.2439
1774	42.0162
1774.5	42.5409
1775	42.6272
1775.5	42.2117
1776	41.4473
1776.5	40.4629
1777	39.3997
1777.5	38.5179
1778	38.116
1778.5	38.3055
1779	38.9235
1779.5	39.5709
1780	39.9331
1780.5	40.0846
1781	40.2253
1781.5	40.4506
1782	40.6306
1782.5	40.643
1783	40.6022
1783.5	40.8551
1784	41.6543
1784.5	42.7308
1785	43.6505
1785.5	44.0999
1786	44.0687
1786.5	43.8481
1787	43.5929
1787.5	43.2645
1788	42.7788
1788.5	42.2467
1789	41.8361
1789.5	41.5917
1790	41.4028
1790.5	41.182
1791	41.079
1791.5	41.338
1792	41.9253
1792.5	42.3298
1793	42.0912
1793.5	41.2504
1794	40.3738
1794.5	40.2303
1795	40.8761
1795.5	41.6977
1796	41.9333
1796.5	41.3898
1797	40.6986
1797.5	40.4538
1798	40.7777
1798.5	41.2272
1799	41.1972
1799.5	40.5644
1800	39.6599
1800.5	38.9407
1801	38.6157
1801.5	38.663
1802	39.0544
1802.5	39.7477
1803	40.4832
1803.5	40.7326
1804	40.0203
1804.5	38.4183
1805	36.6944
1805.5	35.7932
1806	36.1304
1806.5	37.5195
1807	39.3909
1807.5	41.2413
1808	42.9486
1808.5	44.4283
1809	45.3005
1809.5	45.0856
1810	43.7579
1810.5	41.8368
1811	40.1959
1811.5	39.4671
1812	39.4698
1812.5	39.6423
1813	39.6004
1813.5	39.5918
1814	40.1207
1814.5	41.3543
1815	42.9564
1815.5	44.1952
1816	44.6268
1816.5	44.3492
1817	43.8473
1817.5	43.6494
1818	43.8293
1818.5	44.1062
1819	44.1097
1819.5	43.578
1820	42.602
1820.5	41.5085
1821	40.5949
1821.5	39.9521
1822	39.364
1822.5	38.6672
1823	37.9807
1823.5	37.6784
1824	38.1719
1824.5	39.3816
1825	40.89
1825.5	42.1646
1826	42.8075
1826.5	42.915
1827	42.6415
1827.5	42.1121
1828	41.4483
1828.5	40.8423
1829	40.4155
1829.5	40.0964
1830	39.6199
1830.5	38.8735
1831	38.2894
1831.5	38.4595
1832	39.6266
1832.5	41.1592
1833	42.0147
1833.5	41.6946
1834	40.6273
1834.5	40.0593
1835	40.7467
1835.5	42.2029
1836	43.267
1836.5	42.9798
1837	41.668
1837.5	40.2804
1838	39.667
1838.5	40.0903
1839	40.9705
1839.5	41.5951
1840	41.5212
1840.5	40.7665
1841	39.8
1841.5	39.227
1842	39.4731
1842.5	40.5575
1843	41.8836
1843.5	42.6618
1844	42.5397
1844.5	41.798
1845	41.2373
1845.5	41.2381
1846	41.5278
1846.5	41.5676
1847	41.0234
1847.5	40.2194
1848	39.6553
1848.5	39.5692
1849	39.7285
1849.5	39.6043
1850	39.049
1850.5	38.3863
1851	38.139
1851.5	38.5379
1852	39.2353
1852.5	39.6924
1853	39.5799
1853.5	39.2018
1854	39.3129
1854.5	40.3621
1855	42.0008
1855.5	43.1073
1856	42.9804
1856.5	41.9022
1857	40.8516
1857.5	40.8085
1858	41.5835
1858.5	42.1566
1859	41.6028
1859.5	39.8477
1860	38.0481
1860.5	37.2008
1861	37.4374
1861.5	38.1647
1862	38.6343
1862.5	38.7005
1863	38.6497
1863.5	38.8148
1864	39.2647
1864.5	39.8186
1865	40.3978
1865.5	41.0784
1866	41.9355
1866.5	42.7864
1867	43.3113
1867.5	43.2401
1868	42.5235
1868.5	41.5436
1869	40.7996
1869.5	40.6614
1870	41.1684
1870.5	41.8247
1871	42.0591
1871.5	41.6788
1872	40.9851
1872.5	40.6388
1873	40.9892
1873.5	41.8639
1874	42.7169
1874.5	42.9982
1875	42.7513
1875.5	42.4015
1876	42.4062
1876.5	42.8366
1877	43.2292
1877.5	43.1043
1878	42.2388
1878.5	40.8056
1879	39.377
1879.5	38.4374
1880	38.1743
1880.5	38.4041
1881	38.6249
1881.5	38.4709
1882	37.9732
1882.5	37.5064
1883	37.5464
1883.5	38.2067
1884	39.2667
1884.5	40.3236
1885	40.9969
1885.5	41.2155
1886	41.071
1886.5	40.7005
1887	40.2159
1887.5	39.7273
1888	39.3198
1888.5	39.0289
1889	38.8198
1889.5	38.6342
1890	38.5125
1890.5	38.5884
1891	38.9957
1891.5	39.6687
1892	40.3323
1892.5	40.708
1893	40.6566
1893.5	40.2856
1894	39.8356
1894.5	39.4503
1895	39.2051
1895.5	39.1837
1896	39.4521
1896.5	40.0214
1897	40.7679
1897.5	41.4095
1898	41.6818
1898.5	41.533
1899	41.1275
1899.5	40.7732
1900	40.6548
1900.5	40.6544
1901	40.4898
1901.5	39.8902
1902	38.866
1902.5	37.7623
1903	37.0024
1903.5	36.9345
1904	37.707
1904.5	39.1445
1905	40.9684
1905.5	42.7679
1906	43.9613
1906.5	44.2501
1907	43.6981
1907.5	42.6995
1908	41.7687
1908.5	41.1435
1909	40.7146
1909.5	40.2961
1910	39.8282
1910.5	39.4028
1911	39.0388
1911.5	38.6421
1912	38.1789
1912.5	37.9469
1913	38.3136
1913.5	39.2812
1914	40.3125
1914.5	40.5074
1915	39.567
1915.5	37.9706
1916	36.6919
1916.5	36.6854
1917	37.8585
1917.5	39.4764
1918	40.7044
1918.5	41.1278
1919	41.1473
1919.5	41.3221
1920	41.8051
1920.5	42.2509
1921	42.1897
1921.5	41.6528
1922	41.095
1922.5	41.0357
1923	41.5244
1923.5	42.0304
1924	42.0344
1924.5	41.3622
1925	40.2649
1925.5	39.1172
1926	38.0774
1926.5	37.2518
1927	36.9258
1927.5	37.3238
1928	38.3273
1928.5	39.4476
1929	40.094
1929.5	40.1923
1930	40.187
1930.5	40.5231
1931	41.1988
1931.5	41.5566
1932	40.9479
1932.5	39.2738
1933	37.1643
1933.5	35.8678
1934	36.1092
1934.5	37.7016
1935	39.6487
1935.5	40.5646
1936	40.0088
1936.5	38.5963
1937	37.4667
1937.5	37.4603
1938	38.0677
1938.5	38.1714
1939	36.9875
1939.5	34.6762
1940	32.3789
1940.5	30.9731
1941	30.6458
1941.5	31.0793
1942	31.9769
1942.5	33.3533
1943	35.2123
1943.5	37.2447
1944	38.801
1944.5	39.4585
1945	39.23
1945.5	38.5015
1946	37.854
1946.5	37.6834
1947	38.0514
1947.5	38.7288
1948	39.2481
1948.5	39.2156
1949	38.6323
1949.5	37.9036
1950	37.6622
1950.5	38.2067
1951	39.2203
1951.5	40.0782
1952	40.2142
1952.5	39.6288
1953	38.9251
1953.5	38.7159
1954	39.2461
1954.5	40.1622
1955	40.8645
1955.5	41.1297
1956	41.1716
1956.5	41.3927
1957	41.7633
1957.5	41.8238
1958	41.1394
1958.5	39.8609
1959	38.8639
1959.5	38.8345
1960	39.778
1960.5	40.9398
1961	41.3165
1961.5	40.6338
1962	39.3542
1962.5	38.3525
1963	38.3257
1963.5	39.2099
1964	40.5254
1964.5	41.6645
1965	42.0959
1965.5	41.6414
1966	40.3346
1966.5	38.4881
1967	36.8264
1967.5	36.171
1968	36.8464
1968.5	38.5117
1969	40.2229
1969.5	41.0497
1970	40.8008
1970.5	39.8848
1971	38.9817
1971.5	38.5667
1972	38.6462
1972.5	39.0242
1973	39.4742
1973.5	39.8299
1974	40.0471
1974.5	40.1811
1975	40.3498
1975.5	40.6207
1976	40.8469
1976.5	40.7893
1977	40.3198
1977.5	39.6124
1978	39.069
1978.5	38.914
1979	39.1239
1979.5	39.5209
1980	39.9594
1980.5	40.4204
1981	40.8755
1981.5	41.1797
1982	41.124
1982.5	40.6847
1983	40.0739
1983.5	39.6836
1984	39.8679
1984.5	40.5417
1985	41.2931
1985.5	41.6031
1986	41.179
1986.5	40.3867
1987	39.7702
1987.5	39.6697
1988	39.9574
1988.5	40.1704
1989	40.1666
1989.5	40.1548
1990	40.4342
1990.5	40.9459
1991	41.374
1991.5	41.5663
1992	41.737
1992.5	42.2664
1993	43.1101
1993.5	43.807
1994	43.8167
1994.5	43.0069
1995	41.8701
1995.5	40.9106
1996	40.3649
1996.5	40.1556
1997	40.0834
1997.5	40.1167
1998	40.2854
1998.5	40.5322
1999	40.6547
1999.5	40.5102
2000	40.1319
2000.5	39.7492
2001	39.6367
2001.5	39.8749
2002	40.3468
2002.5	40.8078
2003	41.0598
2003.5	41.1557
2004	41.2817
2004.5	41.5658
2005	41.86
2005.5	41.8335
2006	41.343
2006.5	40.6086
2007	40.1627
2007.5	40.2504
2008	40.5696
2008.5	40.5294
2009	39.7292
2009.5	38.599
2010	37.9566
2010.5	38.3499
2011	39.6443
2011.5	40.9678
2012	41.6063
2012.5	41.417
2013	40.7384
2013.5	40.0517
2014	39.5555
2014.5	39.253
2015	39.151
2015.5	39.2916
2016	39.5528
2016.5	39.6857
2017	39.4792
2017.5	38.9812
2018	38.5977
2018.5	38.6923
2019	39.3642
2019.5	40.3446
2020	41.0597
2020.5	41.0502
2021	40.1505
2021.5	38.6026
2022	37.1154
2022.5	36.3449
2023	36.5183
2023.5	37.3117
2024	37.9762
2024.5	38.046
2025	37.6069
2025.5	37.1036
2026	36.961
2026.5	37.1115
2027	37.2598
2027.5	37.2151
2028	37.1096
2028.5	37.2733
2029	37.8218
2029.5	38.5672
2030	39.1135
2030.5	39.1878
2031	38.839
2031.5	38.2962
2032	37.8298
2032.5	37.6318
2033	37.7571
2033.5	38.168
2034	38.7065
2034.5	39.0802
2035	39.0962
2035.5	38.8249
2036	38.6057
2036.5	38.9114
2037	39.8195
2037.5	41.02
2038	42.0066
2038.5	42.325
2039	41.9638
2039.5	41.1745
2040	40.2689
2040.5	39.5095
2041	39.0008
2041.5	38.6664
2042	38.3355
2042.5	37.8544
2043	37.3042
2043.5	37.0402
2044	37.4339
2044.5	38.6095
2045	40.2062
2045.5	41.5351
2046	42.0982
2046.5	41.7631
2047	40.7738
2047.5	39.641
2048	38.6908
2048.5	38.1014
2049	38.0248
2049.5	38.5742
2050	39.7263
2050.5	41.1279
2051	42.0053
2051.5	41.6256
2052	40.085
2052.5	38.2275
2053	37.1829
2053.5	37.4408
2054	38.3604
2054.5	39.1403
2055	39.4898
2055.5	39.8412
2056	40.5288
2056.5	41.1761
2057	41.0643
2057.5	39.8736
2058	38.4207
2058.5	37.6639
2059	38.0289
2059.5	39.202
2060	40.4454
2060.5	41.3223
2061	41.6225
2061.5	41.1796
2062	40.052
2062.5	38.7237
2063	37.8293
2063.5	37.7248
2064	38.0417
2064.5	38.0769
2065	37.5574
2065.5	36.7677
2066	36.2994
2066.5	36.4353
2067	37.1854
2067.5	38.4765
2068	40.1237
2068.5	41.5414
2069	42.0564
2069.5	41.388
2070	40.0348
2070.5	39.0686
2071	38.9517
2071.5	39.3309
2072	39.4588
2072.5	39.0354
2073	38.4683
2073.5	38.1759
2074	38.1794
2074.5	38.174
2075	38.1513
2075.5	38.5093
2076	39.6828
2076.5	41.7593
2077	44.2735
2077.5	46.8244
2078	49.1499
2078.5	50.973
2079	51.9617
2079.5	51.852
2080	50.6455
2080.5	48.6452
2081	46.388
2081.5	44.2882
2082	42.6082
2082.5	41.4525
2083	40.623
2083.5	39.7555
2084	38.7173
2084.5	37.8331
2085	37.778
2085.5	38.6705
2086	39.9376
2086.5	40.7493
2087	40.7509
2087.5	40.5821
2088	40.7982
2088.5	41.2565
2089	41.1267
2089.5	40.0574
2090	38.7364
2090.5	38.1658
2091	38.7042
2091.5	39.4432
2092	39.4475
2092.5	38.7168
2093	38.1327
2093.5	38.52
2094	39.599
2094.5	40.6132
2095	41.0864
2095.5	41.2364
2096	41.4712
2096.5	41.7223
2097	41.6231
2097.5	41.0108
2098	40.3685
2098.5	40.1739
2099	40.4482
2099.5	40.6581
2100	40.2631
2100.5	39.3218
2101	38.3394
2101.5	37.9212
2102	38.264
2102.5	39.0885
2103	40.01
2103.5	40.7228
2104	41.0796
2104.5	41.0551
2105	40.629
2105.5	39.8444
2106	38.9064
2106.5	38.1343
2107	37.7171
2107.5	37.6413
2108	37.7615
2108.5	38.0007
2109	38.4462
2109.5	39.1311
2110	39.7869
2110.5	39.8631
2111	39.0482
2111.5	37.5251
2112	35.9591
2112.5	35.0799
2113	35.0063
2113.5	35.3637
2114	35.6294
2114.5	35.6396
2115	35.8233
2115.5	36.7143
2116	38.4943
2116.5	40.6411
2117	42.1677
2117.5	42.4511
2118	41.5196
2118.5	40.0622
2119	38.9941
2119.5	38.7199
2120	39.1525
2120.5	39.8937
2121	40.5174
2121.5	40.8353
2122	40.799
2122.5	40.4078
2123	39.735
2123.5	38.9752
2124	38.3806
2124.5	38.1541
2125	38.2885
2125.5	38.5701
2126	38.8898
2126.5	39.328
2127	40.034
2127.5	40.7935
2128	41.1
2128.5	40.5241
2129	39.1542
2129.5	37.8192
2130	37.2068
2130.5	37.4177
2131	37.9473
2131.5	38.2
2132	38.1673
2132.5	38.2145
2133	38.6218
2133.5	39.1157
2134	39.1243
2134.5	38.3917
2135	37.2674
2135.5	36.6592
2136	37.135
2136.5	38.5071
2137	39.9757
2137.5	40.5542
2138	40.0585
2138.5	38.9396
2139	37.8449
2139.5	37.2306
2140	37.1061
2140.5	37.3279
2141	37.7714
2141.5	38.3342
2142	38.9597
2142.5	39.7343
2143	40.7793
2143.5	41.959
2144	42.6087
2144.5	42.1274
2145	40.5958
2145.5	38.8687
2146	38.0051
2146.5	37.996
2147	38.1288
2147.5	37.8813
2148	37.6587
2148.5	38.2706
2149	39.6271
2149.5	40.7188
2150	40.4123
2150.5	38.96
2151	37.581
2151.5	37.2216
2152	37.8558
2152.5	38.5788
2153	38.8355
2153.5	38.711
2154	38.5202
2154.5	38.3095
2155	37.9169
2155.5	37.4112
2156	37.174
2156.5	37.6356
2157	38.6676
2157.5	39.8075
2158	40.5478
2158.5	40.566
2159	40.0039
2159.5	39.1854
2160	38.4639
2160.5	38.0897
2161	38.0409
2161.5	38.1675
2162	38.3701
2162.5	38.613
2163	38.7916
2163.5	38.7337
2164	38.4172
2164.5	38.1271
2165	38.2928
2165.5	38.8136
2166	39.1245
2166.5	38.7092
2167	37.7155
2167.5	36.991
2168	37.0304
2168.5	37.6291
2169	38.0824
2169.5	38.0398
2170	37.7707
2170.5	37.673
2171	37.8714
2171.5	38.1562
2172	38.3978
2172.5	38.6102
2173	38.772
2173.5	38.7245
2174	38.4069
2174.5	37.9396
2175	37.4841
2175.5	37.0464
2176	36.5757
2176.5	36.1993
2177	36.1438
2177.5	36.4238
2178	36.6316
2178.5	36.4985
2179	36.2002
2179.5	36.2764
2180	36.9438
2180.5	37.9366
2181	38.904
2181.5	39.6795
2182	40.1855
2182.5	40.1566
2183	39.3129
2183.5	37.7747
2184	36.3219
2184.5	35.6591
2185	35.8511
2185.5	36.3882
2186	36.6241
2186.5	36.4456
2187	36.18
2187.5	36.3254
2188	37.3339
2188.5	39.0128
2189	40.6366
2189.5	41.2913
2190	40.5315
2190.5	39.2594
2191	38.7062
2191.5	39.2735
2192	40.1538
2192.5	40.1375
2193	39.2113
2193.5	38.3123
2194	38.3213
2194.5	38.9165
2195	38.9464
2195.5	37.8662
2196	36.2257
2196.5	35.3489
2197	35.7918
2197.5	37.0337
2198	38.0458
2198.5	38.0581
2199	37.4104
2199.5	36.8594
2200	36.8991
2200.5	37.377
2201	37.6773
2201.5	37.5991
2202	37.4588
2202.5	37.6742
2203	38.1797
2203.5	38.5867
2204	38.7768
2204.5	39.0055
2205	39.4431
2205.5	39.7052
2206	39.4061
2206.5	38.7836
2207	38.8323
2207.5	39.9969
2208	41.6033
2208.5	42.4549
2209	41.8513
2209.5	40.4837
2210	39.1326
2210.5	37.877
2211	36.1003
2211.5	33.4827
2212	30.4543
2212.5	27.6924
2213	25.8063
2213.5	25.2672
2214	26.3486
2214.5	29.0056
2215	32.5948
2215.5	35.964
2216	38.3767
2216.5	39.7336
2217	40.2066
2217.5	39.8576
2218	38.9026
2218.5	37.798
2219	37.1574
2219.5	37.42
2220	38.4191
2220.5	39.8099
2221	41.1988
2221.5	41.9557
2222	41.4529
2222.5	39.8258
2223	38.0108
2223.5	37.1239
2224	37.1853
2224.5	37.0376
2225	35.8172
2225.5	33.5692
2226	30.5957
2226.5	26.1737
2227	19.1743
2227.5	9.99705
2228	2.26406
2228.5	0
2229	3.84213
2229.5	10.9992
2230	17.3265
2230.5	21.2035
2231	23.8615
2231.5	26.7338
2232	29.7777
2232.5	31.7128
2233	32.2021
2233.5	32.1799
2234	32.9495
2234.5	34.8262
2235	36.8896
2235.5	38.2132
2236	38.4778
2236.5	38.1803
2237	38.0143
2237.5	38.1021
2238	37.9196
2238.5	36.5755
2239	34.1464
2239.5	31.7106
2240	30.463
2240.5	30.5357
2241	30.4937
2241.5	29.4533
2242	28.2097
2242.5	28.7774
2243	31.9293
2243.5	35.8245
2244	38.2571
2244.5	38.6242
2245	38.473
2245.5	39.1329
2246	40.2253
2246.5	40.5271
2247	39.6128
2247.5	38.6794
2248	38.7022
2248.5	39.5523
2249	40.215
2249.5	40.214
2250	39.9875
2250.5	40.0369
2251	40.2342
2251.5	40.032
2252	39.3272
2252.5	38.5163
2253	38.1848
2253.5	38.6371
2254	39.6648
2254.5	40.7418
2255	41.1477
2255.5	40.3592
2256	38.7557
2256.5	37.2607
2257	36.8278
2257.5	37.7449
2258	39.2121
2258.5	40.3652
2259	40.6487
2259.5	39.9992
2260	38.9812
2260.5	38.2211
2261	38.0994
2261.5	38.5303
2262	38.9847
2262.5	39.1496
2263	39.116
2263.5	39.128
2264	39.0974
2264.5	38.7023
2265	37.9215
2265.5	37.2195
2266	37.2461
2266.5	38.0169
2267	39.0455
2267.5	39.7344
2268	39.7167
2268.5	39.1681
2269	38.4316
2269.5	37.874
2270	37.6846
2270.5	37.5766
2271	37.1778
2271.5	36.474
2272	35.9904
2272.5	36.2339
2273	36.8789
2273.5	37.1216
2274	36.5128
2274.5	35.7785
2275	35.9558
2275.5	37.0953
2276	38.0938
2276.5	37.7854
2277	36.6545
2277.5	35.944
2278	36.4102
2278.5	37.5219
2279	38.0864
2279.5	37.882
2280	37.6663
2280.5	38.3945
2281	39.799
2281.5	40.6327
2282	39.8914
2282.5	37.7543
2283	35.7833
2283.5	35.3418
2284	36.6336
2284.5	38.6525
2285	39.9283
2285.5	40.0719
2286	39.6208
2286.5	39.1696
2287	38.4981
2287.5	37.03
2288	35.1215
2288.5	34.0839
2289	35.2244
2289.5	37.7599
2290	39.8527
2290.5	40.231
2291	39.3301
2291.5	38.9577
2292	39.9282
2292.5	41.6019
2293	42.6057
2293.5	42.3544
2294	41.3307
2294.5	40.0993
2295	38.9658
2295.5	38.1638
2296	38.0041
2296.5	38.5787
2297	39.4152
2297.5	39.5174
2298	38.4577
2298.5	36.7748
2299	35.4533
2299.5	35.2216
2300	35.8031
2300.5	36.5749
2301	37.1399
2301.5	37.5526
2302	38.0562
2302.5	38.5339
2303	38.554
2303.5	37.7753
2304	36.591
2304.5	35.7823
2305	35.8033
2305.5	36.4972
2306	37.2271
2306.5	37.593
2307	37.6446
2307.5	37.6107
2308	37.6417
2308.5	37.7717
2309	38.0499
2309.5	38.4489
2310	38.6676
2310.5	38.3002
2311	37.3241
2311.5	36.2257
2312	35.8122
2312.5	36.4994
2313	37.9195
2313.5	39.2696
2314	39.7455
2314.5	39.1036
2315	37.8662
2315.5	36.8003
2316	36.5083
2316.5	36.9671
2317	37.516
2317.5	37.6901
2318	37.5766
2318.5	37.7903
2319	38.5451
2319.5	39.3688
2320	39.5421
2320.5	38.7179
2321	37.5062
2321.5	36.7058
2322	36.6607
2322.5	37.0416
2323	37.1446
2323.5	36.7798
2324	36.271
2324.5	36.1059
2325	36.4396
2325.5	36.9225
2326	37.1671
2326.5	37.0469
2327	36.7844
2327.5	36.6051
2328	36.4236
2328.5	36.0681
2329	35.6693
2329.5	35.724
2330	36.4686
2330.5	37.5349
2331	38.0823
2331.5	37.7834
2332	37.2729
2332.5	37.3964
2333	38.2889
2333.5	39.0287
2334	38.7975
2334.5	37.606
2335	36.1724
2335.5	35.3107
2336	35.2302
2336.5	35.8086
2337	36.7408
2337.5	37.505
2338	37.598
2338.5	36.9915
2339	36.2493
2339.5	36.1899
2340	36.8791
2340.5	37.7719
2341	38.4283
2341.5	38.9889
2342	39.7226
2342.5	40.3301
2343	40.2378
2343.5	39.2055
2344	37.7476
2344.5	36.4393
2345	35.4132
2345.5	34.624
2346	34.3948
2346.5	35.1356
2347	36.7315
2347.5	38.3846
2348	39.0153
2348.5	38.4666
2349	37.3707
2349.5	36.6655
2350	37.0245
2350.5	38.2699
2351	39.7407
2351.5	40.6414
2352	40.3908
2352.5	39.2307
2353	37.9777
2353.5	37.4036
2354	37.6945
2354.5	38.1975
2355	38.1082
2355.5	37.1569
2356	35.8625
2356.5	35.438
2357	36.5685
2357.5	38.8219
2358	40.7643
2358.5	40.8858
2359	39.3273
2359.5	37.2453
2360	35.8854
2360.5	35.7552
2361	36.2419
2361.5	36.7381
2362	37.1533
2362.5	37.7245
2363	38.3672
2363.5	38.5854
2364	38.0094
2364.5	36.8191
2365	35.7528
2365.5	35.2237
2366	34.9388
2366.5	34.4131
2367	33.7629
2367.5	33.7966
2368	35.0196
2368.5	37.0449
2369	38.6307
2369.5	38.9708
2370	38.4419
2370.5	37.8475
2371	37.646
2371.5	37.5214
2372	37.0909
2372.5	36.4353
2373	36.1637
2373.5	36.8763
2374	38.3663
2374.5	39.831
2375	40.2368
2375.5	39.1306
2376	37.3203
2376.5	36.0471
2377	36.1651
2377.5	37.237
2378	38.0233
2378.5	37.9757
2379	37.4254
2379.5	37.1597
2380	37.3825
2380.5	37.6598
2381	37.5476
2381.5	37.1269
2382	36.908
2382.5	37.1551
2383	37.7107
2383.5	38.1119
2384	37.9604
2384.5	37.3365
2385	36.7045
2385.5	36.5662
2386	37.0059
2386.5	37.5085
2387	37.5538
2387.5	37.034
2388	36.4132
2388.5	36.1493
2389	36.1735
2389.5	36.1969
2390	36.1507
2390.5	36.2984
2391	36.7092
2391.5	37.0906
2392	37.1436
2392.5	37.1811
2393	37.616
2393.5	38.258
2394	38.2316
2394.5	36.9414
2395	35.1258
2395.5	34.0559
2396	34.3189
2396.5	35.3103
2397	36.2494
2397.5	37.1498
2398	38.3571
2398.5	39.6201
2399	40.0038
2399.5	39.2591
2400	38.1179
2400.5	37.7027
2401	38.13
2401.5	38.6758
2402	38.7783
2402.5	38.667
2403	38.9464
2403.5	39.5904
2404	40.0521
2404.5	39.746
2405	38.6567
2405.5	37.4299
2406	36.8237
2406.5	37.2865
2407	38.5816
2407.5	39.7876
2408	40.1647
2408.5	39.6116
2409	38.8209
2409.5	38.5489
2410	38.7989
2410.5	39.121
2411	39.062
2411.5	38.623
2412	38.0331
2412.5	37.4921
2413	37.1353
2413.5	37.0434
2414	37.1498
2414.5	37.25
2415	37.1595
2415.5	37.0093
2416	37.1171
2416.5	37.4825
2417	37.6715
2417.5	37.1284
2418	36.0413
2418.5	35.1731
2419	35.2878
2419.5	36.3238
2420	37.3245
2420.5	37.6353
2421	37.3379
2421.5	37.1603
2422	37.6224
2422.5	38.3301
2423	38.5484
2423.5	37.915
2424	37.0131
2424.5	36.7319
2425	37.4456
2425.5	38.7122
2426	39.5674
2426.5	39.6069
2427	39.0173
2427.5	38.2289
2428	37.5763
2428.5	37.2042
2429	37.2661
2429.5	37.8987
2430	38.9763
2430.5	39.9119
2431	40.1745
2431.5	39.5867
2432	38.4966
2432.5	37.5197
2433	37.0059
2433.5	36.9972
2434	37.2836
2434.5	37.5445
2435	37.6882
2435.5	37.8749
2436	38.289
2436.5	38.836
2437	39.1361
2437.5	38.8821
2438	38.0322
2438.5	36.8331
2439	35.6483
2439.5	34.8246
2440	34.6504
2440.5	35.1203
2441	35.5794
2441.5	35.4577
2442	34.8059
2442.5	34.3143
2443	34.5151
2443.5	35.0509
2444	35.2197
2444.5	34.9057
2445	34.9333
2445.5	35.9473
2446	37.7272
2446.5	39.419
2447	40.348
2447.5	40.7952
2448	41.0723
2448.5	41.0464
2449	40.1959
2449.5	38.6691
2450	37.3937
2450.5	37.3259
2451	38.5273
2451.5	39.681
2452	39.5622
2452.5	37.9778
2453	36.0771
2453.5	35.2374
2454	35.5131
2454.5	36.0999
2455	36.2492
2455.5	36.1663
2456	36.5462
2456.5	37.4451
2457	38.2438
2457.5	38.2399
2458	37.5129
2458.5	36.4846
2459	35.502
2459.5	34.8163
2460	34.768
2460.5	35.5744
2461	36.8933
2461.5	37.659
2462	37.2032
2462.5	35.9341
2463	34.7688
2463.5	34.4382
2464	34.8887
2464.5	35.6332
2465	36.3282
2465.5	36.848
2466	37.2333
2466.5	37.6599
2467	38.2705
2467.5	38.92
2468	39.0692
2468.5	38.3817
2469	37.0799
2469.5	35.8851
2470	35.7003
2470.5	36.4907
2471	37.5373
2471.5	37.9305
2472	37.2628
2472.5	36.496
2473	36.9795
2473.5	38.9857
2474	41.2199
2474.5	41.7351
2475	40.287
2475.5	38.329
2476	37.585
2476.5	38.2002
2477	38.959
2477.5	39.1101
2478	38.798
2478.5	38.4931
2479	38.0282
2479.5	37.1203
2480	36.0325
2480.5	35.6499
2481	36.3687
2481.5	37.6342
2482	38.711
2482.5	39.257
2483	39.5162
2483.5	39.6608
2484	39.5412
2484.5	38.9735
2485	38.1827
2485.5	37.599
2486	37.3427
2486.5	37.0953
2487	36.5907
2487.5	36.1814
2488	36.3642
2488.5	37.161
2489	37.7793
2489.5	37.6272
2490	37.0072
2490.5	36.6642
2491	37.0301
2491.5	37.5654
2492	37.5766
2492.5	36.8303
2493	35.5677
2493.5	34.3764
2494	33.8755
2494.5	34.3799
2495	35.5863
2495.5	36.4875
2496	36.4381
2496.5	35.826
2497	35.8088
2497.5	36.9963
2498	38.5058
2498.5	39.2126
2499	38.7373
2499.5	37.9104
2500	37.6732
2500.5	37.9663
2501	38.1476
2501.5	37.6571
2502	36.7504
2502.5	35.9694
2503	35.5438
2503.5	35.3216
2504	35.0338
2504.5	34.734
2505	34.7364
2505.5	35.3428
2506	36.477
2506.5	37.6014
2507	38.1831
2507.5	38.1892
2508	38.2234
2508.5	38.8177
2509	39.7523
2509.5	40.1834
2510	39.4922
2510.5	38.222
2511	37.1165
2511.5	36.3889
2512	35.6107
2512.5	34.6833
2513	34.2266
2513.5	34.7775
2514	36.0821
2514.5	37.0396
2515	37.135
2515.5	36.6541
2516	36.1902
2516.5	36.0667
2517	36.132
2517.5	36.1756
2518	36.1521
2518.5	36.2974
2519	36.9529
2519.5	38.0834
2520	39.0184
2520.5	38.813
2521	37.5659
2521.5	36.4052
2522	36.4126
2522.5	37.4214
2523	38.0887
2523.5	37.6673
2524	36.549
2524.5	35.8076
2525	35.9419
2525.5	36.6043
2526	37.356
2526.5	37.9879
2527	38.4747
2527.5	38.7011
2528	38.4626
2528.5	37.6348
2529	36.3454
2529.5	35.0965
2530	34.3129
2530.5	34.2508
2531	34.9872
2531.5	36.2432
2532	37.5426
2532.5	38.3085
2533	38.1111
2533.5	37.3635
2534	36.9992
2534.5	37.3749
2535	37.8338
2535.5	37.263
2536	35.7291
2536.5	34.4333
2537	34.4218
2537.5	35.528
2538	36.6448
2538.5	37.2495
2539	37.6701
2539.5	38.3253
2540	38.8259
2540.5	38.3817
2541	36.7805
2541.5	34.8511
2542	33.8865
2542.5	34.384
2543	35.8692
2543.5	37.3107
2544	38.2138
2544.5	38.6588
2545	38.5433
2545.5	37.4116
2546	35.3727
2546.5	33.6347
2547	33.4126
2547.5	34.7825
2548	36.0522
2548.5	36.0299
2549	35.1323
2549.5	34.6702
2550	35.464
2550.5	36.6274
2551	37.1532
2551.5	36.6238
2552	35.3499
2552.5	34.2083
2553	33.8704
2553.5	34.6537
2554	36.2534
2554.5	37.547
2555	37.7992
2555.5	37.1872
2556	36.5696
2556.5	36.6446
2557	36.9193
2557.5	36.6537
2558	35.6638
2558.5	34.7344
2559	34.6298
2559.5	35.079
2560	35.2645
2560.5	34.7205
2561	34.2188
2561.5	34.6012
2562	35.9223
2562.5	37.4707
2563	38.4518
2563.5	38.628
2564	37.936
2564.5	36.3946
2565	34.6419
2565.5	33.7615
2566	34.2136
2566.5	35.4501
2567	36.2745
2567.5	36.2
2568	35.6565
2568.5	35.2013
2569	35.1449
2569.5	35.5536
2570	36.336
2570.5	37.0544
2571	36.95
2571.5	35.8986
2572	34.7628
2572.5	34.5801
2573	35.5398
2573.5	36.5057
2574	36.4069
2574.5	35.3939
2575	34.5931
2575.5	34.9768
2576	36.1633
2576.5	37.0322
2577	36.9236
2577.5	36.2773
2578	36.0372
2578.5	36.5037
2579	37.3215
2579.5	38.0238
2580	38.4668
2580.5	38.6324
2581	38.5105
2581.5	38.2102
2582	38.04
2582.5	38.1152
2583	38.2332
2583.5	38.1742
2584	38.0563
2584.5	38.1178
2585	38.2893
2585.5	38.2038
2586	37.601
2586.5	36.8098
2587	36.5462
2587.5	37.3898
2588	39.1377
2588.5	40.4468
2589	40.0322
2589.5	37.692
2590	34.6555
2590.5	32.8733
2591	33.2157
2591.5	35.2284
2592	37.6398
2592.5	38.992
2593	38.7205
2593.5	37.3944
2594	36.2369
2594.5	36.1166
2595	36.5661
2595.5	36.6607
2596	36.1268
2596.5	35.6942
2597	35.9533
2597.5	36.5557
2598	36.7696
2598.5	36.2277
2599	35.3781
2599.5	34.7204
2600	34.4687
2600.5	34.6283
2601	35.0558
2601.5	35.6012
2602	36.1397
2602.5	36.6165
2603	37.0951
2603.5	37.6143
2604	38.0631
2604.5	38.143
2605	37.6009
2605.5	36.6903
2606	35.9106
2606.5	35.6547
2607	35.7225
2607.5	35.6355
2608	35.4401
2608.5	35.6649
2609	36.6544
2609.5	37.5838
2610	37.4865
2610.5	36.0619
2611	34.2094
2611.5	33.2165
2612	33.384
2612.5	34.2108
2613	34.8833
2613.5	35.1507
2614	35.3132
2614.5	35.7247
2615	36.47
2615.5	37.2018
2616	37.4764
2616.5	37.0056
2617	35.9627
2617.5	35.0931
2618	35.0395
2618.5	35.8674
2619	36.9873
2619.5	37.7376
2620	38.0622
2620.5	38.1408
2621	37.9912
2621.5	37.4712
2622	36.8516
2622.5	36.7505
2623	37.4309
2623.5	38.3824
2624	38.6029
2624.5	37.7148
2625	36.3377
2625.5	35.564
2626	36.1661
2626.5	37.6494
2627	38.9648
2627.5	39.4016
2628	39.0278
2628.5	38.3925
2629	37.7691
2629.5	37.4082
2630	36.9383
2630.5	37.0551
2631	37.5501
2631.5	38.5527
2632	39.3506
2632.5	39.8326
2633	39.6278
2633.5	39.1761
2634	38.4495
2634.5	37.8087
2635	37.2326
2635.5	36.733
2636	36.2421
2636.5	35.7617
2637	35.4559
2637.5	35.2565
2638	35.3483
2638.5	35.5309
2639	35.7928
2639.5	36.2143
2640	36.7396
2640.5	37.4597
2641	38.1158
2641.5	38.657
2642	38.4244
2642.5	37.8089
2643	36.8034
2643.5	36.0873
2644	35.6977
2644.5	36.0515
2645	36.6761
2645.5	37.3959
2646	37.596
2646.5	37.6543
2647	37.5448
2647.5	37.8108
2648	38.2107
2648.5	38.822
2649	39.0443
2649.5	39.0247
2650	38.3546
2650.5	37.6908
2651	37.0357
2651.5	36.5477
2652	36.0538
2652.5	35.3881
2653	34.7053
2653.5	34.0111
2654	34.0677
2654.5	34.494
2655	35.5045
2655.5	36.5623
2656	37.5216
2656.5	37.9242
2657	37.9656
2657.5	37.7234
2658	37.3918
2658.5	37.2405
2659	37.4394
2659.5	38.1703
2660	39.0834
2660.5	39.9488
2661	40.2346
2661.5	39.9908
2662	38.8902
2662.5	37.8079
2663	36.9461
2663.5	36.6534
2664	36.6149
2664.5	36.6759
2665	36.5993
2665.5	36.3767
2666	36.2694
2666.5	36.209
2667	36.2316
2667.5	35.9577
2668	35.523
2668.5	34.9222
2669	34.6905
2669.5	34.9146
2670	35.9753
2670.5	37.153
2671	38.1899
2671.5	38.5532
2672	38.4959
2672.5	37.5306
2673	36.5383
2673.5	35.5071
2674	34.9355
2674.5	34.6236
2675	34.9173
2675.5	35.361
2676	35.9099
2676.5	36.1051
2677	36.1935
2677.5	36.1141
2678	36.3148
2678.5	36.6546
2679	37.278
2679.5	37.5204
2680	37.4507
2680.5	36.3352
2681	35.226
2681.5	34.257
2682	34.5
2682.5	35.3368
2683	37.1964
2683.5	38.5077
2684	39.2967
2684.5	38.2731
2685	36.9751
2685.5	35.4802
2686	35.1542
2686.5	35.463
2687	36.987
2687.5	38.1286
2688	38.8467
2688.5	38.0728
2689	36.9884
2689.5	35.6713
2690	35.0476
2690.5	34.84
2691	35.6213
2691.5	36.585
2692	37.7838
2692.5	38.7618
2693	39.4588
2693.5	39.3297
2694	38.6464
2694.5	37.6207
2695	37.3982
2695.5	37.8035
2696	39.1529
2696.5	40.2301
2697	40.8984
2697.5	40.0736
2698	39.0074
2698.5	37.7641
2699	37.4402
2699.5	37.2634
2700	37.2952
2700.5	37.2663
2701	37.2689
2701.5	37.5695
2702	37.7635
2702.5	37.8664
2703	37.1911
2703.5	36.5079
2704	35.9272
2704.5	35.9178
2705	36.1142
2705.5	36.1458
2706	36.0802
2706.5	35.9179
2707	36.6525
2707.5	37.5151
2708	38.432
2708.5	38.1129
2709	37.1774
2709.5	35.8214
2710	35.4303
2710.5	36.1538
2711	37.7634
2711.5	39.1463
2712	39.3976
2712.5	38.8037
2713	37.7508
2713.5	37.0764
2714	36.709
2714.5	36.7543
2715	36.8207
2715.5	36.8025
2716	36.4514
2716.5	35.7425
2717	34.799
2717.5	33.7278
2718	33.0741
2718.5	33.0772
2719	34.1718
2719.5	35.5359
2720	36.7288
2720.5	37.1243
2721	36.9092
2721.5	36.077
2722	35.3993
2722.5	35.0556
2723	35.1399
2723.5	35.3938
2724	35.7884
2724.5	36.1958
2725	36.6147
2725.5	36.66
2726	36.4691
2726.5	35.8317
2727	35.5103
2727.5	35.4568
2728	36.6503
2728.5	37.8684
2729	39.1122
2729.5	38.7944
2730	38.0587
2730.5	36.7662
2731	36.4595
2731.5	36.6968
2732	37.7851
2732.5	38.3748
2733	38.3637
2733.5	37.6796
2734	37.0396
2734.5	36.9309
2735	37.3258
2735.5	38.0183
2736	38.8472
2736.5	39.6403
2737	40.383
2737.5	40.5063
2738	40.259
2738.5	39.1212
2739	38.0381
2739.5	36.9923
2740	36.8309
2740.5	36.6028
2741	36.2444
2741.5	35.2757
2742	34.2334
2742.5	33.7437
2743	34.0582
2743.5	35.0154
2744	36.2169
2744.5	37.1043
2745	37.3586
2745.5	37.036
2746	36.5535
2746.5	36.4169
2747	36.7823
2747.5	37.6141
2748	38.3809
2748.5	38.7116
2749	38.055
2749.5	37.0403
2750	35.9936
2750.5	36.2348
2751	37.0426
2751.5	38.4625
2752	39.283
2752.5	39.6769
2753	39.1323
2753.5	38.3426
2754	37.4384
2754.5	36.7746
2755	36.4065
2755.5	36.4099
2756	37.3835
2756.5	38.6383
2757	40.1992
2757.5	40.8898
2758	41.0265
2758.5	39.5098
2759	38.2338
2759.5	37.3108
2760	37.9624
2760.5	39.0832
2761	40.505
2761.5	40.9469
2762	40.688
2762.5	39.2916
2763	38.0916
2763.5	37.2782
2764	37.2981
2764.5	37.6334
2765	38.2614
2765.5	38.5253
2766	38.4858
2766.5	37.165
2767	35.5629
2767.5	33.5625
2768	32.3497
2768.5	31.6169
2769	32.2494
2769.5	33.0945
2770	34.1457
2770.5	35.1986
2771	36.1709
2771.5	36.9477
2772	36.7607
2772.5	36.0517
2773	34.4039
2773.5	33.4417
2774	33.252
2774.5	35.0318
2775	36.9729
2775.5	38.4697
2776	38.4372
2776.5	37.5585
2777	36.3421
2777.5	35.9743
2778	36.7194
2778.5	37.8374
2779	38.5965
2779.5	37.7806
2780	36.2107
2780.5	34.1632
2781	33.7241
2781.5	34.0527
2782	35.5566
2782.5	36.9675
2783	38.097
2783.5	38.0597
2784	37.7777
2784.5	37.313
2785	37.4281
2785.5	37.5363
2786	37.5942
2786.5	37.0664
2787	36.4069
2787.5	36.1307
2788	36.4419
2788.5	37.2638
2789	37.5849
2789.5	37.5447
2790	36.8194
2790.5	36.5229
2791	36.4654
2791.5	36.9711
2792	37.0058
2792.5	36.5644
2793	35.7317
2793.5	35.1358
2794	35.2653
2794.5	35.8202
2795	36.5242
2795.5	36.4528
2796	36.0341
2796.5	35.2073
2797	34.9519
2797.5	35.0761
2798	36.0664
2798.5	36.7069
2799	37.1086
2799.5	36.2107
2800	35.4188
2800.5	34.7718
2801	35.1447
2801.5	35.755
2802	36.3861
2802.5	36.755
2803	36.9487
2803.5	37.2604
2804	37.5222
2804.5	37.7024
2805	37.4774
2805.5	37.1163
2806	36.6587
2806.5	36.3801
2807	36.2409
2807.5	36.557
2808	36.9626
2808.5	37.4953
2809	37.6693
2809.5	37.6518
2810	37.206
2810.5	36.8421
2811	36.5527
2811.5	36.331
2812	36.1022
2812.5	35.8441
2813	35.7972
2813.5	35.822
2814	35.6749
2814.5	35.3544
2815	34.8514
2815.5	35.2703
2816	36.1208
2816.5	37.7883
2817	38.6156
2817.5	38.9291
2818	37.7632
2818.5	36.8674
2819	36.3028
2819.5	36.4623
2820	36.6082
2820.5	36.2649
2821	35.5908
2821.5	34.7304
2822	34.4186
2822.5	34.3673
2823	34.6884
2823.5	35.1674
2824	35.603
2824.5	35.7041
2825	35.3041
2825.5	34.5546
2826	33.7166
2826.5	33.2068
2827	33.2485
2827.5	33.8848
2828	34.7003
2828.5	35.5059
2829	35.9824
2829.5	36.1912
2830	35.7886
2830.5	35.4542
2831	35.3256
2831.5	35.7874
2832	36.4336
2832.5	36.8261
2833	36.5674
2833.5	35.6927
2834	34.3726
2834.5	33.1405
2835	32.2226
2835.5	31.9066
2836	31.9221
2836.5	32.6257
2837	33.2228
2837.5	33.7029
2838	33.5114
2838.5	33.3276
2839	33.4522
2839.5	34.344
2840	35.6408
2840.5	36.9099
2841	37.5763
2841.5	37.4717
2842	36.5464
2842.5	35.4668
2843	34.4297
2843.5	33.9884
2844	33.9265
2844.5	34.8233
2845	35.6969
2845.5	36.5357
2846	36.6056
2846.5	36.3757
2847	35.7086
2847.5	35.2614
2848	34.9744
2848.5	35.2411
2849	35.4958
2849.5	35.7005
2850	35.5238
2850.5	35.2056
2851	34.7818
2851.5	34.6082
2852	34.6469
2852.5	34.8689
2853	34.8871
2853.5	34.4567
2854	33.3933
2854.5	32.1058
2855	31.009
2855.5	30.7311
2856	31.2608
2856.5	32.8799
2857	34.4407
2857.5	35.546
2858	35.7398
2858.5	35.5068
2859	35.2791
2859.5	35.3511
2860	35.7668
2860.5	36.0309
2861	36.1056
2861.5	35.6891
2862	35.0895
2862.5	34.3969
2863	33.9336
2863.5	33.7392
2864	33.9036
2864.5	34.4479
2865	34.968
2865.5	35.0931
2866	34.7633
2866.5	34.1374
2867	33.6864
2867.5	33.5122
2868	33.7691
2868.5	34.2969
2869	34.9063
2869.5	35.5458
2870	36.1553
2870.5	36.7419
2871	37.1783
2871.5	37.5641
2872	37.8685
2872.5	37.8588
2873	37.6115
2873.5	36.55
2874	35.3747
2874.5	34.0988
2875	34.049
2875.5	34.5204
2876	35.901
2876.5	37.0959
2877	38.0691
2877.5	37.7435
2878	36.9565
2878.5	35.695
2879	34.7095
2879.5	33.975
2880	33.7999
2880.5	33.5871
2881	33.3196
2881.5	32.5146
2882	31.9601
2882.5	31.7051
2883	32.6659
2883.5	33.8876
2884	35.245
2884.5	35.8719
2885	36.0603
2885.5	35.6851
2886	35.4082
2886.5	35.268
2887	35.1662
2887.5	35.0197
2888	34.662
2888.5	34.2733
2889	33.8634
2889.5	33.7613
2890	33.8695
2890.5	34.3145
2891	35.0386
2891.5	35.8157
2892	36.446
2892.5	36.729
2893	36.7366
2893.5	35.9428
2894	34.9892
2894.5	33.8098
2895	33.3122
2895.5	33.2431
2896	34.4241
2896.5	35.6382
2897	36.8828
2897.5	36.8665
2898	36.4945
2898.5	35.5871
2899	35.0653
2899.5	34.7597
2900	34.9506
2900.5	35.1314
2901	35.3014
2901.5	35.2993
2902	35.1703
2902.5	34.7607
2903	34.1693
2903.5	33.5066
2904	33.2481
2904.5	33.2278
2905	33.5046
2905.5	33.6464
2906	33.7188
2906.5	33.6462
2907	33.7173
2907.5	33.8731
2908	33.8653
2908.5	33.6597
2909	33.1662
2909.5	32.9448
2910	32.9625
2910.5	33.6979
2911	34.4269
2911.5	35.1513
2912	34.9759
2912.5	34.6278
2913	34.0211
2913.5	33.8881
2914	34.0187
2914.5	34.7821
2915	35.566
2915.5	36.3668
2916	36.6045
2916.5	36.659
2917	36.4178
2917.5	36.3325
2918	36.3372
2918.5	36.5734
2919	36.6012
2919.5	36.4285
2920	35.7548
2920.5	35.105
2921	34.6427
2921.5	34.7517
2922	35.1542
2922.5	35.9435
2923	36.6348
2923.5	37.2165
2924	37.5321
2924.5	37.6946
2925	37.5347
2925.5	36.9439
2926	36.106
2926.5	34.935
2927	33.9602
2927.5	33.2406
2928	32.9231
2928.5	32.6646
2929	32.3163
2929.5	32.0016
2930	31.7118
2930.5	32.2363
2931	32.9719
2931.5	34.0285
2932	34.499
2932.5	34.6301
2933	33.9387
2933.5	33.2795
2934	32.6442
2934.5	32.6058
2935	32.6435
2935.5	32.7806
2936	32.7848
2936.5	32.7671
2937	32.88
2937.5	33.2495
2938	33.8406
2938.5	34.7367
2939	35.6212
2939.5	36.4322
2940	36.7756
2940.5	36.8528
2941	36.2694
2941.5	35.6064
2942	34.8636
2942.5	34.5045
2943	34.2684
2943.5	34.2247
2944	34.095
2944.5	33.9217
2945	33.7141
2945.5	33.6217
2946	33.6638
2946.5	33.8395
2947	34.0275
2947.5	34.1836
2948	34.3403
2948.5	34.4988
2949	34.7005
2949.5	34.8379
2950	34.8881
2950.5	34.6324
2951	34.2547
2951.5	33.676
2952	33.2455
2952.5	32.9133
2953	33.4363
2953.5	34.315
2954	35.7499
2954.5	36.9996
2955	37.9395
2955.5	37.6361
2956	36.5531
2956.5	34.8671
2957	33.6289
2957.5	33.0742
2958	33.7575
2958.5	35.3504
2959	37.1498
2959.5	38.231
2960	38.2858
2960.5	37.4166
2961	35.7483
2961.5	34.2414
2962	33.2481
2962.5	33.1012
2963	33.3453
2963.5	33.9127
2964	34.241
2964.5	34.3191
2965	33.9415
2965.5	33.4769
2966	32.9443
2966.5	32.6303
2967	32.4523
2967.5	32.6973
2968	32.9717
2968.5	33.282
2969	33.1178
2969.5	32.7103
2970	31.8001
2970.5	31.0024
2971	30.2931
2971.5	30.6016
2972	31.2448
2972.5	32.3627
2973	33.3395
2973.5	34.1118
2974	34.1958
2974.5	33.8504
2975	33.2079
2975.5	32.5092
2976	32.0085
2976.5	31.8381
2977	32.1484
2977.5	32.6315
2978	33.2595
2978.5	33.6643
2979	33.8889
2979.5	33.6077
2980	33.2232
2980.5	32.6929
2981	32.1587
2981.5	31.6279
2982	31.1306
2982.5	30.7962
2983	30.6149
2983.5	31.1593
2984	32.0449
2984.5	33.553
2985	35.2211
2985.5	36.8897
2986	37.8082
2986.5	38.0135
2987	37.4406
2987.5	35.7229
2988	33.7783
2988.5	31.6745
2989	30.319
2989.5	29.4333
2990	30.0634
2990.5	30.9861
2991	32.2804
2991.5	33.0038
2992	33.3744
2992.5	32.9263
2993	32.3218
2993.5	31.6273
2994	31.5513
2994.5	31.8196
2995	32.5979
2995.5	33.7483
2996	34.9549
2996.5	35.991
2997	36.5541
2997.5	36.7756
2998	36.143
2998.5	35.4084
2999	34.538
2999.5	34.1312
3000	33.9882
3000.5	34.4982
3001	35.1005
3001.5	35.7805
3002	36.0573
3002.5	36.1495
3003	35.9204
3003.5	35.537
3004	35.089
3004.5	34.6034
3005	34.132
3005.5	33.6746
3006	33.3819
3006.5	33.2163
3007	33.3157
3007.5	33.6583
3008	34.1187
3008.5	34.6385
3009	35.031
3009.5	35.2786
3010	35.2055
3010.5	35.0295
3011	34.7032
3011.5	34.3946
3012	34.1004
3012.5	33.9225
3013	33.7994
3013.5	33.7488
3014	33.8431
3014.5	34.0074
3015	34.3131
3015.5	34.578
3016	34.8165
3016.5	34.6102
3017	34.2239
3017.5	33.5589
3018	32.9846
3018.5	32.5698
3019	32.7793
3019.5	33.4032
3020	34.3397
3020.5	35.256
3021	35.9091
3021.5	36.0851
3022	35.6794
3022.5	35.0427
3023	34.1936
3023.5	33.5003
3024	32.9438
3024.5	32.8573
3025	32.9541
3025.5	33.3628
3026	33.9661
3026.5	34.6491
3027	35.3327
3027.5	35.8714
3028	36.2622
3028.5	36.2577
3029	36.1036
3029.5	35.694
3030	35.22
3030.5	34.7247
3031	34.3745
3031.5	34.1463
3032	34.0626
3032.5	34.1698
3033	34.3408
3033.5	34.6063
3034	34.9262
3034.5	35.2803
3035	35.7348
3035.5	36.1874
3036	36.6373
3036.5	36.7911
3037	36.7328
3037.5	36.1161
3038	35.1716
3038.5	34.0058
3039	33.0305
3039.5	32.4281
3040	32.4258
3040.5	33.247
3041	34.3634
3041.5	35.7563
3042	36.8103
3042.5	37.5974
3043	37.4372
3043.5	37.0068
3044	36.153
3044.5	35.2989
3045	34.4979
3045.5	34.0543
3046	33.8239
3046.5	33.7887
3047	34.0176
3047.5	34.3721
3048	34.9541
3048.5	35.9183
3049	37.1153
3049.5	38.9903
3050	41.1925
3050.5	43.743
3051	46.4776
3051.5	49.0967
3052	51.3322
3052.5	52.7397
3053	53.6437
3053.5	53.1487
3054	52.0783
3054.5	50.2957
3055	47.8317
3055.5	45.1861
3056	42.371
3056.5	39.7761
3057	37.3263
3057.5	35.6197
3058	34.2613
3058.5	33.4056
3059	33.0055
3059.5	32.7771
3060	32.7933
3060.5	32.9825
3061	33.2936
3061.5	34.0063
3062	34.8309
3062.5	35.8306
3063	36.608
3063.5	37.1727
3064	36.9608
3064.5	36.2906
3065	35.2439
3065.5	34.1093
3066	33.1998
3066.5	32.7498
3067	32.9181
3067.5	33.352
3068	34.0278
3068.5	34.48
3069	34.7186
3069.5	34.4897
3070	34.1763
3070.5	33.7805
3071	33.5701
3071.5	33.4673
3072	33.6353
3072.5	33.8185
3073	34.0186
3073.5	34.1328
3074	34.2307
3074.5	34.3198
3075	34.4545
3075.5	34.612
3076	34.7335
3076.5	34.7473
3077	34.6219
3077.5	34.3348
3078	34.0444
3078.5	33.8597
3079	33.9749
3079.5	34.2823
3080	35.1132
3080.5	35.9534
3081	36.8076
3081.5	37.2434
3082	37.4344
3082.5	37.0282
3083	36.3567
3083.5	35.49
3084	34.7311
3084.5	34.1177
3085	33.7556
3085.5	33.5879
3086	33.4756
3086.5	33.3148
3087	33.0532
3087.5	32.7053
3088	32.4467
3088.5	32.3289
3089	32.4918
3089.5	32.9824
3090	33.6097
3090.5	34.2918
3091	34.7632
3091.5	35.0248
3092	34.8267
3092.5	34.5165
3093	34.0632
3093.5	33.8324
3094	33.7417
3094.5	34.103
3095	34.5831
3095.5	35.2007
3096	35.6749
3096.5	36.0198
3097	36.0463
3097.5	35.8926
3098	35.6379
3098.5	35.3853
3099	35.2346
3099.5	35.2214
3100	35.351
3100.5	35.5087
3101	35.6527
3101.5	35.6946
3102	35.6694
3102.5	35.5124
3103	35.371
3103.5	35.2553
3104	35.2693
3104.5	35.3492
3105	35.5693
3105.5	35.7957
3106	36.027
3106.5	36.1542
3107	36.2216
3107.5	36.1869
3108	36.0813
3108.5	35.9471
3109	35.7855
3109.5	35.6253
3110	35.4663
3110.5	35.3479
3111	35.2733
3111.5	35.2869
3112	35.4744
3112.5	35.7622
3113	36.3069
3113.5	36.8929
3114	37.5219
3114.5	37.9356
3115	38.1511
3115.5	37.92
3116	37.2956
3116.5	36.4575
3117	35.3365
3117.5	34.3235
3118	33.4408
3118.5	33.0099
3119	32.7842
3119.5	32.9515
3120	33.2386
3120.5	33.5934
3121	33.847
3121.5	34.0363
3122	34.1351
3122.5	34.2253
3123	34.3259
3123.5	34.4762
3124	34.6052
3124.5	34.7196
3125	34.6505
3125.5	34.5365
3126	34.353
3126.5	34.3337
3127	34.4441
3127.5	34.9706
3128	35.729
3128.5	36.6731
3129	37.5371
3129.5	38.1841
3130	38.4191
3130.5	38.0624
3131	37.4364
3131.5	36.4386
3132	35.5524
3132.5	34.7702
3133	34.611
3133.5	34.6874
3134	35.1648
3134.5	35.7531
3135	36.3614
3135.5	36.672
3136	36.7855
3136.5	36.6858
3137	36.3782
3137.5	36.0716
3138	35.8519
3138.5	35.8148
3139	35.8846
3139.5	36.1803
3140	36.4596
3140.5	36.7182
3141	36.7816
3141.5	36.748
3142	36.5161
3142.5	36.2203
3143	35.8862
3143.5	35.6223
3144	35.4025
3144.5	35.2477
3145	35.1332
3145.5	35.0235
3146	34.8904
3146.5	34.7517
3147	34.6088
3147.5	34.569
3148	34.5956
3148.5	34.7318
3149	35.01
3149.5	35.3448
3150	35.7451
3150.5	36.1349
3151	36.5162
3151.5	36.8041
3152	37.0418
3152.5	37.1901
3153	37.2066
3153.5	37.1581
3154	36.9993
3154.5	36.8301
3155	36.6508
3155.5	36.581
3156	36.5699
3156.5	36.6711
3157	36.774
3157.5	36.8615
3158	36.7542
3158.5	36.4824
3159	36.0247
3159.5	35.3992
3160	34.7642
3160.5	34.1799
3161	33.732
3161.5	33.3653
3162	33.1635
3162.5	32.9503
3163	32.722
3163.5	32.42
3164	32.1193
3164.5	31.8801
3165	31.828
3165.5	31.8966
3166	32.3435
3166.5	32.8641
3167	33.4977
3167.5	34.0517
3168	34.5469
3168.5	34.871
3169	35.1215
3169.5	35.317
3170	35.5402
3170.5	35.7779
3171	36.0399
3171.5	36.2218
3172	36.3383
3172.5	36.2201
3173	36.019
3173.5	35.7456
3174	35.5466
3174.5	35.4305
3175	35.4785
3175.5	35.6732
3176	35.9187
3176.5	36.0903
3177	36.0863
3177.5	35.9045
3178	35.4352
3178.5	34.89
3179	34.243
3179.5	33.6844
3180	33.1886
3180.5	32.9759
3181	32.8913
3181.5	32.9575
3182	33.2553
3182.5	33.6409
3183	34.1729
3183.5	34.7881
3184	35.449
3184.5	36.0546
3185	36.5279
3185.5	36.8197
3186	36.7928
3186.5	36.6179
3187	36.1539
3187.5	35.6557
3188	35.1344
3188.5	34.8298
3189	34.6215
3189.5	34.5648
3190	34.6184
3190.5	34.6931
3191	34.7157
3191.5	34.6551
3192	34.5295
3192.5	34.3655
3193	34.2419
3193.5	34.1977
3194	34.2856
3194.5	34.4368
3195	34.6985
3195.5	34.9642
3196	35.2335
3196.5	35.4467
3197	35.6395
3197.5	35.7982
3198	35.9448
3198.5	36.0814
3199	36.1694
3199.5	36.1893
3200	36.1371
3200.5	35.8503
3201	35.4743
3201.5	34.9454
3202	34.3605
3202.5	33.7547
3203	33.2732
3203.5	32.9386
3204	32.7848
3204.5	32.923
3205	33.1735
3205.5	33.6116
3206	34.0738
3206.5	34.5469
3207	34.8408
3207.5	34.9793
3208	34.895
3208.5	34.548
3209	34.0958
3209.5	33.4755
3210	32.8974
3210.5	32.3487
3211	32.1108
3211.5	32.019
3212	32.162
3212.5	32.4734
3213	32.8291
3213.5	33.1469
3214	33.336
3214.5	33.4202
3215	33.2531
3215.5	33.066
3216	32.8694
3216.5	32.8681
3217	32.9861
3217.5	33.4424
3218	34.0078
3218.5	34.6766
3219	35.1968
3219.5	35.5623
3220	35.6002
3220.5	35.1959
3221	34.5631
3221.5	33.5924
3222	32.6457
3222.5	31.7252
3223	31.2345
3223.5	30.9664
3224	31.1447
3224.5	31.7034
3225	32.4735
3225.5	33.4389
3226	34.3462
3226.5	35.179
3227	35.6827
3227.5	36.0298
3228	36.0655
3228.5	35.8886
3229	35.578
3229.5	35.1627
3230	34.7834
3230.5	34.458
3231	34.3258
3231.5	34.2867
3232	34.4349
3232.5	34.6702
3233	34.9691
3233.5	35.2278
3234	35.4112
3234.5	35.4645
3235	35.2638
3235.5	34.9455
3236	34.4237
3236.5	33.8527
3237	33.2398
3237.5	32.7496
3238	32.3571
3238.5	32.149
3239	32.2129
3239.5	32.4123
3240	32.8415
3240.5	33.3286
3241	33.8728
3241.5	34.3594
3242	34.7873
3242.5	35.0869
3243	35.2211
3243.5	35.2634
3244	35.1263
3244.5	34.9672
3245	34.7826
3245.5	34.7314
3246	34.7818
3246.5	35.0703
3247	35.5931
3247.5	36.2571
3248	37.2187
3248.5	38.1719
3249	39.1139
3249.5	39.771
3250	40.2173
3250.5	40.1141
3251	39.634
3251.5	38.9082
3252	37.7698
3252.5	36.6377
3253	35.5169
3253.5	34.6915
3254	34.0439
3254.5	33.8482
3255	33.8815
3255.5	34.0893
3256	34.3691
3256.5	34.5888
3257	34.6926
3257.5	34.6328
3258	34.5105
3258.5	34.3467
3259	34.273
3259.5	34.2791
3260	34.4932
3260.5	34.742
3261	35.0282
3261.5	35.1373
3262	35.1292
3262.5	34.7264
3263	34.1567
3263.5	33.415
3264	32.6573
3264.5	32.0069
3265	31.6417
3265.5	31.6484
3266	31.8685
3266.5	32.541
3267	33.2586
3267.5	34.0301
3268	34.596
3268.5	35.0312
3269	35.1694
3269.5	35.1555
3270	35.0545
3270.5	35.0041
3271	35.0537
3271.5	35.243
3272	35.6075
3272.5	36.007
3273	36.3817
3273.5	36.6053
3274	36.7259
3274.5	36.4617
3275	36.1137
3275.5	35.6369
3276	35.159
3276.5	34.7141
3277	34.4389
3277.5	34.2756
3278	34.2012
3278.5	34.2169
3279	34.2253
3279.5	34.2107
3280	34.1287
3280.5	34.0158
3281	33.8578
3281.5	33.6992
3282	33.5401
3282.5	33.3743
3283	33.1829
3283.5	32.9346
3284	32.5811
3284.5	32.1684
3285	31.6189
3285.5	31.0824
3286	30.56
3286.5	30.2419
3287	30.0666
3287.5	30.2033
3288	30.6311
3288.5	31.221
3289	32.0257
3289.5	32.8224
3290	33.6091
3290.5	34.1416
3291	34.5399
3291.5	34.6532
3292	34.5684
3292.5	34.3604
3293	33.9624
3293.5	33.5563
3294	33.1383
3294.5	32.7994
3295	32.5088
3295.5	32.3377
3296	32.2626
3296.5	32.2558
3297	32.3483
3297.5	32.4538
3298	32.5774
3298.5	32.6676
3299	32.7302
3299.5	32.6983
3300	32.618
3300.5	32.4975
3301	32.3588
3301.5	32.2501
3302	32.2047
3302.5	32.3073
3303	32.4896
3303.5	32.8482
3304	33.2714
3304.5	33.7569
3305	34.232
3305.5	34.6602
3306	34.9785
3306.5	35.1572
3307	35.258
3307.5	35.1954
3308	35.0876
3308.5	34.9289
3309	34.7834
3309.5	34.6591
3310	34.5906
3310.5	34.5801
3311	34.6047
3311.5	34.7095
3312	34.8387
3312.5	34.9997
3313	35.1926
3313.5	35.3979
3314	35.6232
3314.5	35.8511
3315	36.0806
3315.5	36.285
3316	36.4729
3316.5	36.6354
3317	36.7664
3317.5	36.8848
3318	36.9845
3318.5	37.0783
3319	37.1676
3319.5	37.2226
3320	37.2401
3320.5	37.1925
3321	36.9968
3321.5	36.7142
3322	36.2068
3322.5	35.5977
3323	34.9005
3323.5	34.1625
3324	33.4743
3324.5	32.8984
3325	32.6386
3325.5	32.5578
3326	32.9153
3326.5	33.4876
3327	34.2758
3327.5	35.2765
3328	36.2841
3328.5	37.244
3329	37.9503
3329.5	38.4987
3330	38.5523
3330.5	38.3494
3331	37.8464
3331.5	36.9602
3332	35.9541
3332.5	34.7826
3333	33.6683
3333.5	32.5957
3334	31.8131
3334.5	31.2066
3335	30.84
3335.5	30.8369
3336	30.9824
3336.5	31.3807
3337	31.8587
3337.5	32.3897
3338	32.9138
3338.5	33.403
3339	33.8365
3339.5	34.1804
3340	34.4874
3340.5	34.7393
3341	34.9756
3341.5	35.1997
3342	35.3973
3342.5	35.5703
3343	35.6995
3343.5	35.7201
3344	35.6811
3344.5	35.5022
3345	35.2567
3345.5	34.9512
3346	34.6074
3346.5	34.2798
3347	33.9956
3347.5	33.8294
3348	33.7287
3348.5	33.7775
3349	33.8827
3349.5	34.0474
3350	34.2519
3350.5	34.4589
3351	34.6581
3351.5	34.8383
3352	35.0089
3352.5	35.1797
3353	35.3639
3353.5	35.5644
3354	35.7926
3354.5	36.0261
3355	36.26
3355.5	36.4563
3356	36.6281
3356.5	36.6936
3357	36.716
3357.5	36.6768
3358	36.5802
3358.5	36.4641
3359	36.326
3359.5	36.1866
3360	36.0464
3360.5	35.8897
3361	35.7132
3361.5	35.504
3362	35.2406
3362.5	34.9534
3363	34.6284
3363.5	34.3186
3364	34.0212
3364.5	33.8466
3365	33.748
3365.5	33.7844
3366	33.9445
3366.5	34.1591
3367	34.4376
3367.5	34.6849
3368	34.9029
3368.5	34.962
3369	34.9344
3369.5	34.7423
3370	34.4248
3370.5	34.0466
3371	33.6134
3371.5	33.2022
3372	32.8151
3372.5	32.5236
3373	32.2765
3373.5	32.1144
3374	32.0027
3374.5	31.9184
3375	31.8521
3375.5	31.7797
3376	31.6994
3376.5	31.6067
3377	31.5114
3377.5	31.4161
3378	31.33
3378.5	31.2496
3379	31.1915
3379.5	31.1467
3380	31.1218
3380.5	31.1393
3381	31.1848
3381.5	31.3051
3382	31.5012
3382.5	31.7521
3383	32.1406
3383.5	32.5699
3384	33.0632
3384.5	33.556
3385	34.0278
3385.5	34.3819
3386	34.6146
3386.5	34.7449
3387	34.6549
3387.5	34.4952
3388	34.224
3388.5	33.9209
3389	33.6138
3389.5	33.3731
3390	33.2066
3390.5	33.1129
3391	33.1232
3391.5	33.1524
3392	33.1988
3392.5	33.2065
3393	33.19
3393.5	33.0963
3394	32.9863
3394.5	32.8577
3395	32.7869
3395.5	32.7706
3396	32.8874
3396.5	33.1484
3397	33.494
3397.5	33.9699
3398	34.4393
3398.5	34.8998
3399	35.209
3399.5	35.4206
3400	35.3954
3400.5	35.1786
3401	34.8377
3401.5	34.2825
3402	33.7196
3402.5	33.1447
3403	32.7239
3403.5	32.4004
3404	32.3335
3404.5	32.4426
3405	32.6846
3405.5	33.1083
3406	33.5364
3406.5	33.9594
3407	34.2236
3407.5	34.3845
3408	34.2403
3408.5	33.8865
3409	33.3482
3409.5	32.5652
3410	31.7524
3410.5	30.9189
3411	30.2293
3411.5	29.6373
3412	29.3869
3412.5	29.3582
3413	29.5564
3413.5	30.1007
3414	30.7539
3414.5	31.5735
3415	32.4115
3415.5	33.2474
3416	33.9229
3416.5	34.4778
3417	34.889
3417.5	35.0877
3418	35.2067
3418.5	35.194
3419	35.1325
3419.5	35.0427
3420	34.9472
3420.5	34.8586
3421	34.7796
3421.5	34.6959
3422	34.6017
3422.5	34.4712
3423	34.2982
3423.5	34.0964
3424	33.8408
3424.5	33.585
3425	33.3301
3425.5	33.1198
3426	32.9373
3426.5	32.8293
3427	32.7669
3427.5	32.7404
3428	32.7531
3428.5	32.7657
3429	32.7743
3429.5	32.7612
3430	32.7388
3430.5	32.7068
3431	32.698
3431.5	32.7105
3432	32.8284
3432.5	32.9958
3433	33.2529
3433.5	33.568
3434	33.9063
3434.5	34.2265
3435	34.4785
3435.5	34.6576
3436	34.6379
3436.5	34.5277
3437	34.2482
3437.5	33.8765
3438	33.4587
3438.5	33.063
3439	32.7552
3439.5	32.5566
3440	32.6183
3440.5	32.8039
3441	33.2346
3441.5	33.7687
3442	34.3642
3442.5	34.9065
3443	35.3434
3443.5	35.6281
3444	35.6129
3444.5	35.4536
3445	35.0042
3445.5	34.4266
3446	33.7583
3446.5	33.0855
3447	32.4888
3447.5	32.0213
3448	31.8116
3448.5	31.7367
3449	31.9586
3449.5	32.3189
3450	32.793
3450.5	33.3465
3451	33.8725
3451.5	34.3339
3452	34.6413
3452.5	34.8635
3453	34.8833
3453.5	34.8144
3454	34.6607
3454.5	34.4383
3455	34.2156
3455.5	34.0097
3456	33.8703
3456.5	33.7717
3457	33.7941
3457.5	33.8796
3458	34.0355
3458.5	34.2912
3459	34.5856
3459.5	34.9462
3460	35.3459
3460.5	35.7676
3461	36.2135
3461.5	36.6511
3462	37.0777
3462.5	37.4423
3463	37.7632
3463.5	37.9753
3464	38.066
3464.5	38.0789
3465	37.8716
3465.5	37.5786
3466	37.1561
3466.5	36.5977
3467	35.9855
3467.5	35.2939
3468	34.5996
3468.5	33.9033
3469	33.2923
3469.5	32.7424
3470	32.2959
3470.5	32.0008
3471	31.7841
3471.5	31.7358
3472	31.7696
3472.5	31.8739
3473	32.0532
3473.5	32.2391
3474	32.4273
3474.5	32.5756
3475	32.6996
3475.5	32.7533
3476	32.7757
3476.5	32.7671
3477	32.7426
3477.5	32.7257
3478	32.7324
3478.5	32.7847
3479	32.8638
3479.5	33.0118
3480	33.184
3480.5	33.3842
3481	33.6075
3481.5	33.8397
3482	34.087
3482.5	34.3596
3483	34.6488
3483.5	35.0104
3484	35.4143
3484.5	35.8755
3485	36.4048
3485.5	36.9513
3486	37.5049
3486.5	37.99
3487	38.4297
3487.5	38.6215
3488	38.6781
3488.5	38.523
3489	38.0881
3489.5	37.5273
3490	36.7415
3490.5	35.8956
3491	35.0035
3491.5	34.1928
3492	33.4689
3492.5	32.8995
3493	32.5538
3493.5	32.3211
3494	32.314
3494.5	32.3813
3495	32.5152
3495.5	32.644
3496	32.7351
3496.5	32.7441
3497	32.6405
3497.5	32.4781
3498	32.2083
3498.5	31.9281
3499	31.637
3499.5	31.4247
3500	31.2697
