#Imported=	16.12.2021 13:56:04
50	0.94773
50.5	0.95549
51	0.62706
51.5	0.23399
52	0
52.5	0.16688
53	0.73755
53.5	1.62259
54	2.61192
54.5	3.40439
55	3.87194
55.5	3.95547
56	3.8224
56.5	3.66155
57	3.73682
57.5	4.22511
58	5.1155
58.5	6.38208
59	7.84361
59.5	9.34515
60	10.7334
60.5	11.9214
61	12.9337
61.5	13.817
62	14.6658
62.5	15.56
63	16.5949
63.5	17.8594
64	19.4189
64.5	21.3848
65	23.7924
65.5	26.6255
66	29.881
66.5	33.4108
67	37.0034
67.5	40.4335
68	43.5376
68.5	46.2371
69	48.4256
69.5	50.0896
70	51.2682
70.5	52.0098
71	52.4492
71.5	52.7571
72	53.1095
72.5	53.6897
73	54.6076
73.5	55.8626
74	57.3024
74.5	58.7538
75	60.0842
75.5	61.2366
76	62.27
76.5	63.2885
77	64.3504
77.5	65.3847
78	66.2103
78.5	66.5745
79	66.3547
79.5	65.4352
80	64.0624
80.5	62.6173
81	61.3964
81.5	60.608
82	60.1763
82.5	59.8742
83	59.2303
83.5	57.988
84	56.0424
84.5	53.5284
85	50.8962
85.5	48.6238
86	47.3609
86.5	47.1375
87	47.83
87.5	49.1003
88	50.385
88.5	51.2636
89	51.3538
89.5	50.7869
90	49.8916
90.5	49.0564
91	48.563
91.5	48.5212
92	48.88
92.5	49.2871
93	49.4458
93.5	49.1543
94	48.5484
94.5	47.8374
95	47.3851
95.5	47.4649
96	48.1976
96.5	49.4888
97	50.9459
97.5	52.2832
98	53.1802
98.5	53.6285
99	53.727
99.5	53.7962
100	54.1238
100.5	54.8308
101	55.9459
101.5	57.2123
102	58.3773
102.5	59.0911
103	59.397
103.5	59.4496
104	59.5448
104.5	60.0025
105	61.0383
105.5	62.9043
106	65.4249
106.5	68.3543
107	71.4926
107.5	74.5942
108	77.4992
108.5	80.0248
109	82.1149
109.5	83.8255
110	85.2702
110.5	86.6867
111	88.2816
111.5	90.2748
112	92.7031
112.5	95.4616
113	98.3495
113.5	101.185
114	103.911
114.5	106.549
115	109.176
115.5	111.795
116	114.188
116.5	116.021
117	117.039
117.5	116.987
118	116.026
118.5	114.572
119	113.208
119.5	112.527
120	112.688
120.5	113.736
121	115.434
121.5	117.515
122	119.914
122.5	122.807
123	126.482
123.5	131.426
124	138.021
124.5	146.34
125	156.597
125.5	168.664
126	181.892
126.5	195.266
127	207.314
127.5	216.714
128	221.816
128.5	221.371
129	215.573
129.5	204.738
130	190.815
130.5	176.001
131	161.857
131.5	149.644
132	139.564
132.5	131.653
133	125.57
133.5	120.609
134	116.703
134.5	113.95
135	112.217
135.5	111.441
136	111.372
136.5	111.482
137	111.474
137.5	111.27
138	111.024
138.5	110.915
139	111.07
139.5	111.335
140	111.386
140.5	110.844
141	109.731
141.5	108.251
142	106.909
142.5	106.239
143	106.686
143.5	108.391
144	110.664
144.5	112.922
145	114.413
145.5	114.84
146	114.12
146.5	112.366
147	110.362
147.5	108.664
148	107.831
148.5	107.878
149	108.686
149.5	109.946
150	111.014
150.5	111.429
151	110.848
151.5	109.555
152	107.902
152.5	106.422
153	105.538
153.5	105.445
154	106.044
154.5	106.756
155	107.195
155.5	107.04
156	106.411
156.5	105.592
157	105.056
157.5	105.143
158	105.813
158.5	106.87
159	107.891
159.5	108.568
160	108.646
160.5	108.201
161	107.448
161.5	106.638
162	105.923
162.5	105.328
163	104.83
163.5	104.383
164	103.996
164.5	103.8
165	103.882
165.5	104.24
166	104.794
166.5	105.314
167	105.574
167.5	105.348
168	104.642
168.5	103.756
169	103.114
169.5	103.124
170	103.976
170.5	105.774
171	108.231
171.5	110.845
172	113.044
172.5	114.457
173	115.045
173.5	114.845
174	114.148
174.5	113.313
175	112.654
175.5	112.438
176	112.711
176.5	113.54
177	114.893
177.5	116.607
178	118.506
178.5	120.283
179	121.632
179.5	122.343
180	122.428
180.5	122.18
181	121.94
181.5	122.129
182	122.951
182.5	124.519
183	126.62
183.5	128.905
184	131.202
184.5	133.461
185	135.759
185.5	138.199
186	140.803
186.5	143.372
187	145.63
187.5	147.342
188	148.627
188.5	149.764
189	151.303
189.5	153.692
190	157.318
190.5	162.14
191	167.588
191.5	173.264
192	178.81
192.5	184.114
193	189.228
193.5	194.29
194	199.386
194.5	204.48
195	209.52
195.5	214.586
196	219.891
196.5	225.895
197	232.807
197.5	240.732
198	249.342
198.5	257.876
199	265.791
199.5	272.514
200	278.241
200.5	283.276
201	288.098
201.5	293.137
202	298.353
202.5	303.332
203	307.592
203.5	310.765
204	312.475
204.5	313.103
205	313.064
205.5	312.932
206	313.096
206.5	313.643
207	314.493
207.5	315.325
208	315.833
208.5	315.569
209	314.276
209.5	311.89
210	308.183
210.5	303.348
211	297.602
211.5	291.177
212	284.572
212.5	278.226
213	272.564
213.5	267.565
214	262.984
214.5	258.398
215	253.3
215.5	247.359
216	240.313
216.5	232.419
217	224.248
217.5	216.45
218	209.543
218.5	203.747
219	199.226
219.5	195.687
220	192.663
220.5	189.604
221	185.989
221.5	181.638
222	176.536
222.5	171.07
223	165.79
223.5	161.318
224	158.082
224.5	155.967
225	154.483
225.5	152.905
226	150.758
226.5	147.885
227	144.654
227.5	141.739
228	139.875
228.5	139.408
229	139.736
229.5	140.121
230	139.715
230.5	138.202
231	135.647
231.5	132.674
232	130.133
232.5	128.591
233	127.987
233.5	127.718
234	127.221
234.5	126.091
235	124.479
235.5	122.823
236	121.834
236.5	121.797
237	122.506
237.5	123.364
238	123.707
238.5	123.131
239	121.578
239.5	119.631
240	117.933
240.5	117.139
241	117.132
241.5	117.592
242	117.971
242.5	117.852
243	117.088
243.5	115.775
244	114.359
244.5	113.159
245	112.337
245.5	111.755
246	111.289
246.5	110.879
247	110.569
247.5	110.482
248	110.778
248.5	111.32
249	111.851
249.5	112.017
250	111.713
250.5	110.981
251	110.041
251.5	109.264
252	108.882
252.5	109.029
253	109.368
253.5	109.618
254	109.457
254.5	108.835
255	107.82
255.5	106.57
256	105.372
256.5	104.451
257	104.026
257.5	104.095
258	104.634
258.5	105.618
259	106.853
259.5	108.192
260	109.534
260.5	110.901
261	112.456
261.5	114.512
262	117.226
262.5	120.598
263	124.493
263.5	128.424
264	131.871
264.5	134.082
265	134.626
265.5	133.524
266	130.689
266.5	126.575
267	121.692
267.5	116.515
268	111.575
268.5	107.216
269	103.801
269.5	101.258
270	99.4223
270.5	98.2232
271	97.5187
271.5	97.21
272	97.3003
272.5	97.713
273	98.2878
273.5	98.768
274	98.8755
274.5	98.4803
275	97.5159
275.5	96.1395
276	94.634
276.5	93.2768
277	92.2919
277.5	91.6996
278	91.3896
278.5	91.1563
279	90.8335
279.5	90.3335
280	89.6774
280.5	88.9896
281	88.4299
281.5	88.1929
282	88.361
282.5	88.9656
283	89.9607
283.5	91.1734
284	92.4441
284.5	93.5759
285	94.4492
285.5	94.9871
286	95.1767
286.5	95.1577
287	94.9984
287.5	94.7207
288	94.3253
288.5	93.7799
289	93.0735
289.5	92.2859
290	91.5085
290.5	90.8296
291	90.1939
291.5	89.475
292	88.4978
292.5	87.2632
293	85.9085
293.5	84.8158
294	84.3657
294.5	84.8973
295	86.5756
295.5	88.8393
296	91.2214
296.5	93.154
297	94.3998
297.5	94.904
298	94.7015
298.5	94.1185
299	93.305
299.5	92.3639
300	91.4264
300.5	90.6277
301	90.2103
301.5	90.2132
302	90.5617
302.5	90.9475
303	90.9069
303.5	90.0503
304	88.2362
304.5	86.048
305	84.0813
305.5	83.0975
306	83.2565
306.5	84.3898
307	86.0263
307.5	87.4118
308	88.0696
308.5	87.8858
309	87.3547
309.5	86.9193
310	86.9578
310.5	87.4272
311	88.058
311.5	88.4192
312	88.2367
312.5	87.5147
313	86.5846
313.5	85.9322
314	85.8341
314.5	86.4212
315	87.4071
315.5	88.4145
316	89.0262
316.5	89.0448
317	88.5136
317.5	87.6682
318	86.8717
318.5	86.3485
319	86.2508
319.5	86.5297
320	87.0419
320.5	87.6308
321	88.1246
321.5	88.4263
322	88.5232
322.5	88.5731
323	88.8011
323.5	89.5163
324	90.9437
324.5	93.0907
325	95.8794
325.5	98.9403
326	101.801
326.5	103.934
327	105.043
327.5	105.146
328	104.23
328.5	102.457
329	100.117
329.5	97.4154
330	94.6583
330.5	92.1671
331	90.3485
331.5	89.449
332	89.3747
332.5	89.9759
333	90.893
333.5	91.7166
334	92.154
334.5	92.0493
335	91.5237
335.5	90.7315
336	89.9108
336.5	89.237
337	88.8242
337.5	88.7763
338	89.0866
338.5	89.7646
339	90.7487
339.5	91.8234
340	92.7509
340.5	93.1913
341	93.0905
341.5	92.4989
342	91.6336
342.5	90.8529
343	90.4252
343.5	90.5677
344	91.1628
344.5	92.0502
345	92.9884
345.5	93.777
346	94.3698
346.5	94.7815
347	95.1014
347.5	95.3627
348	95.5754
348.5	95.7855
349	96.0914
349.5	96.7609
350	98.0309
350.5	100.107
351	103.265
351.5	107.36
352	112.412
352.5	118.685
353	126.053
353.5	134.454
354	143.619
354.5	152.578
355	160.126
355.5	164.482
356	165.279
356.5	162.492
357	156.255
357.5	148.195
358	139.494
358.5	131.261
359	124.08
359.5	118.11
360	113.541
360.5	109.984
361	107.243
361.5	105.214
362	103.572
362.5	102.085
363	100.622
363.5	99.2035
364	97.9783
364.5	97.2002
365	96.9184
365.5	96.9398
366	96.9821
366.5	96.7877
367	96.2928
367.5	95.5705
368	94.84
368.5	94.2581
369	93.9101
369.5	93.7579
370	93.7665
370.5	93.9912
371	94.4698
371.5	95.1371
372	95.7867
372.5	96.094
373	95.8557
373.5	95.0104
374	93.8845
374.5	92.9551
375	92.7173
375.5	93.2009
376	94.0242
376.5	94.7095
377	94.8624
377.5	94.471
378	93.7491
378.5	93.1197
379	92.874
379.5	93.1164
380	93.6755
380.5	94.2496
381	94.6588
381.5	94.8727
382	94.9847
382.5	95.0838
383	95.2432
383.5	95.4912
384	95.8546
384.5	96.339
385	96.863
385.5	97.2249
386	97.1118
386.5	96.4005
387	95.1156
387.5	93.6076
388	92.4316
388.5	92.0778
389	92.8395
389.5	94.3496
390	96.0921
390.5	97.3322
391	97.7738
391.5	97.5211
392	96.9881
392.5	96.6736
393	96.8106
393.5	97.3553
394	97.9111
394.5	98.1173
395	97.6752
395.5	96.757
396	95.6843
396.5	94.9535
397	94.8011
397.5	95.2951
398	96.3902
398.5	97.7596
399	99.1996
399.5	100.542
400	101.753
400.5	102.859
401	103.9
401.5	104.887
402	105.752
402.5	106.28
403	106.336
403.5	105.781
404	104.416
404.5	102.44
405	100.054
405.5	97.591
406	95.4538
406.5	93.9424
407	93.3355
407.5	93.3485
408	93.6594
408.5	93.8161
409	93.4827
409.5	92.5649
410	91.1815
410.5	89.8333
411	88.9966
411.5	89.2213
412	90.5238
412.5	92.6108
413	94.9392
413.5	96.8984
414	98.1461
414.5	98.4618
415	98.1043
415.5	97.4169
416	96.7513
416.5	96.3605
417	96.2974
417.5	96.5182
418	96.8474
418.5	97.1664
419	97.449
419.5	97.735
420	98.054
420.5	98.3683
421	98.5452
421.5	98.4342
422	97.8726
422.5	96.9065
423	95.7688
423.5	94.8521
424	94.5035
424.5	94.7825
425	95.574
425.5	96.4704
426	97.0758
426.5	97.097
427	96.5481
427.5	95.7188
428	94.9528
428.5	94.5429
429	94.518
429.5	94.726
430	94.9047
430.5	94.9318
431	94.8481
431.5	94.8431
432	95.0778
432.5	95.6125
433	96.3118
433.5	96.9209
434	97.2233
434.5	97.1681
435	97.0005
435.5	97.0745
436	97.7046
436.5	98.8507
437	100.29
437.5	101.565
438	102.303
438.5	102.295
439	101.605
439.5	100.674
440	99.9185
440.5	99.7278
441	100.108
441.5	100.897
442	101.873
442.5	102.909
443	104.098
443.5	105.73
444	107.962
444.5	110.835
445	114.128
445.5	117.285
446	119.803
446.5	121.197
447	121.73
447.5	121.946
448	122.698
448.5	124.526
449	127.637
449.5	131.938
450	136.626
450.5	141.103
451	144.815
451.5	147.877
452	150.621
452.5	153.645
453	157.369
453.5	161.922
454	167.455
454.5	173.896
455	181.544
455.5	191.36
456	203.718
456.5	219.007
457	237.834
457.5	259.405
458	283.343
458.5	310.068
459	340.025
459.5	374.391
460	415.667
460.5	464.219
461	520.086
461.5	583.392
462	651.127
462.5	720.28
463	786.499
463.5	845.419
464	893.114
464.5	923.055
465	933.212
465.5	922.762
466	890.486
466.5	841.627
467	781.409
467.5	714.317
468	646.201
468.5	580.898
469	521.736
469.5	469.738
470	424.711
470.5	387.045
471	355.479
471.5	328.735
472	306.149
472.5	286.398
473	268.581
473.5	252.493
474	237.981
474.5	225.006
475	213.823
475.5	204.315
476	196.09
476.5	188.887
477	182.376
477.5	176.402
478	171.159
478.5	166.835
479	163.323
479.5	160.405
480	157.601
480.5	154.517
481	151.004
481.5	147.299
482	143.862
482.5	141.157
483	139.381
483.5	138.235
484	137.301
484.5	136.106
485	134.537
485.5	132.806
486	131.29
486.5	130.161
487	129.33
487.5	128.429
488	127.119
488.5	125.297
489	123.26
489.5	121.588
490	120.805
490.5	121.179
491	122.226
491.5	123.249
492	123.404
492.5	122.49
493	120.654
493.5	118.418
494	116.424
494.5	115.01
495	114.249
495.5	113.781
496	113.31
496.5	112.62
497	111.771
497.5	110.909
498	110.191
498.5	109.597
499	109.025
499.5	108.403
500	107.828
500.5	107.509
501	107.776
501.5	108.608
502	109.833
502.5	111.015
503	111.677
503.5	111.541
504	110.426
504.5	108.755
505	106.885
505.5	105.218
506	103.907
506.5	102.983
507	102.517
507.5	102.47
508	102.876
508.5	103.809
509	105.074
509.5	106.443
510	107.593
510.5	108.325
511	108.608
511.5	108.54
512	108.438
512.5	108.545
513	109.011
513.5	109.693
514	110.351
514.5	110.619
515	110.264
515.5	109.222
516	107.528
516.5	105.559
517	103.696
517.5	102.338
518	101.599
518.5	101.35
519	101.316
519.5	101.103
520	100.515
520.5	99.5585
521	98.5089
521.5	97.6543
522	97.2427
522.5	97.277
523	97.5822
523.5	97.9221
524	98.0568
524.5	97.894
525	97.4435
525.5	96.8975
526	96.4999
526.5	96.5247
527	97.1263
527.5	98.207
528	99.5273
528.5	100.677
529	101.327
529.5	101.224
530	100.408
530.5	99.1893
531	97.9123
531.5	96.9497
532	96.4831
532.5	96.6135
533	97.2637
533.5	98.1754
534	99.0401
534.5	99.4019
535	98.9346
535.5	97.4547
536	95.1581
536.5	92.7036
537	90.8233
537.5	90.2047
538	90.8246
538.5	92.3356
539	93.9366
539.5	94.8872
540	94.8233
540.5	93.8792
541	92.746
541.5	92.0246
542	92.1479
542.5	92.9362
543	94.0514
543.5	95.126
544	96.0287
544.5	96.7935
545	97.4591
545.5	97.9529
546	98.0596
546.5	97.4897
547	96.3542
547.5	94.9344
548	93.787
548.5	93.3132
549	93.6311
549.5	94.5285
550	95.3771
550.5	95.7267
551	95.3479
551.5	94.6569
552	94.0868
552.5	94.1223
553	94.7437
553.5	95.7428
554	96.7451
554.5	97.4712
555	97.8885
555.5	98.1408
556	98.4676
556.5	98.9278
557	99.355
557.5	99.4473
558	98.9865
558.5	97.8621
559	96.4533
559.5	95.1582
560	94.3583
560.5	94.0291
561	93.9589
561.5	93.813
562	93.3725
562.5	92.6497
563	91.843
563.5	91.2388
564	90.9775
564.5	91.0709
565	91.2935
565.5	91.4589
566	91.4713
566.5	91.4232
567	91.4581
567.5	91.6965
568	92.0588
568.5	92.3965
569	92.5805
569.5	92.6668
570	92.8569
570.5	93.4601
571	94.5989
571.5	96.1291
572	97.6691
572.5	98.6833
573	98.84
573.5	97.9587
574	96.3813
574.5	94.6396
575	93.2545
575.5	92.5083
576	92.3257
576.5	92.4827
577	92.685
577.5	92.8264
578	92.9646
578.5	93.211
579	93.5654
579.5	93.8867
580	93.9491
580.5	93.6721
581	93.1631
581.5	92.8008
582	92.9506
582.5	93.8457
583	95.3127
583.5	96.8169
584	97.775
584.5	97.7801
585	96.9861
585.5	95.7924
586	94.7907
586.5	94.2792
587	94.2673
587.5	94.4757
588	94.566
588.5	94.377
589	93.9682
589.5	93.5745
590	93.3824
590.5	93.4541
591	93.634
591.5	93.7269
592	93.5274
592.5	92.9982
593	92.138
593.5	90.9725
594	89.6148
594.5	88.1825
595	86.9724
595.5	86.3248
596	86.5954
596.5	88.0834
597	90.4099
597.5	93.0691
598	95.2499
598.5	96.4375
599	96.4631
599.5	95.5327
600	94.4372
600.5	93.7381
601	93.8372
601.5	94.4364
602	95.1104
602.5	95.3298
603	95.0306
603.5	94.4452
604	94.0955
604.5	94.3216
605	95.1086
605.5	96.1016
606	96.7788
606.5	96.8767
607	96.3139
607.5	95.458
608	94.567
608.5	93.7769
609	93.0029
609.5	92.1278
610	91.1116
610.5	90.1237
611	89.3613
611.5	89.004
612	88.9313
612.5	88.9627
613	88.9736
613.5	89.0598
614	89.4671
614.5	90.5175
615	92.0838
615.5	93.738
616	94.8495
616.5	95.1108
617	94.6433
617.5	93.878
618	93.3899
618.5	93.3787
619	93.6526
619.5	93.6578
620	93.0129
620.5	91.6238
621	90.0145
621.5	88.8212
622	88.6398
622.5	89.4678
623	90.8736
623.5	92.2845
624	93.2114
624.5	93.552
625	93.4135
625.5	93.1233
626	92.9332
626.5	92.9953
627	93.3591
627.5	94.0077
628	94.9131
628.5	95.896
629	96.6814
629.5	96.9046
630	96.3161
630.5	94.9739
631	93.0536
631.5	90.9737
632	89.1343
632.5	87.8526
633	87.2851
633.5	87.3551
634	87.9996
634.5	89.0228
635	90.1339
635.5	91.0615
636	91.5797
636.5	91.7057
637	91.5767
637.5	91.452
638	91.46
638.5	91.52
639	91.3613
639.5	90.8085
640	89.8882
640.5	88.9765
641	88.5737
641.5	89.0568
642	90.4649
642.5	92.2263
643	93.7154
643.5	94.3133
644	94.0315
644.5	93.1503
645	92.2083
645.5	91.6159
646	91.4436
646.5	91.4535
647	91.2715
647.5	90.7181
648	89.8622
648.5	89.0657
649	88.6371
649.5	88.763
650	89.2235
650.5	89.7882
651	90.2366
651.5	90.55
652	90.8192
652.5	91.1639
653	91.5594
653.5	91.8627
654	91.7952
654.5	91.2914
655	90.4106
655.5	89.3664
656	88.4594
656.5	87.8135
657	87.3952
657.5	86.951
658	86.3102
658.5	85.4368
659	84.6034
659.5	84.1239
660	84.3661
660.5	85.2264
661	86.4394
661.5	87.5759
662	88.2986
662.5	88.5375
663	88.3725
663.5	88.0848
664	87.8459
664.5	87.767
665	87.8646
665.5	88.1597
666	88.7159
666.5	89.4683
667	90.2563
667.5	90.7664
668	90.7502
668.5	90.1581
669	89.1284
669.5	88.0999
670	87.4208
670.5	87.3099
671	87.5982
671.5	87.9986
672	88.2719
672.5	88.3879
673	88.4771
673.5	88.6677
674	88.899
674.5	88.9472
675	88.5249
675.5	87.6308
676	86.6012
676.5	85.9881
677	86.2023
677.5	87.1918
678	88.5823
678.5	89.6756
679	89.9852
679.5	89.2616
680	87.7819
680.5	86.1063
681	84.7915
681.5	84.2623
682	84.5849
682.5	85.7278
683	87.381
683.5	89.0871
684	90.3803
684.5	90.862
685	90.5182
685.5	89.5382
686	88.4762
686.5	87.9091
687	88.2311
687.5	89.417
688	90.9107
688.5	92.073
689	92.3096
689.5	91.6189
690	90.2967
690.5	89.0014
691	88.3142
691.5	88.5114
692	89.4221
692.5	90.4178
693	90.9077
693.5	90.3984
694	89.037
694.5	87.1989
695	85.5713
695.5	84.7017
696	84.8761
696.5	86.0893
697	87.7877
697.5	89.5112
698	90.7907
698.5	91.4828
699	91.5458
699.5	90.9596
700	89.9232
700.5	88.5764
701	87.1961
701.5	86.1679
702	85.8317
702.5	86.516
703	87.9048
703.5	89.5797
704	90.8759
704.5	91.4032
705	91.0711
705.5	90.0071
706	88.7492
706.5	87.6022
707	86.7604
707.5	86.1434
708	85.6877
708.5	85.4463
709	85.4885
709.5	85.8764
710	86.5951
710.5	87.3912
711	88.0625
711.5	88.4718
712	88.738
712.5	89.0293
713	89.4856
713.5	90.0191
714	90.4234
714.5	90.4182
715	90.0106
715.5	89.4166
716	89.0557
716.5	89.2493
717	90.0419
717.5	91.2162
718	92.2281
718.5	92.6463
719	92.1254
719.5	90.8651
720	89.2738
720.5	87.878
721	87.0902
721.5	87.0274
722	87.648
722.5	88.569
723	89.4175
723.5	89.869
724	89.8343
724.5	89.421
725	88.7932
725.5	88.1588
726	87.6141
726.5	87.1764
727	86.8268
727.5	86.6071
728	86.6992
728.5	87.3
729	88.4349
729.5	89.9423
730	91.3157
730.5	92.0149
731	91.5272
731.5	89.8007
732	87.319
732.5	84.7205
733	82.7192
733.5	81.5959
734	81.3298
734.5	81.4919
735	81.5911
735.5	81.3751
736	80.9217
736.5	80.5496
737	80.5569
737.5	81.0271
738	81.7018
738.5	82.2504
739	82.4133
739.5	82.2894
740	82.1835
740.5	82.5147
741	83.3907
741.5	84.6431
742	85.7599
742.5	86.2596
743	85.8716
743.5	84.6786
744	83.235
744.5	82.0474
745	81.5707
745.5	81.7955
746	82.583
746.5	83.6565
747	84.6901
747.5	85.4858
748	85.874
748.5	85.8853
749	85.5821
749.5	85.133
750	84.7881
750.5	84.6969
751	84.8659
751.5	85.0152
752	84.8332
752.5	83.9963
753	82.6735
753.5	81.2088
754	80.2297
754.5	80.0871
755	80.8696
755.5	82.4599
756	84.2929
756.5	86.016
757	87.3288
757.5	88.2461
758	88.8055
758.5	88.9812
759	88.8349
759.5	88.3711
760	87.5893
760.5	86.6366
761	85.6175
761.5	84.6329
762	83.762
762.5	83.0978
763	82.8631
763.5	83.1783
764	84.1025
764.5	85.5973
765	87.2512
765.5	88.6563
766	89.359
766.5	89.3258
767	88.7593
767.5	88.0131
768	87.4752
768.5	87.2794
769	87.3589
769.5	87.4288
770	87.2933
770.5	86.9054
771	86.4841
771.5	86.2808
772	86.4856
772.5	86.9533
773	87.3485
773.5	87.229
774	86.4242
774.5	85.1306
775	83.8269
775.5	83.1215
776	83.306
776.5	84.3806
777	85.7605
777.5	86.756
778	86.7364
778.5	85.5968
779	83.764
779.5	81.8901
780	80.7143
780.5	80.5676
781	81.5172
781.5	83.1058
782	84.6957
782.5	85.7306
783	85.944
783.5	85.5367
784	84.894
784.5	84.5407
785	84.729
785.5	85.4273
786	86.2259
786.5	86.658
787	86.4444
787.5	85.7338
788	85.0731
788.5	85.0445
789	86.0005
789.5	87.645
790	89.4329
790.5	90.6434
791	90.9931
791.5	90.5492
792	89.7704
792.5	89.1745
793	88.9635
793.5	88.9709
794	88.7878
794.5	88.1277
795	87.0096
795.5	85.914
796	85.3876
796.5	85.9361
797	87.3773
797.5	89.28
798	90.8752
798.5	91.612
799	91.2954
799.5	90.1488
800	88.9355
800.5	88.2499
801	88.544
801.5	89.5264
802	90.756
802.5	91.6451
803	91.9871
803.5	91.9099
804	91.8598
804.5	92.2871
805	93.3939
805.5	95.2123
806	97.359
806.5	99.5932
807	101.715
807.5	103.617
808	105.142
808.5	105.869
809	105.626
809.5	104.333
810	102.101
810.5	99.6503
811	97.5598
811.5	96.3791
812	95.968
812.5	95.9619
813	95.8004
813.5	95.0798
814	93.6833
814.5	91.6163
815	89.1876
815.5	86.6159
816	84.1251
816.5	81.9436
817	80.2985
817.5	79.5455
818	79.6948
818.5	80.5916
819	81.9403
819.5	83.22
820	84.0705
820.5	84.2118
821	83.7358
821.5	82.8512
822	81.777
822.5	80.7573
823	79.9468
823.5	79.5256
824	79.5921
824.5	80.1836
825	81.3314
825.5	82.817
826	84.3224
826.5	85.4471
827	85.9033
827.5	85.659
828	84.8167
828.5	83.7655
829	82.8835
829.5	82.468
830	82.569
830.5	83.0126
831	83.5725
831.5	83.9877
832	84.1178
832.5	83.8787
833	83.3059
833.5	82.5208
834	81.6474
834.5	80.8566
835	80.2763
835.5	79.9991
836	79.9947
836.5	80.0982
837	80.1142
837.5	79.8566
838	79.3084
838.5	78.568
839	77.9026
839.5	77.5834
840	77.8323
840.5	78.6962
841	79.9082
841.5	81.1444
842	82.0168
842.5	82.3811
843	82.2626
843.5	81.9072
844	81.649
844.5	81.6883
845	82.0681
845.5	82.6062
846	83.1317
846.5	83.4868
847	83.6143
847.5	83.4273
848	82.7504
848.5	81.5602
849	79.9221
849.5	78.2195
850	77.066
850.5	77.0053
851	78.4124
851.5	80.6899
852	83.0778
852.5	84.5148
853	84.6139
853.5	83.4569
854	81.602
854.5	79.9682
855	79.0502
855.5	79.057
856	79.4891
856.5	79.9062
857	79.8884
857.5	79.4677
858	78.8541
858.5	78.4285
859	78.4262
859.5	78.8827
860	79.6302
860.5	80.2358
861	80.3625
861.5	79.725
862	78.6154
862.5	77.475
863	76.98
863.5	77.4143
864	78.6943
864.5	80.3698
865	81.6902
865.5	82.2078
866	81.708
866.5	80.6637
867	79.5637
867.5	78.8369
868	78.5269
868.5	78.4659
869	78.4412
869.5	78.3297
870	78.1355
870.5	77.85
871	77.393
871.5	76.6507
872	75.5684
872.5	74.4206
873	73.6226
873.5	73.6745
874	74.6037
874.5	76.025
875	77.3073
875.5	77.9117
876	77.79
876.5	77.2619
877	76.9303
877.5	77.113
878	77.7831
878.5	78.5057
879	78.9105
879.5	78.869
880	78.6286
880.5	78.4768
881	78.4655
881.5	78.2888
882	77.5887
882.5	76.1932
883	74.5147
883.5	73.2974
884	73.3149
884.5	74.794
885	77.1538
885.5	79.5277
886	80.9704
886.5	81.1895
887	80.3134
887.5	78.9835
888	77.8613
888.5	77.2995
889	77.2668
889.5	77.4059
890	77.3851
890.5	76.9878
891	76.2904
891.5	75.4813
892	74.8392
892.5	74.52
893	74.5701
893.5	74.8972
894	75.3127
894.5	75.7264
895	76.167
895.5	76.7476
896	77.5709
896.5	78.6198
897	79.6662
897.5	80.4463
898	80.7121
898.5	80.5456
899	80.1283
899.5	79.7324
900	79.5021
900.5	79.387
901	79.1555
901.5	78.6042
902	77.6582
902.5	76.4124
903	75.1822
903.5	74.2315
904	73.8331
904.5	73.9454
905	74.4937
905.5	75.3661
906	76.3501
906.5	77.3348
907	78.2046
907.5	78.8876
908	79.2995
908.5	79.2961
909	78.9593
909.5	78.4281
910	78.0213
910.5	78.0437
911	78.643
911.5	79.7729
912	80.9211
912.5	81.5884
913	81.1734
913.5	79.7226
914	77.5045
914.5	75.0157
915	72.8795
915.5	71.4707
916	71.1322
916.5	71.6965
917	72.9427
917.5	74.5888
918	76.1821
918.5	77.396
919	77.9238
919.5	77.8308
920	77.3078
920.5	76.5573
921	75.7338
921.5	74.7935
922	73.5359
922.5	71.8912
923	70.0075
923.5	68.3092
924	67.3309
924.5	67.4018
925	68.7295
925.5	70.9131
926	73.3809
926.5	75.5128
927	76.8722
927.5	77.3523
928	76.9245
928.5	75.8634
929	74.4908
929.5	73.0939
930	71.9495
930.5	71.2046
931	70.9629
931.5	71.1484
932	71.5977
932.5	72.2088
933	72.9448
933.5	73.8543
934	75.025
934.5	76.3841
935	77.6411
935.5	78.3194
936	77.9798
936.5	76.6282
937	74.5309
937.5	72.3752
938	70.7786
938.5	70.0664
939	70.0559
939.5	70.1817
940	69.9872
940.5	69.3278
941	68.5265
941.5	68.0323
942	68.2033
942.5	68.9265
943	69.9154
943.5	70.7993
944	71.4521
944.5	71.9742
945	72.5757
945.5	73.3048
946	73.9912
946.5	74.2829
947	74.0483
947.5	73.36
948	72.5632
948.5	72.0529
949	72.0184
949.5	72.3906
950	72.7932
950.5	72.9201
951	72.579
951.5	71.9567
952	71.31
952.5	70.9384
953	70.8825
953.5	71.0289
954	71.1406
954.5	71.0732
955	70.8755
955.5	70.8159
956	71.1415
956.5	71.9221
957	72.9526
957.5	73.7228
958	73.8512
958.5	73.0972
959	71.9586
959.5	70.9926
960	70.8837
960.5	71.5987
961	72.7592
961.5	73.5991
962	73.5872
962.5	72.6481
963	71.117
963.5	69.7558
964	68.9888
964.5	68.993
965	69.383
965.5	69.8382
966	70.1721
966.5	70.4404
967	70.7246
967.5	70.9548
968	70.9049
968.5	70.3981
969	69.447
969.5	68.52
970	68.1002
970.5	68.5617
971	69.5603
971.5	70.4638
972	70.5365
972.5	69.7021
973	68.4813
973.5	67.8187
974	68.3822
974.5	70.1237
975	72.4439
975.5	74.3398
976	75.2856
976.5	75.2345
977	74.8053
977.5	74.5174
978	74.4811
978.5	74.2957
979	73.5753
979.5	72.2339
980	70.788
980.5	69.8511
981	69.8017
981.5	70.2868
982	70.5504
982.5	69.8614
983	68.1341
983.5	66.0065
984	64.3692
984.5	63.8668
985	64.349
985.5	65.2458
986	65.771
986.5	65.6386
987	65.0647
987.5	64.6933
988	64.9647
988.5	65.9173
989	67.036
989.5	67.6749
990	67.3946
990.5	66.2263
991	64.7032
991.5	63.3712
992	62.6729
992.5	62.6186
993	63.0952
993.5	63.8434
994	64.5599
994.5	65.0044
995	64.964
995.5	64.4688
996	63.6709
996.5	62.9706
997	62.7913
997.5	63.4422
998	64.984
998.5	66.9445
999	68.8183
999.5	70.0342
1000	70.4531
1000.5	70.1243
1001	69.2777
1001.5	68.2953
1002	67.3719
1002.5	66.63
1003	66.0815
1003.5	65.777
1004	65.8639
1004.5	66.3677
1005	67.2948
1005.5	68.5543
1006	69.8306
1006.5	70.8341
1007	71.1915
1007.5	70.8847
1008	69.9846
1008.5	68.6881
1009	67.3908
1009.5	66.3345
1010	65.7292
1010.5	65.4826
1011	65.5021
1011.5	65.7262
1012	66.0971
1012.5	66.6414
1013	67.4049
1013.5	68.2691
1014	69.0523
1014.5	69.433
1015	69.2695
1015.5	68.5608
1016	67.489
1016.5	66.4946
1017	65.8876
1017.5	65.8804
1018	66.2303
1018.5	66.5833
1019	66.5155
1019.5	65.9522
1020	65.1331
1020.5	64.603
1021	64.8393
1021.5	65.9644
1022	67.7478
1022.5	69.4206
1023	70.3138
1023.5	69.8483
1024	68.2241
1024.5	65.9913
1025	63.8571
1025.5	62.4076
1026	61.8177
1026.5	62.0802
1027	62.8264
1027.5	63.7579
1028	64.7249
1028.5	65.6555
1029	66.5012
1029.5	67.1441
1030	67.4801
1030.5	67.5214
1031	67.4227
1031.5	67.5254
1032	68.0874
1032.5	69.187
1033	70.4496
1033.5	71.2906
1034	71.0861
1034.5	69.6721
1035	67.5123
1035.5	65.3284
1036	63.9065
1036.5	63.4793
1037	63.8928
1037.5	64.5297
1038	64.9295
1038.5	65.0175
1039	65.112
1039.5	65.5665
1040	66.5096
1040.5	67.6491
1041	68.4756
1041.5	68.5601
1042	67.8015
1042.5	66.5848
1043	65.3298
1043.5	64.3987
1044	63.8121
1044.5	63.4409
1045	63.1242
1045.5	62.8552
1046	62.8056
1046.5	63.2036
1047	63.9871
1047.5	64.8742
1048	65.3557
1048.5	65.1345
1049	64.164
1049.5	62.7767
1050	61.5923
1050.5	61.0734
1051	61.474
1051.5	62.4401
1052	63.569
1052.5	64.4155
1053	64.8571
1053.5	64.9749
1054	64.9681
1054.5	64.9964
1055	65.031
1055.5	64.8791
1056	64.4039
1056.5	63.5957
1057	62.6697
1057.5	62.0383
1058	62.0731
1058.5	63.1864
1059	65.1165
1059.5	67.4568
1060	69.4325
1060.5	70.4403
1061	70.2354
1061.5	68.9287
1062	67.4555
1062.5	66.566
1063	66.9735
1063.5	68.3957
1064	70.2922
1064.5	71.858
1065	72.5956
1065.5	72.4259
1066	71.4824
1066.5	70.1883
1067	68.7484
1067.5	67.2765
1068	65.8891
1068.5	64.7308
1069	64.046
1069.5	63.8766
1070	64.1589
1070.5	64.7849
1071	65.5553
1071.5	66.3727
1072	67.1555
1072.5	67.7718
1073	68.0537
1073.5	67.8017
1074	67.162
1074.5	66.5314
1075	66.496
1075.5	67.3611
1076	69.0099
1076.5	71.0368
1077	72.8532
1077.5	74.2293
1078	75.3374
1078.5	76.7223
1079	78.7689
1079.5	81.5611
1080	84.5803
1080.5	87.1906
1081	88.85
1081.5	89.5593
1082	89.6946
1082.5	89.5699
1083	89.2497
1083.5	88.4821
1084	86.8325
1084.5	84.1799
1085	80.871
1085.5	77.4372
1086	74.4783
1086.5	72.2265
1087	70.691
1087.5	69.6181
1088	68.7451
1088.5	67.9917
1089	67.3633
1089.5	66.8528
1090	66.4224
1090.5	66.018
1091	65.6584
1091.5	65.4559
1092	65.5167
1092.5	65.7686
1093	66.0059
1093.5	65.9163
1094	65.3776
1094.5	64.4465
1095	63.431
1095.5	62.6788
1096	62.3926
1096.5	62.5523
1097	62.8769
1097.5	63.1313
1098	63.1553
1098.5	62.9839
1099	62.6641
1099.5	62.1625
1100	61.4124
1100.5	60.3445
1101	59.0477
1101.5	57.8724
1102	57.2119
1102.5	57.4339
1103	58.3218
1103.5	59.4697
1104	60.2412
1104.5	60.3359
1105	59.8262
1105.5	59.1826
1106	58.9711
1106.5	59.3727
1107	60.1821
1107.5	60.8378
1108	60.9965
1108.5	60.553
1109	59.9263
1109.5	59.4769
1110	59.5038
1110.5	59.8803
1111	60.4336
1111.5	61.0263
1112	61.6477
1112.5	62.356
1113	63.1561
1113.5	63.8829
1114	64.3589
1114.5	64.3912
1115	64.0413
1115.5	63.3721
1116	62.394
1116.5	61.2009
1117	59.9
1117.5	58.7532
1118	58.0446
1118.5	57.9369
1119	58.4589
1119.5	59.2332
1120	59.9316
1120.5	60.3079
1121	60.4414
1121.5	60.4561
1122	60.349
1122.5	59.975
1123	59.1712
1123.5	57.861
1124	56.3589
1124.5	55.0633
1125	54.3857
1125.5	54.3505
1126	54.7394
1126.5	55.2876
1127	55.8046
1127.5	56.3184
1128	56.9717
1128.5	57.811
1129	58.7264
1129.5	59.4901
1130	59.8972
1130.5	59.8926
1131	59.4925
1131.5	58.8749
1132	58.2276
1132.5	57.7156
1133	57.4357
1133.5	57.3717
1134	57.4333
1134.5	57.4225
1135	57.1965
1135.5	56.7148
1136	56.1483
1136.5	55.7725
1137	55.8899
1137.5	56.6348
1138	57.8517
1138.5	59.2738
1139	60.5024
1139.5	61.2715
1140	61.4297
1140.5	61.0625
1141	60.4579
1141.5	59.8816
1142	59.5324
1142.5	59.4274
1143	59.5331
1143.5	59.8016
1144	60.2113
1144.5	60.7809
1145	61.4204
1145.5	61.8646
1146	61.7268
1146.5	60.6564
1147	58.845
1147.5	56.7904
1148	55.3761
1148.5	55.0676
1149	55.8964
1149.5	57.3163
1150	58.4761
1150.5	58.875
1151	58.4574
1151.5	57.7967
1152	57.4051
1152.5	57.6476
1153	58.3753
1153.5	59.381
1154	60.5086
1154.5	61.7147
1155	62.9904
1155.5	64.1751
1156	65.0435
1156.5	65.4576
1157	65.462
1157.5	65.3905
1158	65.4133
1158.5	65.417
1159	65.0565
1159.5	64.0861
1160	62.5484
1160.5	61.081
1161	60.1604
1161.5	59.9638
1162	59.8915
1162.5	59.376
1163	58.024
1163.5	56.3727
1164	55.1628
1164.5	55.3091
1165	56.6947
1165.5	58.7827
1166	60.638
1166.5	61.5491
1167	61.3567
1167.5	60.1226
1168	58.3806
1168.5	56.5156
1169	54.989
1169.5	54.1522
1170	54.2086
1170.5	55.2535
1171	56.794
1171.5	58.3107
1172	59.2559
1172.5	59.4611
1173	59.0175
1173.5	57.9892
1174	56.533
1174.5	54.7683
1175	52.9285
1175.5	51.427
1176	50.5879
1176.5	50.6127
1177	51.1605
1177.5	51.7577
1178	51.994
1178.5	51.856
1179	51.6647
1179.5	51.8257
1180	52.5278
1180.5	53.6916
1181	55.1525
1181.5	56.6522
1182	57.9849
1182.5	58.8863
1183	59.1167
1183.5	58.5698
1184	57.1948
1184.5	55.3355
1185	53.5016
1185.5	52.1801
1186	51.6891
1186.5	52.0405
1187	53.1869
1187.5	54.8082
1188	56.4598
1188.5	57.688
1189	58.1754
1189.5	58.0113
1190	57.5196
1190.5	57.266
1191	57.5338
1191.5	58.281
1192	59.0623
1192.5	59.3743
1193	58.8568
1193.5	57.4923
1194	55.6951
1194.5	53.9367
1195	52.7735
1195.5	52.5012
1196	53.2122
1196.5	54.5926
1197	55.9712
1197.5	56.719
1198	56.3886
1198.5	55.2613
1199	53.8764
1199.5	52.9957
1200	52.9486
1200.5	53.6893
1201	54.8205
1201.5	55.8602
1202	56.6492
1202.5	57.2163
1203	57.6582
1203.5	57.9165
1204	57.8101
1204.5	57.3296
1205	56.5694
1205.5	55.7429
1206	55.0232
1206.5	54.432
1207	53.9381
1207.5	53.5801
1208	53.527
1208.5	54.015
1209	54.8914
1209.5	55.8458
1210	56.3429
1210.5	56.1567
1211	55.3119
1211.5	54.027
1212	52.7068
1212.5	51.5236
1213	50.6063
1213.5	50.0253
1214	49.9405
1214.5	50.5942
1215	51.7594
1215.5	53.0914
1216	54.0751
1216.5	54.5257
1217	54.6027
1217.5	54.8034
1218	55.5085
1218.5	56.7226
1219	58.1243
1219.5	59.2063
1220	59.687
1220.5	59.4235
1221	58.6897
1221.5	57.7409
1222	56.8453
1222.5	56.267
1223	56.1958
1223.5	56.7991
1224	57.8575
1224.5	59.0064
1225	59.7672
1225.5	59.9223
1226	59.5832
1226.5	59.0565
1227	58.6745
1227.5	58.4688
1228	58.1929
1228.5	57.6226
1229	56.8528
1229.5	56.3209
1230	56.5003
1230.5	57.461
1231	58.8241
1231.5	59.7472
1232	59.6587
1232.5	58.4273
1233	56.8697
1233.5	55.9773
1234	56.4195
1234.5	57.8961
1235	59.4503
1235.5	60.003
1236	59.0748
1236.5	57.1653
1237	55.2558
1237.5	54.436
1238	54.9524
1238.5	56.3062
1239	57.4454
1239.5	57.6543
1240	56.7478
1240.5	55.3079
1241	54.1892
1241.5	54.0248
1242	54.8745
1242.5	56.1242
1243	57.0147
1243.5	56.9868
1244	56.1748
1244.5	55.0524
1245	54.3909
1245.5	54.6472
1246	55.9339
1246.5	57.8457
1247	59.6399
1247.5	60.6645
1248	60.5023
1248.5	59.3625
1249	57.4365
1249.5	54.9928
1250	52.3908
1250.5	49.9543
1251	48.178
1251.5	47.372
1252	47.7615
1252.5	49.3013
1253	51.2713
1253.5	53.0965
1254	54.2546
1254.5	54.7051
1255	54.5305
1255.5	53.8858
1256	53.0593
1256.5	52.2868
1257	52.0022
1257.5	52.5213
1258	53.949
1258.5	56.063
1259	58.0653
1259.5	59.2746
1260	59.0933
1260.5	57.9721
1261	56.572
1261.5	55.8756
1262	56.3055
1262.5	57.7323
1263	59.6289
1263.5	61.2205
1264	62.0783
1264.5	61.8838
1265	60.97
1265.5	59.6479
1266	58.2876
1266.5	57.1786
1267	56.3919
1267.5	55.8762
1268	55.4655
1268.5	55.1234
1269	54.9575
1269.5	55.0273
1270	55.2373
1270.5	55.1917
1271	54.4624
1271.5	52.9493
1272	51.0966
1272.5	49.8037
1273	49.6625
1273.5	50.8338
1274	52.4154
1274.5	53.4763
1275	53.3188
1275.5	52.3261
1276	51.3155
1276.5	51.0109
1277	51.3298
1277.5	51.7974
1278	52.0435
1278.5	52.2364
1279	52.798
1279.5	53.9851
1280	55.4539
1280.5	57.0475
1281	60.1925
1281.5	68.0173
1282	83.5811
1282.5	109.548
1283	142.715
1283.5	175.873
1284	198.919
1284.5	203.829
1285	189.915
1285.5	161.18
1286	127.273
1286.5	96.6173
1287	74.8005
1287.5	62.5983
1288	57.0691
1288.5	55.5752
1289	55.4943
1289.5	55.4911
1290	55.1655
1290.5	54.3802
1291	53.1702
1291.5	51.7245
1292	50.5436
1292.5	50.0732
1293	50.5524
1293.5	51.7062
1294	52.8673
1294.5	53.5434
1295	53.5701
1295.5	53.1992
1296	52.6729
1296.5	52.1385
1297	51.5929
1297.5	51.0671
1298	50.9088
1298.5	51.6003
1299	53.6555
1299.5	57.2179
1300	61.4715
1300.5	65.2907
1301	67.1814
1301.5	66.6161
1302	63.5505
1302.5	58.9161
1303	54.3377
1303.5	50.8689
1304	49.2028
1304.5	48.9023
1305	49.4132
1305.5	50.0116
1306	50.1939
1306.5	49.8407
1307	49.1809
1307.5	48.6335
1308	48.4457
1308.5	48.6963
1309	49.1068
1309.5	49.4338
1310	49.5446
1310.5	49.6574
1311	50.0754
1311.5	51.0323
1312	52.2325
1312.5	53.2541
1313	53.5544
1313.5	53.1943
1314	52.4931
1314.5	52.0039
1315	51.9614
1315.5	52.1381
1316	52.0026
1316.5	51.2798
1317	50.0855
1317.5	48.9602
1318	48.5035
1318.5	48.9729
1319	50.3291
1319.5	51.8397
1320	52.9982
1320.5	53.3849
1321	53.1261
1321.5	52.5116
1322	51.963
1322.5	51.8124
1323	52.1169
1323.5	52.5775
1324	52.6471
1324.5	51.9654
1325	50.4153
1325.5	48.5807
1326	47.16
1326.5	46.8718
1327	47.6942
1327.5	49.0689
1328	50.2699
1328.5	50.8584
1329	50.8605
1329.5	50.5104
1330	50.1179
1330.5	49.7665
1331	49.4025
1331.5	49.0374
1332	48.8242
1332.5	48.9914
1333	49.5471
1333.5	50.2606
1334	50.7929
1334.5	50.9318
1335	50.7602
1335.5	50.5347
1336	50.4638
1336.5	50.5071
1337	50.4605
1337.5	50.1335
1338	49.5553
1338.5	48.9182
1339	48.5039
1339.5	48.3991
1340	48.5392
1340.5	48.7495
1341	48.9132
1341.5	49.0101
1342	49.0514
1342.5	48.9779
1343	48.57
1343.5	47.6328
1344	46.256
1344.5	44.763
1345	43.7662
1345.5	43.6844
1346	44.6745
1346.5	46.3265
1347	47.7962
1347.5	48.4191
1348	47.9756
1348.5	46.9558
1349	45.9481
1349.5	45.5186
1350	45.7332
1350.5	46.4411
1351	47.3514
1351.5	48.2751
1352	49.1766
1352.5	49.9684
1353	50.4728
1353.5	50.4543
1354	49.7689
1354.5	48.7454
1355	47.8544
1355.5	47.6145
1356	48.0481
1356.5	48.9207
1357	49.7088
1357.5	49.9654
1358	49.5086
1358.5	48.4895
1359	47.5318
1359.5	47.115
1360	47.6577
1360.5	48.8839
1361	50.3383
1361.5	51.26
1362	51.2182
1362.5	50.2401
1363	48.8008
1363.5	47.6898
1364	47.3694
1364.5	48.0914
1365	49.3053
1365.5	50.4799
1366	51.0193
1366.5	50.9734
1367	50.6174
1367.5	50.4191
1368	50.6668
1368.5	51.3559
1369	52.2215
1369.5	52.8162
1370	52.9051
1370.5	52.3979
1371	51.5424
1371.5	50.5354
1372	49.544
1372.5	48.7009
1373	48.1412
1373.5	48.0759
1374	48.4814
1374.5	49.2438
1375	50.2013
1375.5	51.1848
1376	52.153
1376.5	53.0576
1377	53.6974
1377.5	53.8073
1378	53.146
1378.5	52.0214
1379	50.9672
1379.5	50.5029
1380	50.5521
1380.5	50.6137
1381	50.3321
1381.5	50.1558
1382	50.8844
1382.5	53.0459
1383	55.7682
1383.5	57.7673
1384	59.2594
1384.5	64.6009
1385	79.9863
1385.5	112.817
1386	162.382
1386.5	218.963
1387	266.201
1387.5	285.788
1388	271.92
1388.5	227.983
1389	170.153
1389.5	115.878
1390	77.6864
1390.5	58.7992
1391	53.2697
1391.5	54.1384
1392	55.3093
1392.5	55.1063
1393	54.1577
1393.5	53.5724
1394	53.5057
1394.5	53.3886
1395	52.5975
1395.5	51.3018
1396	50.0231
1396.5	49.3461
1397	49.3692
1397.5	49.8959
1398	50.4085
1398.5	50.3991
1399	49.6056
1399.5	48.1498
1400	46.6658
1400.5	45.8843
1401	46.4218
1401.5	47.9875
1402	49.7925
1402.5	50.7511
1403	50.5558
1403.5	49.5005
1404	48.4447
1404.5	48.1153
1405	48.7457
1405.5	50.0756
1406	51.6349
1406.5	53.3995
1407	55.6118
1407.5	58.245
1408	60.9192
1408.5	62.6358
1409	62.7863
1409.5	61.269
1410	58.4339
1410.5	55.2907
1411	52.4327
1411.5	50.2579
1412	48.6811
1412.5	47.6554
1413	47.327
1413.5	47.6239
1414	48.4328
1414.5	49.4472
1415	50.2352
1415.5	50.5855
1416	50.5051
1416.5	50.2857
1417	50.0857
1417.5	49.9598
1418	49.8364
1418.5	49.6495
1419	49.334
1419.5	48.8754
1420	48.2407
1420.5	47.4449
1421	46.7354
1421.5	46.4701
1422	47.2114
1422.5	48.8574
1423	50.8914
1423.5	52.399
1424	52.687
1424.5	51.6084
1425	49.4882
1425.5	47.3727
1426	45.9887
1426.5	45.6868
1427	46.044
1427.5	46.5189
1428	46.6134
1428.5	46.1956
1429	45.4436
1429.5	44.6791
1430	44.1876
1430.5	44.1008
1431	44.5086
1431.5	45.2985
1432	46.2873
1432.5	47.2165
1433	47.8318
1433.5	47.9996
1434	47.6358
1434.5	46.895
1435	46.0305
1435.5	45.3399
1436	45.009
1436.5	45.0208
1437	45.2453
1437.5	45.424
1438	45.3755
1438.5	45.0262
1439	44.554
1439.5	44.2067
1440	44.1987
1440.5	44.5619
1441	45.0949
1441.5	45.4511
1442	45.2051
1442.5	44.2868
1443	42.8507
1443.5	41.4568
1444	40.7084
1444.5	41.0755
1445	42.5343
1445.5	44.3733
1446	45.9101
1446.5	46.7124
1447	46.9465
1447.5	46.9745
1448	47.1552
1448.5	47.4416
1449	47.5011
1449.5	47.0251
1450	46.1211
1450.5	45.0796
1451	44.235
1451.5	43.5902
1452	42.9122
1452.5	42.0264
1453	41.1423
1453.5	40.7166
1454	41.2647
1454.5	42.6429
1455	44.293
1455.5	45.3883
1456	45.6067
1456.5	45.0611
1457	44.2842
1457.5	43.8844
1458	44.054
1458.5	44.555
1459	44.899
1459.5	44.7829
1460	44.093
1460.5	43.1474
1461	42.2621
1461.5	41.715
1462	41.4734
1462.5	41.4287
1463	41.4509
1463.5	41.4832
1464	41.5914
1464.5	41.8884
1465	42.3207
1465.5	42.7514
1466	42.9291
1466.5	42.7671
1467	42.3043
1467.5	41.766
1468	41.418
1468.5	41.4097
1469	41.8899
1469.5	42.7836
1470	44.038
1470.5	45.488
1471	46.7927
1471.5	47.6362
1472	47.6231
1472.5	46.8097
1473	45.3777
1473.5	43.6448
1474	41.9685
1474.5	40.5158
1475	39.4615
1475.5	38.8731
1476	38.8163
1476.5	39.263
1477	39.8309
1477.5	40.1552
1478	39.9235
1478.5	39.2769
1479	38.634
1479.5	38.607
1480	39.4067
1480.5	40.8546
1481	42.5242
1481.5	43.835
1482	44.4224
1482.5	44.1068
1483	43.2202
1483.5	42.1724
1484	41.368
1484.5	41.0156
1485	41.0273
1485.5	41.1046
1486	40.9405
1486.5	40.524
1487	40.1046
1487.5	40.0483
1488	40.4784
1488.5	41.1812
1489	41.6835
1489.5	41.7578
1490	41.491
1490.5	41.3034
1491	41.53
1491.5	42.1607
1492	42.7713
1492.5	42.9866
1493	42.6628
1493.5	42.0377
1494	41.5083
1494.5	41.3045
1495	41.3665
1495.5	41.484
1496	41.5251
1496.5	41.4849
1497	41.4462
1497.5	41.4478
1498	41.4589
1498.5	41.4482
1499	41.4394
1499.5	41.4896
1500	41.5729
1500.5	41.5286
1501	41.1037
1501.5	40.2346
1502	39.0297
1502.5	37.9073
1503	37.3742
1503.5	37.7347
1504	38.9498
1504.5	40.4241
1505	41.5129
1505.5	41.5163
1506	40.4572
1506.5	38.8349
1507	37.5051
1507.5	37.1039
1508	37.8364
1508.5	39.3686
1509	40.7442
1509.5	41.3434
1510	40.9082
1510.5	39.9958
1511	39.1799
1511.5	39.0254
1512	39.3649
1512.5	39.8308
1513	40.0304
1513.5	39.9834
1514	39.9682
1514.5	40.4501
1515	41.3263
1515.5	42.2201
1516	42.4426
1516.5	41.7753
1517	40.3692
1517.5	38.8946
1518	38.0699
1518.5	38.1703
1519	39.1793
1519.5	40.4657
1520	41.5156
1520.5	41.8946
1521	41.6552
1521.5	40.9251
1522	39.8586
1522.5	38.7386
1523	37.8138
1523.5	37.4302
1524	37.7213
1524.5	38.691
1525	40.1793
1525.5	41.616
1526	42.6172
1526.5	42.4172
1527	41.1863
1527.5	39.4582
1528	38.0599
1528.5	37.6748
1529	38.41
1529.5	39.9005
1530	41.2657
1530.5	41.8253
1531	41.2789
1531.5	39.8666
1532	38.2705
1532.5	37.2793
1533	37.3497
1533.5	38.6951
1534	40.917
1534.5	43.4805
1535	45.2413
1535.5	46.0885
1536	46.0585
1536.5	45.5195
1537	44.8754
1537.5	44.4459
1538	44.2833
1538.5	44.2787
1539	44.3822
1539.5	44.6418
1540	45.191
1540.5	46.1027
1541	47.0935
1541.5	47.7336
1542	47.6181
1542.5	46.647
1543	44.9436
1543.5	43.2098
1544	41.938
1544.5	41.4419
1545	41.5506
1545.5	41.9973
1546	42.4083
1546.5	42.6691
1547	42.8062
1547.5	42.9001
1548	42.959
1548.5	42.9073
1549	42.7541
1549.5	42.5637
1550	42.3845
1550.5	42.1183
1551	41.4598
1551.5	40.1584
1552	38.4467
1552.5	36.9664
1553	36.4775
1553.5	37.3776
1554	39.4402
1554.5	41.3805
1555	42.3045
1555.5	41.9795
1556	41.0893
1556.5	40.7282
1557	41.5309
1557.5	43.0666
1558	44.3869
1558.5	44.7641
1559	44.1023
1559.5	43.1862
1560	42.9085
1560.5	43.5526
1561	44.6096
1561.5	45.3343
1562	44.9991
1562.5	43.7863
1563	42.2513
1563.5	40.995
1564	40.2812
1564.5	40.1693
1565	40.577
1565.5	41.3187
1566	42.2722
1566.5	43.1609
1567	43.7004
1567.5	43.541
1568	42.8385
1568.5	41.9741
1569	41.4479
1569.5	41.4907
1570	42.1177
1570.5	42.9729
1571	43.636
1571.5	43.81
1572	43.4829
1572.5	42.782
1573	41.9646
1573.5	41.4072
1574	41.3881
1574.5	42.0558
1575	43.2316
1575.5	44.6003
1576	45.5845
1576.5	45.8165
1577	45.0964
1577.5	43.7383
1578	42.1086
1578.5	40.7142
1579	39.9073
1579.5	39.807
1580	40.295
1580.5	41.1265
1581	42.0904
1581.5	42.9853
1582	43.7154
1582.5	44.1903
1583	44.3455
1583.5	44.0475
1584	43.1664
1584.5	41.8123
1585	40.3292
1585.5	39.265
1586	38.9363
1586.5	39.487
1587	40.4415
1587.5	41.1599
1588	41.0068
1588.5	40.0944
1589	38.8259
1589.5	37.942
1590	37.9274
1590.5	39.0207
1591	40.6679
1591.5	42.3596
1592	43.603
1592.5	44.2549
1593	44.3142
1593.5	43.9532
1594	43.4567
1594.5	43.0262
1595	42.8295
1595.5	42.8918
1596	43.1365
1596.5	43.3241
1597	43.3264
1597.5	43.1384
1598	42.9306
1598.5	42.8657
1599	43.0376
1599.5	43.3316
1600	43.6139
1600.5	43.7958
1601	43.8654
1601.5	43.8022
1602	43.5742
1602.5	43.1702
1603	42.7029
1603.5	42.4177
1604	42.5832
1604.5	43.3021
1605	44.3068
1605.5	45.07
1606	45.2022
1606.5	44.6765
1607	43.7713
1607.5	43.0525
1608	42.8977
1608.5	43.1646
1609	43.3403
1609.5	42.9174
1610	41.7787
1610.5	40.3519
1611	39.6318
1611.5	40.2214
1612	42.0835
1612.5	44.503
1613	46.3762
1613.5	46.8832
1614	45.9883
1614.5	44.6231
1615	43.6116
1615.5	43.2781
1616	43.3829
1616.5	43.4542
1617	43.3721
1617.5	43.5445
1618	44.5165
1618.5	46.1803
1619	47.9076
1619.5	48.5492
1620	47.458
1620.5	44.8301
1621	41.8845
1621.5	39.6186
1622	38.8391
1622.5	39.2955
1623	40.4479
1623.5	41.429
1624	41.8312
1624.5	41.4934
1625	40.6927
1625.5	39.8577
1626	39.6223
1626.5	40.1514
1627	41.2556
1627.5	42.3511
1628	42.8701
1628.5	42.5042
1629	41.514
1629.5	40.511
1630	39.8924
1630.5	39.5811
1631	39.3112
1631.5	38.8629
1632	38.4518
1632.5	38.5429
1633	39.4492
1633.5	40.8834
1634	42.2556
1634.5	42.8411
1635	42.3699
1635.5	41.0867
1636	39.8981
1636.5	39.4316
1637	40.1001
1637.5	41.5661
1638	43.2687
1638.5	44.3289
1639	44.3978
1639.5	43.438
1640	42.0311
1640.5	40.7872
1641	40.3577
1641.5	40.8106
1642	41.8404
1642.5	42.9254
1643	43.6922
1643.5	43.953
1644	43.7868
1644.5	43.3785
1645	42.8766
1645.5	42.324
1646	41.6708
1646.5	40.833
1647	39.8421
1647.5	38.8285
1648	38.1103
1648.5	37.8898
1649	38.2821
1649.5	39.0755
1650	39.964
1650.5	40.5999
1651	40.8543
1651.5	40.8088
1652	40.6237
1652.5	40.4247
1653	40.2723
1653.5	40.2285
1654	40.3764
1654.5	40.8117
1655	41.4195
1655.5	42.0112
1656	42.3474
1656.5	42.4042
1657	42.2986
1657.5	42.2712
1658	42.3512
1658.5	42.3496
1659	41.9876
1659.5	41.1727
1660	39.9957
1660.5	38.8618
1661	38.1042
1661.5	37.9253
1662	38.2554
1662.5	39.05
1663	40.1795
1663.5	41.44
1664	42.4774
1664.5	42.9185
1665	42.5933
1665.5	41.4577
1666	39.9308
1666.5	38.4224
1667	37.4792
1667.5	37.4143
1668	38.4086
1668.5	40.242
1669	42.3781
1669.5	43.9556
1670	44.2196
1670.5	42.8541
1671	40.4395
1671.5	38.2306
1672	37.1943
1672.5	37.6898
1673	39.1254
1673.5	40.5953
1674	41.2841
1674.5	41.2175
1675	40.7814
1675.5	40.436
1676	40.2801
1676.5	40.1385
1677	39.8395
1677.5	39.4628
1678	39.3119
1678.5	39.5297
1679	40.0843
1679.5	40.6855
1680	41.1242
1680.5	41.3073
1681	41.3627
1681.5	41.3297
1682	41.1309
1682.5	40.6889
1683	39.9789
1683.5	39.1777
1684	38.5194
1684.5	38.2401
1685	38.3737
1685.5	38.9397
1686	39.9218
1686.5	41.1286
1687	42.2611
1687.5	42.8105
1688	42.5817
1688.5	41.6351
1689	40.5811
1689.5	40.0072
1690	40.4279
1690.5	41.5541
1691	42.7235
1691.5	43.0446
1692	42.2789
1692.5	40.5934
1693	38.7995
1693.5	37.6476
1694	37.8113
1694.5	39.0214
1695	40.6381
1695.5	41.8805
1696	42.3889
1696.5	42.1502
1697	41.5572
1697.5	41.0099
1698	40.664
1698.5	40.3502
1699	39.9495
1699.5	39.5457
1700	39.4168
1700.5	39.7822
1701	40.5694
1701.5	41.2701
1702	41.3914
1702.5	40.8653
1703	40.0874
1703.5	39.7061
1704	40.1597
1704.5	41.4691
1705	43.1925
1705.5	44.657
1706	45.4372
1706.5	45.3285
1707	44.4424
1707.5	42.8606
1708	40.8402
1708.5	38.6502
1709	36.6595
1709.5	35.1567
1710	34.3532
1710.5	34.3817
1711	35.0732
1711.5	36.2676
1712	37.65
1712.5	38.9523
1713	39.9711
1713.5	40.6161
1714	40.8195
1714.5	40.4295
1715	39.4804
1715.5	38.0715
1716	36.6939
1716.5	35.8737
1717	36.0216
1717.5	36.9676
1718	38.1471
1718.5	38.7913
1719	38.5888
1719.5	37.8581
1720	37.4193
1720.5	37.7274
1721	38.7408
1721.5	39.776
1722	40.1722
1722.5	39.5498
1723	38.4193
1723.5	37.5203
1724	37.5107
1724.5	38.3145
1725	39.6222
1725.5	40.9089
1726	41.8477
1726.5	42.3032
1727	42.4263
1727.5	42.4034
1728	42.3742
1728.5	42.396
1729	42.412
1729.5	42.2261
1730	41.6608
1730.5	40.6227
1731	39.3351
1731.5	38.137
1732	37.3521
1732.5	37.0686
1733	37.1839
1733.5	37.568
1734	38.0917
1734.5	38.7239
1735	39.3581
1735.5	39.7912
1736	39.809
1736.5	39.4348
1737	38.9851
1737.5	38.9691
1738	39.6157
1738.5	40.64
1739	41.3919
1739.5	41.434
1740	40.7327
1740.5	39.82
1741	39.3237
1741.5	39.6186
1742	40.3112
1742.5	40.8039
1743	40.6372
1743.5	40.0062
1744	39.3116
1744.5	38.9702
1745	38.9053
1745.5	38.6962
1746	37.9012
1746.5	36.6322
1747	35.3752
1747.5	34.7529
1748	35.0124
1748.5	36.0638
1749	37.3041
1749.5	38.2927
1750	38.8952
1750.5	39.3094
1751	39.7067
1751.5	40.1074
1752	40.3843
1752.5	40.3581
1753	40.063
1753.5	39.6495
1754	39.2815
1754.5	38.9068
1755	38.3273
1755.5	37.3537
1756	36.0873
1756.5	34.9018
1757	34.3587
1757.5	34.7424
1758	35.9184
1758.5	37.2129
1759	38.1228
1759.5	38.4032
1760	38.3445
1760.5	38.3492
1761	38.6768
1761.5	39.1383
1762	39.276
1762.5	38.8597
1763	37.9815
1763.5	36.9837
1764	36.1953
1764.5	35.7201
1765	35.4476
1765.5	35.2545
1766	35.1929
1766.5	35.4014
1767	35.9305
1767.5	36.7562
1768	37.7106
1768.5	38.6969
1769	39.612
1769.5	40.278
1770	40.3945
1770.5	39.7511
1771	38.5052
1771.5	37.092
1772	36.1469
1772.5	35.9934
1773	36.655
1773.5	37.6317
1774	38.5879
1774.5	39.4705
1775	40.4019
1775.5	41.3807
1776	42.0874
1776.5	42.1298
1777	41.1049
1777.5	39.2949
1778	37.2575
1778.5	35.7233
1779	34.9889
1779.5	35.1183
1780	35.8519
1780.5	36.8356
1781	37.7635
1781.5	38.3805
1782	38.55
1782.5	38.2267
1783	37.6465
1783.5	37.0595
1784	36.7743
1784.5	36.8895
1785	37.3531
1785.5	37.8467
1786	38.0346
1786.5	37.6587
1787	36.9068
1787.5	36.0944
1788	35.624
1788.5	35.5928
1789	35.8871
1789.5	36.1934
1790	36.341
1790.5	36.4113
1791	36.6814
1791.5	37.2239
1792	37.8284
1792.5	38.086
1793	37.7396
1793.5	36.8395
1794	35.8117
1794.5	35.0475
1795	34.653
1795.5	34.3972
1796	34.0512
1796.5	33.6329
1797	33.3664
1797.5	33.6088
1798	34.4189
1798.5	35.6996
1799	37.1149
1799.5	38.3137
1800	39.0063
1800.5	39.0843
1801	38.6388
1801.5	37.9349
1802	37.4607
1802.5	37.548
1803	38.2163
1803.5	38.8665
1804	38.7315
1804.5	37.425
1805	35.3648
1805.5	33.4277
1806	32.5164
1806.5	32.8505
1807	34.01
1807.5	34.9367
1808	34.9048
1808.5	33.9169
1809	32.7372
1809.5	32.1188
1810	32.387
1810.5	33.2784
1811	34.2946
1811.5	35.0325
1812	35.5089
1812.5	36.1173
1813	37.203
1813.5	38.7811
1814	40.3948
1814.5	41.4578
1815	41.3702
1815.5	40.0801
1816	37.9649
1816.5	35.7762
1817	34.3996
1817.5	34.4055
1818	35.7556
1818.5	37.6878
1819	39.3376
1819.5	39.9362
1820	39.382
1820.5	37.9646
1821	36.505
1821.5	35.5581
1822	35.4159
1822.5	35.6536
1823	35.847
1823.5	35.616
1824	34.9013
1824.5	33.7475
1825	32.3752
1825.5	31.0084
1826	29.9937
1826.5	29.6588
1827	30.2292
1827.5	31.6194
1828	33.2607
1828.5	34.5048
1829	34.8181
1829.5	34.2565
1830	33.2839
1830.5	32.7873
1831	33.3607
1831.5	35.3158
1832	37.8297
1832.5	40.0229
1833	40.9816
1833.5	40.5909
1834	39.1691
1834.5	37.6811
1835	36.8699
1835.5	37.2107
1836	38.2767
1836.5	39.4343
1837	40.0024
1837.5	39.867
1838	39.1375
1838.5	38.1224
1839	37.0461
1839.5	36.0219
1840	35.1242
1840.5	34.4283
1841	34.04
1841.5	33.8626
1842	33.7398
1842.5	33.5197
1843	33.2201
1843.5	32.9666
1844	32.8796
1844.5	32.9211
1845	32.9384
1845.5	32.8218
1846	32.6578
1846.5	32.7651
1847	33.2916
1847.5	34.1327
1848	34.825
1848.5	34.9697
1849	34.3853
1849.5	33.4923
1850	32.888
1850.5	33.2563
1851	34.5742
1851.5	36.4587
1852	38.1372
1852.5	39.1616
1853	39.3992
1853.5	39.1407
1854	38.7348
1854.5	38.365
1855	37.9644
1855.5	37.3713
1856	36.4575
1856.5	35.4028
1857	34.5205
1857.5	34.1573
1858	34.3651
1858.5	35.0364
1859	35.7835
1859.5	36.2799
1860	36.271
1860.5	35.8865
1861	35.3769
1861.5	35.1004
1862	35.183
1862.5	35.5218
1863	35.8184
1863.5	35.8775
1864	35.6699
1864.5	35.437
1865	35.4099
1865.5	35.7288
1866	36.1898
1866.5	36.5045
1867	36.3768
1867.5	35.8598
1868	35.173
1868.5	34.6131
1869	34.2793
1869.5	34.1105
1870	33.9075
1870.5	33.5724
1871	33.1532
1871.5	32.8371
1872	32.8083
1872.5	33.1643
1873	33.8085
1873.5	34.607
1874	35.3668
1874.5	35.9589
1875	36.2726
1875.5	36.3769
1876	36.3706
1876.5	36.3666
1877	36.3544
1877.5	36.19
1878	35.6998
1878.5	34.93
1879	34.125
1879.5	33.5844
1880	33.3845
1880.5	33.3502
1881	33.1697
1881.5	32.6993
1882	32.0774
1882.5	31.5767
1883	31.3834
1883.5	31.3994
1884	31.4223
1884.5	31.3204
1885	31.1439
1885.5	30.9349
1886	30.6484
1886.5	30.2509
1887	29.8555
1887.5	29.8157
1888	30.3797
1888.5	31.5546
1889	32.7479
1889.5	33.347
1890	33.006
1890.5	32.2776
1891	31.8458
1891.5	32.3021
1892	33.5269
1892.5	35.0787
1893	36.3021
1893.5	36.8704
1894	36.614
1894.5	35.7906
1895	34.6789
1895.5	33.7567
1896	33.4179
1896.5	33.8635
1897	34.8057
1897.5	35.6394
1898	35.7352
1898.5	34.9916
1899	33.781
1899.5	32.7726
1900	32.3847
1900.5	32.643
1901	33.1981
1901.5	33.6289
1902	33.6777
1902.5	33.2528
1903	32.3592
1903.5	31.0368
1904	29.6712
1904.5	28.7649
1905	28.9453
1905.5	30.1441
1906	31.8899
1906.5	33.1939
1907	33.4572
1907.5	32.5887
1908	31.4488
1908.5	30.7922
1909	31.0379
1909.5	31.7162
1910	32.2625
1910.5	32.2348
1911	31.8058
1911.5	31.3767
1912	31.3305
1912.5	31.6446
1913	32.0609
1913.5	32.2996
1914	32.3656
1914.5	32.5178
1915	32.9486
1915.5	33.6459
1916	34.3483
1916.5	34.7948
1917	34.8391
1917.5	34.6084
1918	34.3238
1918.5	34.206
1919	34.2984
1919.5	34.5308
1920	34.7533
1920.5	34.8671
1921	34.872
1921.5	34.8613
1922	34.9024
1922.5	34.9611
1923	34.8465
1923.5	34.3503
1924	33.2644
1924.5	31.7775
1925	30.2129
1925.5	29.0779
1926	28.621
1926.5	28.8879
1927	29.5303
1927.5	30.1897
1928	30.7071
1928.5	31.2337
1929	31.9691
1929.5	32.9758
1930	33.9394
1930.5	34.3874
1931	33.9069
1931.5	32.6125
1932	30.9529
1932.5	29.7337
1933	29.4553
1933.5	30.3933
1934	31.9793
1934.5	33.6202
1935	34.7555
1935.5	35.2911
1936	35.3108
1936.5	35.0323
1937	34.5387
1937.5	33.7569
1938	32.7463
1938.5	31.7645
1939	31.3805
1939.5	31.9087
1940	33.3243
1940.5	34.9262
1941	35.8366
1941.5	35.4695
1942	34.1791
1942.5	32.7308
1943	31.9396
1943.5	31.8738
1944	32.1357
1944.5	32.1
1945	31.6468
1945.5	31.1513
1946	31.3116
1946.5	32.3711
1947	34.099
1947.5	35.651
1948	36.4086
1948.5	36.0759
1949	35.1649
1949.5	34.1225
1950	33.299
1950.5	32.7369
1951	32.4382
1951.5	32.4593
1952	32.9126
1952.5	33.939
1953	35.327
1953.5	36.7439
1954	37.6934
1954.5	37.9386
1955	37.4194
1955.5	36.4271
1956	35.3938
1956.5	34.6644
1957	34.2549
1957.5	33.9334
1958	33.3227
1958.5	32.3059
1959	31.0148
1959.5	29.8333
1960	29.0364
1960.5	28.7447
1961	28.9106
1961.5	29.5515
1962	30.9165
1962.5	32.9681
1963	35.3145
1963.5	36.9661
1964	37.261
1964.5	36.16
1965	34.5665
1965.5	33.4774
1966	33.3923
1966.5	33.8353
1967	34.1574
1967.5	34.0225
1968	33.8526
1968.5	34.0986
1969	34.761
1969.5	35.1783
1970	34.6846
1970.5	33.3335
1971	31.9136
1971.5	31.39
1972	31.8839
1972.5	32.8244
1973	33.4147
1973.5	33.4183
1974	33.0108
1974.5	32.5446
1975	32.1509
1975.5	31.8262
1976	31.6413
1976.5	31.7433
1977	32.2082
1977.5	32.6976
1978	32.8312
1978.5	32.4527
1979	31.9889
1979.5	31.9432
1980	32.4066
1980.5	32.849
1981	32.6393
1981.5	31.8527
1982	31.0945
1982.5	31.1232
1983	31.8011
1983.5	32.4773
1984	32.3272
1984.5	31.3917
1985	30.3086
1985.5	29.9294
1986	30.363
1986.5	31.0815
1987	31.2911
1987.5	30.7867
1988	30.0284
1988.5	29.7319
1989	30.2125
1989.5	31.068
1990	31.6447
1990.5	31.4931
1991	30.7765
1991.5	29.9092
1992	29.3296
1992.5	29.1343
1993	29.2713
1993.5	29.6905
1994	30.4167
1994.5	31.539
1995	32.8902
1995.5	34.0437
1996	34.37
1996.5	33.6836
1997	32.2957
1997.5	31.0467
1998	30.6719
1998.5	31.382
1999	32.5474
1999.5	33.3243
2000	33.2329
2000.5	32.666
2001	32.3308
2001.5	32.8245
2002	33.7661
2002.5	34.362
2003	33.7223
2003.5	32.0206
2004	30.0617
2004.5	29.0368
2005	29.2712
2005.5	30.2905
2006	30.9004
2006.5	30.5414
2007	29.5634
2007.5	29.1941
2008	30.285
2008.5	32.667
2009	35.0557
2009.5	36.2295
2010	35.9188
2010.5	34.7768
2011	33.658
2011.5	32.9516
2012	32.4892
2012.5	31.94
2013	31.3031
2013.5	30.8271
2014	30.7135
2014.5	30.8204
2015	30.8914
2015.5	30.8568
2016	30.9156
2016.5	31.3626
2017	32.0844
2017.5	32.7538
2018	32.9911
2018.5	32.826
2019	32.4618
2019.5	32.0526
2020	31.4688
2020.5	30.48
2021	29.2925
2021.5	28.4269
2022	28.5737
2022.5	29.6098
2023	30.8705
2023.5	31.2018
2024	30.1427
2024.5	27.9685
2025	26.0374
2025.5	25.4767
2026	27.0276
2026.5	29.7484
2027	32.4088
2027.5	33.6443
2028	33.3029
2028.5	31.8986
2029	30.5629
2029.5	29.9079
2030	29.9354
2030.5	29.938
2031	29.3997
2031.5	28.2674
2032	27.2133
2032.5	26.9447
2033	27.9048
2033.5	29.7315
2034	31.7281
2034.5	33.0149
2035	33.2492
2035.5	32.4921
2036	31.4912
2036.5	30.8101
2037	30.7398
2037.5	30.998
2038	31.2532
2038.5	31.3665
2039	31.5259
2039.5	31.9765
2040	32.5845
2040.5	32.9252
2041	32.4353
2041.5	31.2574
2042	29.9316
2042.5	29.3113
2043	29.6529
2043.5	30.7026
2044	31.6514
2044.5	32.0118
2045	31.6725
2045.5	31.0567
2046	30.4565
2046.5	29.9313
2047	29.3343
2047.5	28.6178
2048	28.0234
2048.5	27.8722
2049	28.3856
2049.5	29.2702
2050	30.0471
2050.5	30.2292
2051	29.9486
2051.5	29.6399
2052	29.8857
2052.5	30.7174
2053	31.7425
2053.5	32.2801
2054	32.0926
2054.5	31.3716
2055	30.7238
2055.5	30.4335
2056	30.3724
2056.5	30.1552
2057	29.6806
2057.5	29.3178
2058	29.4739
2058.5	30.2138
2059	30.9441
2059.5	31.1386
2060	30.6586
2060.5	30.1729
2061	30.2931
2061.5	31.1698
2062	32.0859
2062.5	32.1823
2063	31.0616
2063.5	29.2224
2064	27.5621
2064.5	26.8312
2065	27.1292
2065.5	28.1326
2066	29.1847
2066.5	29.9247
2067	30.2615
2067.5	30.4219
2068	30.6943
2068.5	31.2699
2069	32.0212
2069.5	32.4469
2070	31.9682
2070.5	30.3128
2071	27.7649
2071.5	25.3304
2072	23.9776
2072.5	24.2223
2073	25.6586
2073.5	27.614
2074	29.364
2074.5	30.7147
2075	31.7192
2075.5	32.486
2076	32.8467
2076.5	32.5108
2077	31.5776
2077.5	30.4358
2078	29.7537
2078.5	29.8488
2079	30.7129
2079.5	31.7945
2080	32.6549
2080.5	32.9877
2081	32.8647
2081.5	32.3822
2082	31.7293
2082.5	31.1811
2083	31.1436
2083.5	31.8916
2084	33.2952
2084.5	34.7595
2085	35.4568
2085.5	34.9371
2086	33.3706
2086.5	31.6467
2087	30.5865
2087.5	30.5489
2088	31.1762
2088.5	31.8284
2089	31.9213
2089.5	31.3265
2090	30.2694
2090.5	29.3138
2091	28.9116
2091.5	29.3214
2092	30.3308
2092.5	31.5619
2093	32.4913
2093.5	32.8542
2094	32.5251
2094.5	31.7465
2095	30.7206
2095.5	29.6674
2096	28.7847
2096.5	28.2777
2097	28.2805
2097.5	28.677
2098	29.171
2098.5	29.3237
2099	28.9399
2099.5	28.1322
2100	27.4647
2100.5	27.4079
2101	28.0809
2101.5	28.957
2102	29.3471
2102.5	28.9012
2103	27.974
2103.5	27.3123
2104	27.3371
2104.5	27.7709
2105	27.7567
2105.5	26.8726
2106	25.4275
2106.5	24.5049
2107	24.76
2107.5	26.1502
2108	27.6499
2108.5	28.5098
2109	28.5332
2109.5	28.4095
2110	28.6578
2110.5	29.3728
2111	30.1749
2111.5	30.8037
2112	31.3517
2112.5	32.0415
2113	32.9108
2113.5	33.6203
2114	33.8295
2114.5	33.3269
2115	32.3917
2115.5	31.3336
2116	30.4894
2116.5	29.9957
2117	29.8865
2117.5	29.9579
2118	29.9467
2118.5	29.5949
2119	28.9725
2119.5	28.3128
2120	27.9226
2120.5	27.8437
2121	27.9801
2121.5	28.1837
2122	28.4153
2122.5	28.6667
2123	28.8359
2123.5	28.8082
2124	28.5674
2124.5	28.3342
2125	28.2776
2125.5	28.3474
2126	28.3169
2126.5	28.0719
2127	27.8139
2127.5	27.758
2128	27.8482
2128.5	27.6598
2129	26.9571
2129.5	26.0542
2130	25.6889
2130.5	26.3152
2131	27.5105
2131.5	28.3398
2132	28.0551
2132.5	26.9636
2133	25.8651
2133.5	25.5842
2134	26.0312
2134.5	26.785
2135	27.4074
2135.5	27.9175
2136	28.5573
2136.5	29.4773
2137	30.543
2137.5	31.442
2138	31.8546
2138.5	31.5514
2139	30.3252
2139.5	28.4696
2140	26.4858
2140.5	25.2232
2141	25.1693
2141.5	26.5093
2142	28.6371
2142.5	30.801
2143	32.1372
2143.5	32.255
2144	31.057
2144.5	28.9195
2145	26.7799
2145.5	25.6194
2146	26.0677
2146.5	27.818
2147	30.0242
2147.5	31.5137
2148	31.7494
2148.5	30.7327
2149	29.2921
2149.5	28.0732
2150	27.4804
2150.5	27.404
2151	27.6298
2151.5	27.9076
2152	28.1449
2152.5	28.3217
2153	28.4736
2153.5	28.6581
2154	28.9746
2154.5	29.4156
2155	29.807
2155.5	29.764
2156	29.095
2156.5	27.929
2157	26.9794
2157.5	26.8474
2158	27.8256
2158.5	29.198
2159	30.1741
2159.5	30.1492
2160	29.344
2160.5	28.211
2161	27.2282
2161.5	26.5417
2162	26.2598
2162.5	26.4524
2163	27.1444
2163.5	28.0743
2164	28.7098
2164.5	28.7063
2165	28.2589
2165.5	27.9486
2166	28.2512
2166.5	29.0047
2167	29.7025
2167.5	29.7887
2168	29.2908
2168.5	28.4625
2169	27.6565
2169.5	27.0652
2170	26.8344
2170.5	27.1009
2171	27.885
2171.5	29.0973
2172	30.3646
2172.5	31.3811
2173	31.8682
2173.5	31.8057
2174	31.1829
2174.5	30.1975
2175	29.2961
2175.5	29.0312
2176	29.5987
2176.5	30.6126
2177	31.2835
2177.5	31.1505
2178	30.3843
2178.5	29.679
2179	29.4217
2179.5	29.3634
2180	28.7989
2180.5	27.5885
2181	26.3813
2181.5	26.2489
2182	27.4773
2182.5	29.3081
2183	30.3076
2183.5	29.7971
2184	28.3653
2184.5	27.3254
2185	27.5212
2185.5	28.5557
2186	29.5326
2186.5	29.8553
2187	29.9028
2187.5	30.1877
2188	30.7717
2188.5	31.0433
2189	30.4828
2189.5	29.276
2190	28.1026
2190.5	27.365
2191	26.6185
2191.5	25.2235
2192	22.9126
2192.5	20.6171
2193	19.4062
2193.5	19.9849
2194	21.7623
2194.5	23.8639
2195	25.504
2195.5	26.6439
2196	27.6074
2196.5	28.7094
2197	29.8769
2197.5	30.6603
2198	30.6667
2198.5	29.6634
2199	27.828
2199.5	25.7134
2200	23.9534
2200.5	23.0902
2201	23.315
2201.5	24.6912
2202	26.6218
2202.5	28.4422
2203	29.3078
2203.5	29.0503
2204	28.03
2204.5	27.2555
2205	27.3271
2205.5	28.1683
2206	28.8058
2206.5	28.5441
2207	27.2825
2207.5	25.8747
2208	24.9922
2208.5	24.8285
2209	25.0642
2209.5	25.5977
2210	26.6564
2210.5	28.373
2211	30.3993
2211.5	31.7603
2212	31.738
2212.5	30.1847
2213	27.9961
2213.5	26.0268
2214	24.8393
2214.5	24.3804
2215	24.4859
2215.5	24.8824
2216	25.4097
2216.5	25.9088
2217	26.2731
2217.5	26.495
2218	26.6829
2218.5	26.9539
2219	27.3501
2219.5	27.7862
2220	28.1435
2220.5	28.3216
2221	28.3889
2221.5	28.5061
2222	28.8889
2222.5	29.5105
2223	30.1503
2223.5	30.4387
2224	30.2712
2224.5	29.7843
2225	29.3151
2225.5	28.954
2226	28.4771
2226.5	27.633
2227	26.4517
2227.5	25.3876
2228	24.9283
2228.5	25.3772
2229	26.6023
2229.5	28.2338
2230	29.8319
2230.5	30.8486
2231	30.8315
2231.5	29.4554
2232	27.4075
2232.5	25.726
2233	25.6142
2233.5	27.127
2234	29.5243
2234.5	31.3245
2235	31.7727
2235.5	30.7354
2236	29.052
2236.5	27.3182
2237	26.0089
2237.5	25.4027
2238	25.9008
2238.5	27.5975
2239	29.8331
2239.5	31.3281
2240	30.9967
2240.5	28.8822
2241	26.1808
2241.5	24.5843
2242	24.8416
2242.5	26.3554
2243	27.7219
2243.5	27.9956
2244	27.4067
2244.5	26.8259
2245	27.0425
2245.5	27.8809
2246	28.7267
2246.5	28.8885
2247	28.3797
2247.5	27.5343
2248	26.822
2248.5	26.3809
2249	26.142
2249.5	25.9485
2250	25.7602
2250.5	25.5723
2251	25.2961
2251.5	24.7957
2252	24.0498
2252.5	23.349
2253	23.1451
2253.5	23.7384
2254	24.9499
2254.5	26.3086
2255	27.292
2255.5	27.7743
2256	27.9489
2256.5	28.1401
2257	28.4149
2257.5	28.5758
2258	28.4306
2258.5	27.9173
2259	27.2561
2259.5	26.7071
2260	26.5601
2260.5	26.8997
2261	27.7268
2261.5	28.8757
2262	29.9918
2262.5	30.7117
2263	30.7923
2263.5	30.3146
2264	29.5292
2264.5	28.894
2265	28.7084
2265.5	29.0782
2266	29.6107
2266.5	29.8365
2267	29.3611
2267.5	28.3367
2268	27.1668
2268.5	26.3
2269	25.7932
2269.5	25.5134
2270	25.3983
2270.5	25.6744
2271	26.6385
2271.5	27.9852
2272	29.0696
2272.5	29.2913
2273	28.9104
2273.5	28.7861
2274	29.6473
2274.5	31.2687
2275	32.5283
2275.5	32.4846
2276	31.0726
2276.5	29.2682
2277	28.0953
2277.5	27.8557
2278	27.8119
2278.5	27.2458
2279	25.9576
2279.5	24.6881
2280	24.1896
2280.5	24.9381
2281	26.4396
2281.5	28.0732
2282	29.2693
2282.5	29.97
2283	30.2874
2283.5	30.3402
2284	30.0352
2284.5	29.1152
2285	27.7066
2285.5	26.1721
2286	25.1712
2286.5	25.038
2287	25.7884
2287.5	26.9106
2288	27.8784
2288.5	28.3482
2289	28.4059
2289.5	28.2153
2290	27.8089
2290.5	27.1523
2291	26.2713
2291.5	25.4864
2292	25.17
2292.5	25.533
2293	26.2391
2293.5	26.7942
2294	26.8038
2294.5	26.4383
2295	25.9807
2295.5	25.5486
2296	24.9361
2296.5	23.9561
2297	22.904
2297.5	22.4078
2298	23.0862
2298.5	24.6557
2299	26.3173
2299.5	27.0303
2300	26.6445
2300.5	25.533
2301	24.5339
2301.5	24.2225
2302	24.8235
2302.5	25.9514
2303	26.9946
2303.5	27.2727
2304	26.6975
2304.5	25.6584
2305	24.9516
2305.5	24.9914
2306	25.6485
2306.5	26.2458
2307	26.3548
2307.5	26.0292
2308	25.839
2308.5	26.1538
2309	27.0424
2309.5	28.1187
2310	29.114
2310.5	29.7681
2311	29.9043
2311.5	29.345
2312	28.332
2312.5	27.4742
2313	27.5186
2313.5	28.4548
2314	29.6222
2314.5	29.8963
2315	28.9366
2315.5	27.109
2316	25.4129
2316.5	24.3792
2317	23.874
2317.5	23.1996
2318	22.0964
2318.5	21.0924
2319	21.1411
2319.5	22.7588
2320	25.5861
2320.5	28.3561
2321	30.0041
2321.5	30.2756
2322	29.8121
2322.5	29.327
2323	29.088
2323.5	28.9086
2324	28.6565
2324.5	28.6458
2325	29.3264
2325.5	30.8945
2326	33.0978
2326.5	36.0079
2327	40.0824
2327.5	45.4801
2328	51.2752
2328.5	55.0229
2329	54.6089
2329.5	49.1205
2330	41.0676
2330.5	33.306
2331	28.2033
2331.5	25.6712
2332	24.6855
2332.5	23.9768
2333	23.4072
2333.5	23.58
2334	24.6683
2334.5	26.287
2335	27.4939
2335.5	27.799
2336	27.2394
2336.5	26.5078
2337	26.1918
2337.5	26.5506
2338	27.1487
2338.5	27.4922
2339	27.2998
2339.5	26.9347
2340	26.8465
2340.5	27.116
2341	27.1932
2341.5	26.3165
2342	24.4251
2342.5	22.2827
2343	21.1779
2343.5	21.5491
2344	23.0538
2344.5	24.6323
2345	25.4498
2345.5	25.2276
2346	24.3734
2346.5	23.4524
2347	22.9524
2347.5	23.0992
2348	23.9289
2348.5	25.2943
2349	26.628
2349.5	27.3308
2350	27.0386
2350.5	26.2182
2351	25.6896
2351.5	26.0795
2352	27.1282
2352.5	27.847
2353	27.4137
2353.5	25.8977
2354	24.3742
2354.5	23.9089
2355	24.7719
2355.5	26.0352
2356	26.6322
2356.5	26.0238
2357	24.8677
2357.5	24.004
2358	24.0179
2358.5	24.6345
2359	25.4809
2359.5	26.228
2360	26.7693
2360.5	26.975
2361	26.6982
2361.5	25.9794
2362	25.1783
2362.5	24.9544
2363	25.7173
2363.5	27.4077
2364	29.182
2364.5	30.2284
2365	30.1221
2365.5	29.1564
2366	27.776
2366.5	26.4821
2367	25.5467
2367.5	25.3575
2368	26.0509
2368.5	27.5185
2369	28.9368
2369.5	29.273
2370	27.9026
2370.5	25.585
2371	23.8305
2371.5	23.9748
2372	25.6267
2372.5	27.5506
2373	28.2202
2373.5	27.4576
2374	25.8872
2374.5	24.6405
2375	24.2146
2375.5	24.5774
2376	25.2331
2376.5	25.869
2377	26.3665
2377.5	26.7556
2378	27.0067
2378.5	27.0058
2379	26.7275
2379.5	26.253
2380	25.9184
2380.5	26.0683
2381	26.9617
2381.5	28.2839
2382	29.4765
2382.5	29.8192
2383	29.2131
2383.5	27.8857
2384	26.4073
2384.5	25.2023
2385	24.5917
2385.5	24.7922
2386	25.8501
2386.5	27.6075
2387	29.2685
2387.5	30.0465
2388	29.331
2388.5	27.5802
2389	25.526
2389.5	23.9949
2390	23.1443
2390.5	22.9002
2391	23.1431
2391.5	23.9534
2392	25.4188
2392.5	27.0098
2393	28.007
2393.5	27.7133
2394	26.3562
2394.5	24.6304
2395	23.5508
2395.5	23.5038
2396	24.2803
2396.5	25.0534
2397	25.2844
2397.5	24.8476
2398	24.3131
2398.5	24.2703
2399	24.9501
2399.5	25.8974
2400	26.4501
2400.5	26.3309
2401	25.8553
2401.5	25.5368
2402	25.3981
2402.5	25.1318
2403	24.6335
2403.5	24.4502
2404	25.2719
2404.5	26.9584
2405	28.3914
2405.5	28.1427
2406	26.1594
2406.5	23.5344
2407	21.9994
2407.5	21.9725
2408	22.9783
2408.5	24.0533
2409	24.7486
2409.5	25.0245
2410	24.9898
2410.5	24.694
2411	24.3495
2411.5	24.4761
2412	25.4432
2412.5	27.0319
2413	28.2684
2413.5	28.3128
2414	27.0535
2414.5	25.2238
2415	23.7587
2415.5	23.2573
2416	23.7379
2416.5	24.9931
2417	26.5737
2417.5	28.2679
2418	29.8482
2418.5	31.0057
2419	31.1933
2419.5	29.9593
2420	27.4088
2420.5	24.1887
2421	21.6369
2421.5	20.7283
2422	21.9526
2422.5	24.3589
2423	26.7249
2423.5	27.6983
2424	26.983
2424.5	24.8782
2425	22.5967
2425.5	21.1207
2426	21.2003
2426.5	22.4123
2427	24.1257
2427.5	25.5276
2428	26.2357
2428.5	26.1618
2429	25.6044
2429.5	24.9079
2430	24.3577
2430.5	24.0368
2431	23.8892
2431.5	23.8939
2432	24.1233
2432.5	24.646
2433	25.2005
2433.5	25.3132
2434	24.7409
2434.5	24.0169
2435	23.8232
2435.5	24.4608
2436	25.131
2436.5	25.046
2437	24.1573
2437.5	23.5592
2438	24.2689
2438.5	26.0392
2439	27.5517
2439.5	27.6801
2440	26.7332
2440.5	25.5924
2441	24.9025
2441.5	24.3511
2442	23.5307
2442.5	22.6129
2443	22.2534
2443.5	22.8093
2444	23.6367
2444.5	24.0359
2445	23.8569
2445.5	23.8557
2446	24.6052
2446.5	25.9895
2447	27.1078
2447.5	27.2416
2448	26.3786
2448.5	25.1833
2449	24.1833
2449.5	23.4585
2450	22.829
2450.5	22.1619
2451	21.5652
2451.5	21.266
2452	21.5343
2452.5	22.4071
2453	23.8174
2453.5	25.3549
2454	26.5741
2454.5	27.0256
2455	26.7624
2455.5	26.1148
2456	25.5878
2456.5	25.3669
2457	25.2228
2457.5	24.571
2458	23.2488
2458.5	21.6194
2459	20.6125
2459.5	20.7942
2460	22.1857
2460.5	23.6894
2461	24.3402
2461.5	23.663
2462	22.3844
2462.5	21.4727
2463	21.4757
2463.5	22.0813
2464	22.672
2464.5	22.8388
2465	22.6591
2465.5	22.4257
2466	22.3084
2466.5	22.3098
2467	22.4921
2467.5	23.0196
2468	24.0269
2468.5	25.2423
2469	26.2273
2469.5	26.5856
2470	26.4858
2470.5	26.2419
2471	26.0528
2471.5	25.754
2472	25.1581
2472.5	24.4314
2473	23.9928
2473.5	24.2036
2474	24.8649
2474.5	25.5672
2475	25.9801
2475.5	26.2124
2476	26.361
2476.5	26.1392
2477	25.1385
2477.5	23.2129
2478	21.1753
2478.5	20.1037
2479	20.8895
2479.5	22.8447
2480	24.7002
2480.5	25.2812
2481	24.8838
2481.5	24.418
2482	24.7982
2482.5	25.798
2483	26.4127
2483.5	25.6729
2484	23.6768
2484.5	21.5481
2485	20.5098
2485.5	20.9878
2486	22.5237
2486.5	24.1204
2487	25.1024
2487.5	25.3428
2488	25.1518
2488.5	24.8903
2489	24.7788
2489.5	24.8301
2490	24.9343
2490.5	24.9397
2491	24.7806
2491.5	24.5383
2492	24.3606
2492.5	24.3222
2493	24.361
2493.5	24.4503
2494	24.7004
2494.5	25.1642
2495	25.6838
2495.5	25.8036
2496	25.3037
2496.5	24.3913
2497	23.7647
2497.5	23.7673
2498	24.279
2498.5	24.731
2499	24.8709
2499.5	24.8321
2500	24.8898
2500.5	24.9956
2501	24.8811
2501.5	24.5811
2502	24.3868
2502.5	24.4189
2503	24.306
2503.5	23.4599
2504	22.1625
2504.5	21.4196
2505	22.327
2505.5	24.3502
2506	26.191
2506.5	26.589
2507	25.8638
2507.5	25.2171
2508	25.5863
2508.5	26.527
2509	26.779
2509.5	25.9822
2510	24.7182
2510.5	24.0985
2511	24.4044
2511.5	25.2308
2512	25.7878
2512.5	25.8231
2513	25.4377
2513.5	24.9337
2514	24.5008
2514.5	24.358
2515	24.5639
2515.5	25.0364
2516	25.5242
2516.5	25.9495
2517	26.4141
2517.5	26.8615
2518	26.9157
2518.5	25.9799
2519	24.2562
2519.5	22.4437
2520	21.5068
2520.5	21.4755
2521	21.9371
2521.5	22.3577
2522	22.6318
2522.5	22.8246
2523	22.9661
2523.5	23.1468
2524	23.8369
2524.5	25.3116
2525	27.2742
2525.5	28.5469
2526	28.3473
2526.5	26.7765
2527	25.2298
2527.5	24.6341
2528	24.8051
2528.5	24.6196
2529	23.5845
2529.5	22.1924
2530	21.4303
2530.5	21.8096
2531	22.9346
2531.5	24.05
2532	24.6943
2532.5	24.8867
2533	24.8076
2533.5	24.6035
2534	24.3148
2534.5	23.8244
2535	22.9809
2535.5	21.9236
2536	21.0782
2536.5	21.0244
2537	21.9043
2537.5	23.453
2538	24.9204
2538.5	25.9296
2539	26.5751
2539.5	27.2561
2540	28.0971
2540.5	28.7298
2541	28.6488
2541.5	27.4982
2542	25.8122
2542.5	24.3954
2543	23.93
2543.5	24.1105
2544	24.3471
2544.5	24.1747
2545	23.897
2545.5	24.09
2546	24.8135
2546.5	25.4955
2547	25.4672
2547.5	24.8144
2548	24.0825
2548.5	23.8732
2549	24.0786
2549.5	24.3202
2550	24.3041
2550.5	24.0791
2551	23.7794
2551.5	23.5268
2552	23.3624
2552.5	23.2338
2553	22.9348
2553.5	22.3214
2554	21.6156
2554.5	21.4287
2555	22.2795
2555.5	23.89
2556	25.319
2556.5	25.8062
2557	25.5411
2557.5	24.9825
2558	24.1815
2558.5	22.7447
2559	20.5387
2559.5	18.5787
2560	18.07
2560.5	19.5685
2561	21.999
2561.5	23.9386
2562	24.3708
2562.5	23.8016
2563	23.0785
2563.5	22.7816
2564	22.8004
2564.5	22.8837
2565	22.8857
2565.5	22.8709
2566	22.9048
2566.5	22.8646
2567	22.5423
2567.5	21.7469
2568	20.7878
2568.5	20.222
2569	20.7354
2569.5	22.0716
2570	23.4452
2570.5	23.9262
2571	23.4576
2571.5	22.6604
2572	22.3448
2572.5	22.5454
2573	22.5779
2573.5	22.0173
2574	21.0438
2574.5	20.3448
2575	20.2801
2575.5	20.8258
2576	21.6191
2576.5	22.548
2577	23.6644
2577.5	24.8119
2578	25.6535
2578.5	25.7584
2579	25.1762
2579.5	24.2283
2580	23.4274
2580.5	23.0736
2581	23.2743
2581.5	23.6961
2582	23.925
2582.5	23.6568
2583	23.1634
2583.5	22.8591
2584	23.0168
2584.5	23.3683
2585	23.4287
2585.5	22.986
2586	22.327
2586.5	21.9314
2587	22.06
2587.5	22.7217
2588	23.7148
2588.5	24.5729
2589	24.7917
2589.5	24.1359
2590	23.0283
2590.5	22.2376
2591	22.2284
2591.5	22.6925
2592	22.9066
2592.5	22.8067
2593	22.8831
2593.5	23.5344
2594	24.195
2594.5	23.8564
2595	22.4573
2595.5	21.1135
2596	21.1817
2596.5	22.5175
2597	24.0049
2597.5	24.2913
2598	23.6336
2598.5	22.9461
2599	22.9174
2599.5	23.2538
2600	23.3745
2600.5	23.1329
2601	22.8906
2601.5	22.9385
2602	22.9884
2602.5	22.6379
2603	21.741
2603.5	20.7823
2604	20.4828
2604.5	21.3332
2605	23.1553
2605.5	25.267
2606	26.5303
2606.5	26.2184
2607	24.321
2607.5	22.1281
2608	20.7446
2608.5	20.8065
2609	21.9148
2609.5	23.4298
2610	24.6419
2610.5	25.2643
2611	25.0884
2611.5	24.3317
2612	23.3516
2612.5	22.7581
2613	22.8302
2613.5	23.5085
2614	24.437
2614.5	25.2969
2615	25.7725
2615.5	25.5467
2616	24.5315
2616.5	23.0741
2617	22.0217
2617.5	21.9233
2618	22.5681
2618.5	23.0503
2619	22.819
2619.5	22.3413
2620	22.3217
2620.5	22.9664
2621	23.398
2621.5	22.7994
2622	21.2903
2622.5	20.0539
2623	20.0207
2623.5	21.1658
2624	22.5666
2624.5	23.3083
2625	23.3066
2625.5	22.9588
2626	22.7198
2626.5	22.7618
2627	23.082
2627.5	23.5581
2628	23.9497
2628.5	23.9194
2629	23.1912
2629.5	21.8779
2630	20.5149
2630.5	19.9237
2631	20.497
2631.5	22.147
2632	24.0277
2632.5	25.4116
2633	25.8948
2633.5	25.7664
2634	25.3313
2634.5	24.8347
2635	24.3489
2635.5	23.9252
2636	23.5373
2636.5	23.0665
2637	22.4349
2637.5	21.928
2638	22.1218
2638.5	23.4275
2639	25.3137
2639.5	26.8155
2640	27.2988
2640.5	26.9483
2641	26.4481
2641.5	26.2118
2642	26.007
2642.5	25.4039
2643	24.4522
2643.5	23.5548
2644	23.2157
2644.5	23.5084
2645	24.3519
2645.5	25.3521
2646	26.0726
2646.5	25.9491
2647	25.0917
2647.5	24.1379
2648	23.9103
2648.5	24.4284
2649	25.0305
2649.5	24.915
2650	24.2107
2650.5	23.5982
2651	23.3694
2651.5	23.1751
2652	22.537
2652.5	21.8771
2653	22.0492
2653.5	23.1734
2654	24.2762
2654.5	23.9715
2655	22.3416
2655.5	20.6932
2656	20.5752
2656.5	21.8871
2657	23.6761
2657.5	24.715
2658	25.0223
2658.5	25.2209
2659	25.7995
2659.5	26.5646
2660	26.8865
2660.5	26.5172
2661	25.66
2661.5	24.7151
2662	23.8562
2662.5	22.9925
2663	22.0515
2663.5	21.2894
2664	21.2304
2664.5	22.0125
2665	23.2614
2665.5	24.0968
2666	24.1675
2666.5	23.7923
2667	23.7847
2667.5	24.4102
2668	25.1429
2668.5	24.9038
2669	23.3947
2669.5	21.1311
2670	19.3988
2670.5	19.0159
2671	19.9409
2671.5	21.175
2672	21.971
2672.5	22.0866
2673	21.844
2673.5	21.5943
2674	21.3805
2674.5	21.0478
2675	20.528
2675.5	20.1035
2676	20.1502
2676.5	20.8095
2677	21.7626
2677.5	22.5667
2678	22.8965
2678.5	22.8494
2679	22.7761
2679.5	22.8596
2680	22.9128
2680.5	22.509
2681	21.6873
2681.5	20.9991
2682	21.1418
2682.5	22.0942
2683	23.3468
2683.5	24.2995
2684	25.0252
2684.5	25.7922
2685	26.3042
2685.5	25.8021
2686	23.7379
2686.5	21.2723
2687	19.9833
2687.5	20.7348
2688	22.7717
2688.5	24.5419
2689	25.0916
2689.5	24.6352
2690	23.8796
2690.5	23.3305
2691	23.0411
2691.5	22.8834
2692	22.8181
2692.5	22.853
2693	22.9129
2693.5	22.905
2694	22.7709
2694.5	22.5398
2695	22.2469
2695.5	21.9829
2696	21.8809
2696.5	22.038
2697	22.3831
2697.5	22.7203
2698	22.8575
2698.5	22.8335
2699	22.838
2699.5	23.0268
2700	23.2769
2700.5	23.3882
2701	23.3529
2701.5	23.4678
2702	23.9304
2702.5	24.3709
2703	24.1523
2703.5	22.868
2704	21.2525
2704.5	20.042
2705	19.5051
2705.5	19.0766
2706	18.4542
2706.5	18.2018
2707	18.9396
2707.5	20.6552
2708	22.1476
2708.5	22.6523
2709	22.327
2709.5	22.1155
2710	22.3489
2710.5	22.5839
2711	22.4438
2711.5	22.1538
2712	22.2324
2712.5	22.6587
2713	22.9027
2713.5	22.743
2714	22.5836
2714.5	23.1592
2715	24.4871
2715.5	25.9394
2716	26.6671
2716.5	26.3551
2717	25.2579
2717.5	24.3288
2718	24.1491
2718.5	24.5438
2719	24.702
2719.5	23.9003
2720	22.4501
2720.5	21.232
2721	20.7934
2721.5	20.8959
2722	21.083
2722.5	21.4787
2723	22.676
2723.5	24.5595
2724	25.8682
2724.5	25.4171
2725	23.4422
2725.5	21.5921
2726	20.9976
2726.5	21.2249
2727	21.2726
2727.5	20.7784
2728	20.6053
2728.5	21.8312
2729	24.409
2729.5	27.2492
2730	29.0081
2730.5	29.1196
2731	28.0962
2731.5	26.6683
2732	25.4228
2732.5	24.717
2733	24.6003
2733.5	24.8827
2734	25.1839
2734.5	25.097
2735	24.5141
2735.5	23.7249
2736	23.0805
2736.5	22.7463
2737	22.5928
2737.5	22.3694
2738	22.0485
2738.5	21.8988
2739	22.3739
2739.5	23.7067
2740	25.4954
2740.5	26.8973
2741	27.012
2741.5	25.4568
2742	23.0723
2742.5	21.269
2743	21.1936
2743.5	22.9883
2744	25.3542
2744.5	26.5428
2745	25.7637
2745.5	23.6232
2746	21.805
2746.5	21.5756
2747	22.6346
2747.5	23.6976
2748	23.6204
2748.5	22.5235
2749	21.7799
2749.5	22.3944
2750	24.2352
2750.5	26.0955
2751	26.8215
2751.5	26.5423
2752	26.2233
2752.5	26.72
2753	27.91
2753.5	28.6355
2754	28.0488
2754.5	26.252
2755	24.2009
2755.5	22.9703
2756	22.7512
2756.5	23.1385
2757	23.6885
2757.5	24.2867
2758	24.9965
2758.5	25.6379
2759	25.8314
2759.5	25.3775
2760	24.6043
2760.5	24.1958
2761	24.4631
2761.5	25.1632
2762	25.7317
2762.5	25.7544
2763	25.2967
2763.5	24.5949
2764	23.8617
2764.5	23.3172
2765	23.2824
2765.5	23.9542
2766	25.13
2766.5	26.1617
2767	26.2976
2767.5	25.5199
2768	24.555
2768.5	24.1951
2769	24.6425
2769.5	25.2521
2770	25.1708
2770.5	24.2253
2771	22.9731
2771.5	22.2544
2772	22.5494
2772.5	23.5494
2773	24.6658
2773.5	25.4287
2774	25.6989
2774.5	25.6823
2775	25.7033
2775.5	25.9087
2776	26.1496
2776.5	25.9796
2777	24.9918
2777.5	23.3247
2778	21.6131
2778.5	20.6012
2779	20.6116
2779.5	21.1677
2780	21.6021
2780.5	21.6992
2781	21.7725
2781.5	22.2735
2782	23.1493
2782.5	23.9115
2783	24.1761
2783.5	23.9842
2784	23.6961
2784.5	23.5137
2785	23.2687
2785.5	22.7481
2786	22.016
2786.5	21.4692
2787	21.4331
2787.5	21.8445
2788	22.3751
2788.5	22.6928
2789	22.6392
2789.5	22.2832
2790	21.7598
2790.5	21.2976
2791	21.2667
2791.5	22.1191
2792	23.831
2792.5	25.8219
2793	27.2137
2793.5	27.38
2794	26.3874
2794.5	25.056
2795	24.0056
2795.5	23.3499
2796	22.8977
2796.5	22.6551
2797	22.9401
2797.5	23.8613
2798	24.9903
2798.5	25.647
2799	25.5567
2799.5	25.2593
2800	25.2561
2800.5	25.3419
2801	24.7591
2801.5	23.0195
2802	20.8108
2802.5	19.3276
2803	19.2374
2803.5	20.3036
2804	21.7877
2804.5	23.196
2805	24.5263
2805.5	25.807
2806	26.8155
2806.5	27.1691
2807	26.6944
2807.5	25.6399
2808	24.4806
2808.5	23.7797
2809	23.9856
2809.5	25.0948
2810	26.4264
2810.5	27.1771
2811	26.9543
2811.5	26.0437
2812	25.1217
2812.5	24.5516
2813	24.2248
2813.5	24.0056
2814	24.0639
2814.5	24.7902
2815	26.2218
2815.5	27.9008
2816	29.1985
2816.5	29.6705
2817	29.2271
2817.5	28.2117
2818	27.2069
2818.5	26.7336
2819	26.9608
2819.5	27.5128
2820	27.6419
2820.5	26.9783
2821	25.8247
2821.5	24.8834
2822	24.7345
2822.5	25.4606
2823	26.5337
2823.5	27.3116
2824	27.3527
2824.5	26.6792
2825	25.8881
2825.5	25.7961
2826	26.512
2826.5	27.2408
2827	26.9104
2827.5	25.2381
2828	23.3491
2828.5	22.6793
2829	23.4136
2829.5	24.4499
2830	24.5461
2830.5	23.674
2831	23.2466
2831.5	24.2974
2832	26.3799
2832.5	27.8859
2833	27.3524
2833.5	24.8452
2834	22.0136
2834.5	20.4794
2835	20.8642
2835.5	22.5643
2836	24.317
2836.5	25.3024
2837	25.7163
2837.5	26.2374
2838	27.2041
2838.5	28.0785
2839	27.7338
2839.5	25.785
2840	23.0766
2840.5	21.1196
2841	20.9215
2841.5	22.1304
2842	23.231
2842.5	23.1883
2843	22.2768
2843.5	21.7436
2844	22.7072
2844.5	25.02
2845	27.1005
2845.5	27.4104
2846	25.6095
2846.5	22.8948
2847	21.2765
2847.5	21.9733
2848	24.2539
2848.5	26.4184
2849	27.2229
2849.5	26.864
2850	26.7228
2850.5	27.7819
2851	29.5343
2851.5	30.6841
2852	30.4046
2852.5	29.0379
2853	27.6554
2853.5	26.8288
2854	26.2644
2854.5	25.5
2855	24.5252
2855.5	23.774
2856	23.5954
2856.5	23.8587
2857	24.3075
2857.5	24.8152
2858	25.3313
2858.5	25.6867
2859	25.6544
2859.5	25.2742
2860	24.8456
2860.5	24.6727
2861	24.8542
2861.5	25.3292
2862	25.9722
2862.5	26.5371
2863	26.6143
2863.5	25.9133
2864	24.6759
2864.5	23.7127
2865	23.6387
2865.5	24.2549
2866	24.9644
2866.5	25.4912
2867	26.1227
2867.5	27.1777
2868	28.255
2868.5	28.6357
2869	28.1065
2869.5	27.1952
2870	26.5692
2870.5	26.25
2871	25.6532
2871.5	24.6187
2872	23.7938
2872.5	24.0257
2873	25.3599
2873.5	26.6077
2874	26.367
2874.5	24.4917
2875	22.2251
2875.5	21.1769
2876	21.9512
2876.5	23.542
2877	24.2327
2877.5	23.3986
2878	21.8804
2878.5	21.1228
2879	21.8902
2879.5	23.6455
2880	25.1117
2880.5	25.6493
2881	25.591
2881.5	25.6713
2882	26.1935
2882.5	26.6511
2883	26.2933
2883.5	25.2425
2884	24.6451
2884.5	25.7638
2885	28.682
2885.5	31.8182
2886	33.0644
2886.5	32.081
2887	30.4137
2887.5	29.8799
2888	30.8025
2888.5	31.8078
2889	31.369
2889.5	29.6638
2890	27.9428
2890.5	27.022
2891	26.6342
2891.5	26.0609
2892	25.1069
2892.5	24.2403
2893	23.7926
2893.5	23.6931
2894	23.831
2894.5	24.3398
2895	25.3684
2895.5	26.6006
2896	27.3783
2896.5	27.2956
2897	26.4305
2897.5	25.123
2898	23.6384
2898.5	22.1262
2899	20.8594
2899.5	20.2872
2900	20.7979
2900.5	22.4041
2901	24.5995
2901.5	26.515
2902	27.3427
2902.5	26.8823
2903	25.5352
2903.5	24.0574
2904	23.1588
2904.5	23.1737
2905	23.9019
2905.5	24.5808
2906	24.4028
2906.5	23.0253
2907	20.9254
2907.5	19.184
2908	18.7438
2908.5	19.6219
2909	20.9761
2909.5	22.0606
2910	22.7003
2910.5	23.1477
2911	23.6235
2911.5	24.1061
2912	24.5504
2912.5	25.0819
2913	25.8013
2913.5	26.5282
2914	26.8444
2914.5	26.4508
2915	25.5091
2915.5	24.5999
2916	24.167
2916.5	24.1898
2917	24.2334
2917.5	23.8157
2918	22.8046
2918.5	21.5896
2919	20.8563
2919.5	21.1356
2920	22.5049
2920.5	24.4399
2921	25.9694
2921.5	26.1847
2922	24.9652
2922.5	23.2799
2923	22.2995
2923.5	22.522
2924	23.4525
2924.5	24.1283
2925	23.9562
2925.5	23.1561
2926	22.4181
2926.5	22.2441
2927	22.6831
2927.5	23.3319
2928	23.5908
2928.5	23.0994
2929	22.1171
2929.5	21.2613
2930	20.7652
2930.5	20.3193
2931	19.6518
2931.5	19.1659
2932	19.7095
2932.5	21.4805
2933	23.443
2933.5	24.5224
2934	24.6661
2934.5	24.7105
2935	25.2664
2935.5	26.0123
2936	26.1919
2936.5	25.6916
2937	24.8915
2937.5	23.9691
2938	22.7631
2938.5	21.2918
2939	20.0583
2939.5	19.627
2940	19.8801
2940.5	20.2828
2941	20.5275
2941.5	20.7284
2942	21.1021
2942.5	21.6612
2943	22.2445
2943.5	22.6355
2944	22.5431
2944.5	21.6788
2945	20.1032
2945.5	18.41
2946	17.367
2946.5	17.3072
2947	17.9438
2947.5	18.8361
2948	19.865
2948.5	21.0303
2949	22.1623
2949.5	23.0144
2950	23.6021
2950.5	24.2752
2951	25.305
2951.5	26.5112
2952	27.4271
2952.5	27.6394
2953	26.9877
2953.5	25.5771
2954	23.718
2954.5	21.8288
2955	20.2522
2955.5	19.2006
2956	18.9061
2956.5	19.6213
2957	21.2897
2957.5	23.2327
2958	24.4265
2958.5	24.4079
2959	23.8355
2959.5	23.5967
2960	23.841
2960.5	23.9538
2961	23.4828
2961.5	22.8232
2962	22.7565
2962.5	23.3138
2963	23.6353
2963.5	23.0765
2964	21.9149
2964.5	20.9636
2965	20.6761
2965.5	20.8376
2966	21.0747
2966.5	21.3754
2967	21.8579
2967.5	22.3328
2968	22.4288
2968.5	22.0797
2969	21.6909
2969.5	21.7242
2970	22.1892
2970.5	22.661
2971	22.8989
2971.5	23.1262
2972	23.6759
2972.5	24.4493
2973	24.8328
2973.5	24.2798
2974	23.0444
2974.5	22.1932
2975	22.4341
2975.5	23.2963
2976	23.606
2976.5	22.807
2977	21.6747
2977.5	21.5034
2978	22.5848
2978.5	23.7329
2979	23.7892
2979.5	23.029
2980	22.639
2980.5	23.2404
2981	24.2739
2981.5	24.8526
2982	24.8215
2982.5	24.6247
2983	24.303
2983.5	23.3867
2984	21.8843
2984.5	20.7411
2985	20.9918
2985.5	22.5573
2986	24.1342
2986.5	24.3219
2987	22.8107
2987.5	20.502
2988	18.5435
2988.5	17.7071
2989	18.096
2989.5	19.1145
2990	19.8182
2990.5	19.6617
2991	19.0906
2991.5	19.1821
2992	20.4075
2992.5	22.1881
2993	23.6049
2993.5	24.3229
2994	24.6453
2994.5	24.7868
2995	24.4347
2995.5	23.2062
2996	21.4443
2996.5	20.0201
2997	19.5545
2997.5	20.0596
2998	21.2017
2998.5	22.6104
2999	23.8059
2999.5	24.1043
3000	23.0382
3000.5	21.1513
3001	19.7359
3001.5	19.6819
3002	20.6607
3002.5	21.5475
3003	21.638
3003.5	21.2845
3004	21.2831
3004.5	21.8493
3005	22.4823
3005.5	22.9088
3006	23.4713
3006.5	24.4417
3007	25.2942
3007.5	25.0509
3008	23.4292
3008.5	21.3761
3009	20.2024
3009.5	20.1581
3010	20.2102
3010.5	19.4434
3011	18.0576
3011.5	17.0802
3012	17.3068
3012.5	18.6454
3013	20.3763
3013.5	21.8337
3014	22.7829
3014.5	23.3703
3015	23.8281
3015.5	24.3189
3016	24.8424
3016.5	25.1853
3017	25.0212
3017.5	24.1808
3018	22.9043
3018.5	21.808
3019	21.4949
3019.5	21.9987
3020	22.7823
3020.5	23.1768
3021	22.8899
3021.5	22.1276
3022	21.2794
3022.5	20.5629
3023	20.0052
3023.5	19.6803
3024	19.7964
3024.5	20.422
3025	21.3171
3025.5	22.1216
3026	22.6961
3026.5	23.1735
3027	23.6359
3027.5	23.831
3028	23.3639
3028.5	22.267
3029	21.3416
3029.5	21.5998
3030	23.2316
3030.5	25.2167
3031	26.0084
3031.5	24.7828
3032	22.1254
3032.5	19.5268
3033	18.2033
3033.5	18.3564
3034	19.4286
3034.5	20.8234
3035	22.2841
3035.5	23.6356
3036	24.5524
3036.5	24.6902
3037	23.9566
3037.5	22.5863
3038	20.9907
3038.5	19.5956
3039	18.783
3039.5	18.8555
3040	19.8258
3040.5	21.3184
3041	22.6221
3041.5	23.0346
3042	22.3444
3042.5	21.0657
3043	20.1115
3043.5	20.0735
3044	20.7543
3044.5	21.4514
3045	21.6849
3045.5	21.5612
3046	21.2459
3046.5	20.5261
3047	19.1166
3047.5	17.3564
3048	16.2807
3048.5	16.7776
3049	18.6602
3049.5	20.7081
3050	21.7099
3050.5	21.4371
3051	20.6472
3051.5	20.0556
3052	19.7873
3052.5	19.6961
3053	19.9301
3053.5	20.8913
3054	22.57
3054.5	24.1394
3055	24.5009
3055.5	23.3381
3056	21.5174
3056.5	20.3354
3057	20.3059
3057.5	20.9635
3058	21.5502
3058.5	21.7102
3059	21.6544
3059.5	21.8819
3060	22.7384
3060.5	24.0075
3061	24.8435
3061.5	24.3604
3062	22.5604
3062.5	20.6005
3063	19.6865
3063.5	19.8493
3064	20.1653
3064.5	20.0105
3065	19.7335
3065.5	19.9576
3066	20.5992
3066.5	20.98
3067	20.7763
3067.5	20.3768
3068	20.2042
3068.5	20.1635
3069	20.1421
3069.5	20.5861
3070	21.8736
3070.5	23.3153
3071	23.4543
3071.5	21.6872
3072	19.2672
3072.5	18.2773
3073	19.6195
3073.5	22.2611
3074	24.426
3074.5	25.1754
3075	24.7165
3075.5	23.6486
3076	22.3706
3076.5	21.2781
3077	20.8243
3077.5	21.1102
3078	21.6311
3078.5	21.7373
3079	21.3674
3079.5	21.1411
3080	21.6481
3080.5	22.7321
3081	23.5506
3081.5	23.2957
3082	21.916
3082.5	20.1231
3083	18.8077
3083.5	18.4476
3084	18.9085
3084.5	19.8053
3085	20.966
3085.5	22.4042
3086	23.7936
3086.5	24.2561
3087	23.0972
3087.5	20.8577
3088	19.2673
3088.5	19.7523
3089	21.8494
3089.5	23.6769
3090	23.8346
3090.5	22.5469
3091	21.0745
3091.5	20.3196
3092	20.1901
3092.5	20.1154
3093	19.8428
3093.5	19.6384
3094	19.8645
3094.5	20.4974
3095	21.0728
3095.5	21.1055
3096	20.603
3096.5	20.1275
3097	20.2078
3097.5	20.8402
3098	21.6126
3098.5	22.2345
3099	22.7441
3099.5	23.1742
3100	23.2635
3100.5	22.7204
3101	21.7021
3101.5	20.8163
3102	20.5916
3102.5	21.0385
3103	21.7259
3103.5	22.1462
3104	22.0197
3104.5	21.4509
3105	20.9094
3105.5	20.9472
3106	21.7124
3106.5	22.7369
3107	23.3126
3107.5	23.1071
3108	22.374
3108.5	21.6033
3109	21.0766
3109.5	20.7898
3110	20.7105
3110.5	20.9949
3111	21.8842
3111.5	23.3367
3112	24.7433
3112.5	25.1839
3113	24.1509
3113.5	22.0361
3114	19.8734
3114.5	18.5413
3115	18.2009
3115.5	18.4142
3116	18.6543
3116.5	18.6922
3117	18.6729
3117.5	18.9541
3118	19.7765
3118.5	20.9499
3119	21.9282
3119.5	22.3558
3120	22.5098
3120.5	23.0122
3121	24.0385
3121.5	25.0629
3122	25.4207
3122.5	24.8862
3123	23.7055
3123.5	22.3166
3124	21.1842
3124.5	20.6856
3125	20.8489
3125.5	21.2103
3126	21.1792
3126.5	20.638
3127	20.0202
3127.5	19.6954
3128	19.4397
3128.5	18.7368
3129	17.585
3129.5	16.7593
3130	17.0797
3130.5	18.3953
3131	19.6059
3131.5	19.7814
3132	19.1233
3132.5	18.6942
3133	19.2048
3133.5	20.2789
3134	21.0379
3134.5	21.2007
3135	21.294
3135.5	21.8047
3136	22.4981
3136.5	22.7805
3137	22.5152
3137.5	22.1931
3138	22.3592
3138.5	23.0754
3139	23.8662
3139.5	23.9616
3140	22.7215
3140.5	20.283
3141	17.9256
3141.5	17.1978
3142	18.45
3142.5	20.4393
3143	21.6572
3143.5	21.8207
3144	21.7109
3144.5	21.7978
3145	21.6779
3145.5	20.9948
3146	20.294
3146.5	20.4442
3147	21.4607
3147.5	22.4444
3148	22.7099
3148.5	22.5315
3149	22.5956
3149.5	23.0299
3150	23.2558
3150.5	22.6798
3151	21.3292
3151.5	19.876
3152	19.1594
3152.5	19.5184
3153	20.3784
3153.5	20.7151
3154	20.1456
3154.5	19.5311
3155	20.1209
3155.5	22.004
3156	23.7738
3156.5	24.0225
3157	22.9629
3157.5	22.1084
3158	22.4389
3158.5	23.3538
3159	23.6336
3159.5	23.0719
3160	22.6911
3160.5	23.3562
3161	24.6017
3161.5	25.1163
3162	24.2439
3162.5	22.6933
3163	21.6957
3163.5	21.6929
3164	22.0833
3164.5	22.1916
3165	22.1545
3165.5	22.5984
3166	23.5662
3166.5	24.157
3167	23.4791
3167.5	21.6622
3168	19.7013
3168.5	18.4291
3169	17.9542
3169.5	18.0707
3170	18.7753
3170.5	20.1087
3171	21.758
3171.5	23.2023
3172	24.175
3172.5	24.6398
3173	24.3754
3173.5	23.1037
3174	21.26
3174.5	20.167
3175	20.8843
3175.5	22.9435
3176	24.668
3176.5	24.8182
3177	23.6006
3177.5	22.0496
3178	20.9281
3178.5	20.5143
3179	20.9586
3179.5	22.1675
3180	23.389
3180.5	23.5528
3181	22.3144
3181.5	20.4576
3182	19.0364
3182.5	18.3826
3183	18.1861
3183.5	18.2572
3184	18.7805
3184.5	19.8728
3185	21.2508
3185.5	22.3598
3186	22.6457
3186.5	21.8269
3187	20.243
3187.5	18.8983
3188	18.7027
3188.5	19.4859
3189	20.1342
3189.5	19.9808
3190	19.7134
3190.5	20.4228
3191	21.9234
3191.5	22.6687
3192	21.5743
3192.5	19.4699
3193	18.2703
3193.5	18.8034
3194	19.9527
3194.5	20.1062
3195	19.0768
3195.5	18.2307
3196	18.7555
3196.5	20.2121
3197	21.1254
3197.5	20.8358
3198	20.2562
3198.5	20.5914
3199	21.7225
3199.5	22.3671
3200	21.7524
3200.5	20.6081
3201	20.3325
3201.5	21.5321
3202	23.6007
3202.5	25.4279
3203	26.2226
3203.5	25.8666
3204	24.8426
3204.5	23.7784
3205	22.8372
3205.5	21.6608
3206	20.1213
3206.5	18.8758
3207	18.7221
3207.5	19.5259
3208	20.3639
3208.5	20.7967
3209	21.3791
3209.5	22.5997
3210	23.8593
3210.5	24.0515
3211	22.9281
3211.5	21.3792
3212	20.5242
3212.5	20.9315
3213	22.502
3213.5	24.5227
3214	25.8186
3214.5	25.4301
3215	23.4321
3215.5	20.8833
3216	18.936
3216.5	18.2575
3217	19.1457
3217.5	21.4684
3218	24.1861
3218.5	25.6187
3219	24.9258
3219.5	23.1496
3220	22.1893
3220.5	22.7405
3221	23.702
3221.5	23.6268
3222	22.2942
3222.5	20.7509
3223	20.2276
3223.5	21.1761
3224	22.9435
3224.5	24.1024
3225	23.482
3225.5	21.3631
3226	19.5273
3226.5	19.641
3227	21.4786
3227.5	23.06
3228	22.732
3228.5	20.931
3229	19.6891
3229.5	20.4767
3230	22.718
3230.5	24.506
3231	24.5873
3231.5	23.4169
3232	22.3545
3232.5	22.1643
3233	22.5724
3233.5	23.0905
3234	23.7101
3234.5	24.5196
3235	25.0257
3235.5	24.4419
3236	22.743
3236.5	21.0155
3237	20.431
3237.5	20.9905
3238	21.5841
3238.5	21.3468
3239	20.7212
3239.5	20.9555
3240	22.5887
3240.5	24.6778
3241	25.691
3241.5	25.0544
3242	23.5884
3242.5	22.4344
3243	21.8689
3243.5	21.3774
3244	20.6697
3244.5	20.2185
3245	20.7015
3245.5	22.139
3246	23.7471
3246.5	24.5983
3247	24.4161
3247.5	23.8355
3248	23.9
3248.5	25.1094
3249	26.8194
3249.5	27.6892
3250	26.9017
3250.5	24.9434
3251	23.1061
3251.5	22.2734
3252	22.3134
3252.5	22.5988
3253	22.8683
3253.5	23.395
3254	24.3791
3254.5	25.4177
3255	25.7681
3255.5	25.1127
3256	23.8664
3256.5	22.6189
3257	21.4652
3257.5	20.1872
3258	19.0406
3258.5	18.8881
3259	20.2451
3259.5	22.4216
3260	24.0212
3260.5	24.3233
3261	23.8794
3261.5	23.6514
3262	23.8399
3262.5	23.837
3263	23.2595
3263.5	22.7053
3264	23.2103
3264.5	24.9347
3265	26.6646
3265.5	26.9733
3266	25.8683
3266.5	24.8274
3267	24.8938
3267.5	25.2575
3268	24.3983
3268.5	22.3976
3269	21.1654
3269.5	22.0298
3270	23.9279
3270.5	24.756
3271	24.0387
3271.5	23.2654
3272	23.6299
3272.5	24.486
3273	24.5032
3273.5	23.5646
3274	22.7206
3274.5	22.6213
3275	22.841
3275.5	22.7738
3276	22.4607
3276.5	22.2361
3277	22.0841
3277.5	21.7987
3278	21.5141
3278.5	21.5984
3279	22.0333
3279.5	22.2277
3280	21.5741
3280.5	20.1358
3281	18.8291
3281.5	18.9173
3282	20.9697
3282.5	23.9699
3283	25.7151
3283.5	24.7409
3284	21.9804
3284.5	19.949
3285	19.9217
3285.5	20.5941
3286	19.9724
3286.5	18.1188
3287	17.1796
3287.5	18.7091
3288	21.809
3288.5	24.3197
3289	25.2278
3289.5	25.2169
3290	25.1296
3290.5	24.7537
3291	23.4511
3291.5	21.4927
3292	20.189
3292.5	20.6023
3293	22.3706
3293.5	24.0064
3294	24.3776
3294.5	23.7708
3295	23.3516
3295.5	23.6534
3296	23.9324
3296.5	23.22
3297	21.7281
3297.5	20.7548
3298	21.2093
3298.5	22.6669
3299	24.0276
3299.5	24.6823
3300	24.6921
3300.5	24.1654
3301	23.0538
3301.5	21.6335
3302	20.6528
3302.5	20.7501
3303	21.8602
3303.5	23.3036
3304	24.3585
3304.5	24.6649
3305	24.2956
3305.5	23.5888
3306	22.8342
3306.5	22.0616
3307	21.2385
3307.5	20.6641
3308	20.8803
3308.5	21.9839
3309	23.228
3309.5	23.605
3310	22.7849
3310.5	21.2869
3311	19.8737
3311.5	19.1078
3312	19.3731
3312.5	20.7244
3313	22.4431
3313.5	23.2176
3314	22.3263
3314.5	20.5821
3315	19.5982
3315.5	20.0697
3316	21.19
3316.5	21.7848
3317	21.723
3317.5	21.9521
3318	23.2169
3318.5	24.985
3319	25.8281
3319.5	24.921
3320	23.031
3320.5	21.7808
3321	21.8926
3321.5	22.4527
3322	22.1229
3322.5	20.8218
3323	19.813
3323.5	20.1839
3324	21.6362
3324.5	22.8749
3325	22.9122
3325.5	21.8859
3326	20.8665
3326.5	20.928
3327	22.2509
3327.5	23.9766
3328	25.047
3328.5	25.2364
3329	25.1938
3329.5	25.5115
3330	26.0961
3330.5	26.5358
3331	26.6797
3331.5	26.5829
3332	26.219
3332.5	25.6429
3333	25.2191
3333.5	25.2049
3334	25.1653
3334.5	24.3201
3335	22.6321
3335.5	21.1162
3336	20.7125
3336.5	21.0822
3337	21.1422
3337.5	20.5654
3338	20.2363
3338.5	21.0028
3339	22.4488
3339.5	23.4453
3340	23.7223
3340.5	24.0889
3341	24.929
3341.5	25.2858
3342	24.0926
3342.5	21.877
3343	20.4265
3343.5	20.8048
3344	22.366
3344.5	23.7669
3345	24.2782
3345.5	24.0004
3346	23.4056
3346.5	23.1128
3347	23.533
3347.5	24.3662
3348	24.8525
3348.5	24.7733
3349	24.7221
3349.5	25.0528
3350	25.1168
3350.5	24.1427
3351	22.5521
3351.5	21.7277
3352	22.4967
3352.5	24.2881
3353	25.7441
3353.5	25.7848
3354	24.2738
3354.5	21.9856
3355	20.0798
3355.5	19.2617
3356	19.4198
3356.5	20.2074
3357	21.6543
3357.5	23.7455
3358	25.6355
3358.5	26.0305
3359	24.5895
3359.5	22.5002
3360	21.394
3360.5	21.9497
3361	23.6664
3361.5	25.5671
3362	26.8411
3362.5	27.131
3363	26.6546
3363.5	26.0031
3364	25.507
3364.5	24.862
3365	23.6227
3365.5	21.9659
3366	20.6232
3366.5	20.018
3367	19.8071
3367.5	19.4788
3368	19.1731
3368.5	19.5848
3369	21.0301
3369.5	22.8621
3370	24.0283
3370.5	23.9741
3371	22.9903
3371.5	21.7815
3372	20.8401
3372.5	20.2805
3373	20.1839
3373.5	20.8676
3374	22.5488
3374.5	24.7156
3375	26.1667
3375.5	26.0162
3376	24.624
3376.5	23.1364
3377	22.1057
3377.5	21.17
3378	20.0053
3378.5	19.1338
3379	19.4498
3379.5	21.1179
3380	23.2296
3380.5	24.5451
3381	24.4735
3381.5	23.4184
3382	22.3015
3382.5	21.7582
3383	21.7385
3383.5	21.9895
3384	22.5727
3384.5	23.6491
3385	24.9019
3385.5	25.6117
3386	25.3887
3386.5	24.4986
3387	23.4063
3387.5	22.3976
3388	21.7956
3388.5	22.0765
3389	23.3614
3389.5	25.014
3390	26.129
3390.5	26.1422
3391	24.9949
3391.5	23.1402
3392	21.5765
3392.5	21.3321
3393	22.4533
3393.5	23.8596
3394	24.6924
3394.5	25.4574
3395	27.1286
3395.5	29.219
3396	29.9076
3396.5	28.1921
3397	25.2164
3397.5	23.0576
3398	22.5632
3398.5	22.8221
3399	22.5492
3399.5	21.4409
3400	20.1048
3400.5	19.2017
3401	19.0907
3401.5	19.9739
3402	21.7503
3402.5	23.5585
3403	24.1572
3403.5	23.2032
3404	21.8232
3404.5	21.4382
3405	22.1952
3405.5	23.0353
3406	23.168
3406.5	22.863
3407	22.6789
3407.5	22.534
3408	22.0163
3408.5	21.1728
3409	20.6513
3409.5	21.0473
3410	22.0805
3410.5	22.3803
3411	20.448
3411.5	16.3334
3412	12.2738
3412.5	10.8716
3413	12.5709
3413.5	15.6797
3414	18.5008
3414.5	20.6981
3415	22.5215
3415.5	23.5921
3416	23.1709
3416.5	21.3782
3417	19.5598
3417.5	19.2348
3418	20.5736
3418.5	22.2165
3419	22.5612
3419.5	21.4789
3420	20.5141
3420.5	20.9969
3421	22.2688
3421.5	22.5047
3422	21.1836
3422.5	19.8095
3423	19.7689
3423.5	20.6667
3424	21.4471
3424.5	22.0052
3425	22.8288
3425.5	23.6877
3426	23.7957
3426.5	23.1489
3427	22.71
3427.5	23.0654
3428	23.62
3428.5	23.6289
3429	23.2256
3429.5	23.1391
3430	23.774
3430.5	24.8493
3431	25.7618
3431.5	26.1498
3432	26.2042
3432.5	26.4093
3433	26.7795
3433.5	26.6647
3434	25.6647
3434.5	24.5093
3435	24.4275
3435.5	25.5796
3436	26.6996
3436.5	26.5356
3437	25.1565
3437.5	23.5561
3438	22.3832
3438.5	21.7695
3439	21.8364
3439.5	22.6292
3440	23.663
3440.5	24.1601
3441	23.9385
3441.5	23.7185
3442	24.2798
3442.5	25.404
3443	26.022
3443.5	25.2229
3444	23.1446
3444.5	20.9657
3445	20.0236
3445.5	20.7853
3446	22.4983
3446.5	23.7925
3447	23.8826
3447.5	23.1026
3448	22.3285
3448.5	21.8959
3449	21.3074
3449.5	20.2734
3450	19.7013
3450.5	20.8456
3451	23.2823
3451.5	24.8889
3452	24.4986
3452.5	23.3795
3453	23.3929
3453.5	24.3548
3454	24.533
3454.5	23.5742
3455	23.4048
3455.5	25.3624
3456	27.9228
3456.5	28.5437
3457	26.6493
3457.5	23.8942
3458	22.0281
3458.5	21.6515
3459	22.8389
3459.5	25.4739
3460	28.3633
3460.5	29.5352
3461	28.2259
3461.5	26.0124
3462	25.0044
3462.5	25.3034
3463	25.2958
3463.5	24.2965
3464	23.5836
3464.5	24.1139
3465	24.9956
3465.5	24.9163
3466	24.0287
3466.5	23.3367
3467	22.8594
3467.5	21.7782
3468	20.4139
3468.5	20.3381
3469	22.0814
3469.5	23.9821
3470	24.012
3470.5	22.2197
3471	20.6007
3471.5	20.7258
3472	22.0834
3472.5	23.2623
3473	23.8875
3473.5	24.6359
3474	25.6859
3474.5	25.9875
3475	24.6031
3475.5	22.3222
3476	21.0507
3476.5	21.4899
3477	22.6826
3477.5	23.6159
3478	24.2514
3478.5	24.667
3479	24.3034
3479.5	23.0208
3480	22.1981
3480.5	23.1348
3481	24.9971
3481.5	25.4851
3482	23.6547
3482.5	21.0706
3483	19.7614
3483.5	19.8593
3484	20.1504
3484.5	20.32
3485	20.99
3485.5	22.0334
3486	22.2197
3486.5	21.1167
3487	20.2134
3487.5	20.9151
3488	22.3097
3488.5	22.5001
3489	21.3419
3489.5	20.528
3490	21.0378
3490.5	21.9513
3491	22.2045
3491.5	22.1503
3492	22.4033
3492.5	22.6698
3493	22.4829
3493.5	22.2129
3494	22.5633
3494.5	23.6385
3495	25.0281
3495.5	26.1986
3496	26.2975
3496.5	24.7068
3497	22.3098
3497.5	21.1405
3498	21.9478
3498.5	22.8773
3499	22.0668
3499.5	19.9574
3500	18.433
3500.5	18.5894
3501	20.2291
3501.5	22.6907
3502	24.9471
3502.5	25.716
3503	24.593
3503.5	22.7612
3504	21.63
3504.5	21.157
3505	20.4195
3505.5	19.4926
3506	19.3378
3506.5	20.1658
3507	21.0848
3507.5	21.2873
3508	20.7664
3508.5	19.9055
3509	19.1749
3509.5	19.1893
3510	20.2484
3510.5	21.6639
3511	22.2234
3511.5	21.5184
3512	20.3405
3512.5	19.5645
3513	19.2611
3513.5	19.2085
3514	19.4554
3514.5	19.9953
3515	20.2686
3515.5	19.6409
3516	18.4574
3516.5	17.962
3517	19.0543
3517.5	21.0931
3518	22.1441
3518.5	20.7125
3519	17.7244
3519.5	15.8481
3520	16.9123
3520.5	20.0095
3521	22.452
3521.5	22.6389
3522	21.5743
3522.5	21.1273
3523	21.62
3523.5	22.1356
3524	22.1851
3524.5	22.1877
3525	22.4706
3525.5	22.6808
3526	22.5025
3526.5	22.1038
3527	21.7859
3527.5	21.7061
3528	21.9612
3528.5	22.383
3529	22.3699
3529.5	21.6121
3530	20.8138
3530.5	20.9889
3531	22.0589
3531.5	22.9362
3532	23.1925
3532.5	23.3887
3533	23.7061
3533.5	23.4398
3534	22.2435
3534.5	21.02
3535	20.7856
3535.5	21.3787
3536	21.9818
3536.5	22.1852
3537	22.0837
3537.5	21.7494
3538	21.1194
3538.5	20.1853
3539	19.0662
3539.5	18.1408
3540	18.0526
3540.5	19.0785
3541	20.3267
3541.5	20.477
3542	19.3447
3542.5	18.1462
3543	18.0308
3543.5	18.752
3544	19.1607
3544.5	18.8867
3545	18.7542
3545.5	19.6701
3546	21.3988
3546.5	22.6296
3547	22.4754
3547.5	21.5808
3548	21.2344
3548.5	21.8183
3549	22.4851
3549.5	22.3635
3550	21.6813
3550.5	21.237
3551	21.3517
3551.5	21.6756
3552	21.6758
3552.5	21.0468
3553	19.8163
3553.5	18.2125
3554	16.7199
3554.5	16.2155
3555	17.57
3555.5	20.4977
3556	22.854
3556.5	22.6025
3557	20.0618
3557.5	17.7615
3558	17.7321
3558.5	19.5416
3559	21.4679
3559.5	22.7099
3560	23.3065
3560.5	23.3392
3561	23.0498
3561.5	23.0639
3562	23.4577
3562.5	23.3323
3563	22.0231
3563.5	20.3023
3564	19.6528
3564.5	20.286
3565	21.2149
3565.5	21.7887
3566	22.291
3566.5	22.9224
3567	22.9901
3567.5	21.951
3568	20.5415
3568.5	20.0473
3569	20.584
3569.5	20.8735
3570	20.1746
3570.5	19.3225
3571	19.2827
3571.5	19.688
3572	19.4985
3572.5	18.6442
3573	17.9647
3573.5	17.7389
3574	17.4672
3574.5	16.8451
3575	16.2615
3575.5	16.2118
3576	16.7922
3576.5	17.8216
3577	18.9782
3577.5	19.8535
3578	20.1952
3578.5	20.0891
3579	19.8016
3579.5	19.6754
3580	20.0271
3580.5	20.7589
3581	21.1384
3581.5	20.5241
3582	19.0838
3582.5	17.5608
3583	16.5579
3583.5	16.3689
3584	17.161
3584.5	18.5766
3585	19.6213
3585.5	19.7474
3586	19.7753
3586.5	20.5546
3587	21.4364
3587.5	21.0999
3588	19.5009
3588.5	17.9856
3589	17.3262
3589.5	17.1532
3590	17.1244
3590.5	17.3662
3591	17.6634
3591.5	17.4942
3592	17.2171
3592.5	17.9209
3593	19.7507
3593.5	21.314
3594	21.6604
3594.5	21.5349
3595	21.9013
3595.5	22.322
3596	21.6723
3596.5	20.1584
3597	18.8681
3597.5	18.2459
3598	17.919
3598.5	17.6927
3599	17.681
3599.5	17.6478
3600	17.3405
3600.5	17.265
3601	18.1186
3601.5	19.2532
3602	19.3553
3602.5	18.3757
3603	17.7202
3603.5	18.185
3604	18.6291
3604.5	18.0047
3605	17.0758
3605.5	17.3634
3606	18.8863
3606.5	20.0301
3607	19.8675
3607.5	18.9361
3608	18.0308
3608.5	17.2472
3609	16.65
3609.5	16.832
3610	18.0522
3610.5	19.5651
3611	20.4664
3611.5	20.7217
3612	20.4421
3612.5	19.2238
3613	17.1244
3613.5	15.6767
3614	16.2559
3614.5	18.0995
3615	19.1775
3615.5	18.7505
3616	18.0516
3616.5	18.0434
3617	18.2473
3617.5	17.9005
3618	17.1414
3618.5	16.74
3619	17.2609
3619.5	18.8426
3620	20.9594
3620.5	22.2776
3621	21.7351
3621.5	19.7126
3622	17.7164
3622.5	16.9823
3623	17.502
3623.5	18.2512
3624	18.1627
3624.5	16.9428
3625	15.588
3625.5	15.4999
3626	16.6388
3626.5	17.5942
3627	17.5112
3627.5	17.1872
3628	17.5452
3628.5	18.128
3629	18.123
3629.5	17.6637
3630	17.3341
3630.5	17.1474
3631	17.066
3631.5	17.4284
3632	18.068
3632.5	17.9828
3633	16.931
3633.5	15.918
3634	15.6961
3634.5	15.8918
3635	16.3495
3635.5	17.6085
3636	19.2125
3636.5	19.2994
3637	17.4739
3637.5	15.887
3638	16.1808
3638.5	17.1251
3639	16.7169
3639.5	15.6517
3640	15.8324
3640.5	17.081
3641	17.2468
3641.5	15.7563
3642	14.3986
3642.5	14.5429
3643	15.5691
3643.5	16.425
3644	17.3113
3644.5	18.5285
3645	19.172
3645.5	18.1757
3646	16.3843
3646.5	15.629
3647	16.5275
3647.5	17.9831
3648	18.7426
3648.5	18.6453
3649	18.11
3649.5	17.6257
3650	17.7672
3650.5	18.7366
3651	19.8843
3651.5	20.196
3652	19.3836
3652.5	18.2508
3653	17.7602
3653.5	18.4407
3654	20.1105
3654.5	21.5145
3655	21.1028
3655.5	18.7639
3656	16.4027
3656.5	16.0912
3657	17.4699
3657.5	18.6219
3658	18.295
3658.5	16.8288
3659	15.3204
3659.5	14.53
3660	14.8148
3660.5	16.1124
3661	17.8614
3661.5	19.4993
3662	20.6792
3662.5	20.9261
3663	19.7866
3663.5	17.7703
3664	16.2107
3664.5	15.7517
3665	15.2651
3665.5	13.5735
3666	11.6392
3666.5	11.7636
3667	14.7599
3667.5	18.405
3668	20.2502
3668.5	19.6293
3669	17.5173
3669.5	15.4719
3670	14.7002
3670.5	15.5293
3671	16.6921
3671.5	16.5106
3672	15.5035
3672.5	15.9688
3673	18.5449
3673.5	20.2222
3674	18.3215
3674.5	14.1987
3675	11.8547
3675.5	12.9611
3676	15.4366
3676.5	16.8806
3677	16.9096
3677.5	16.4263
3678	15.863
3678.5	15.3129
3679	15.1965
3679.5	15.6987
3680	16.1992
3680.5	16.2229
3681	16.3234
3681.5	17.1758
3682	18.098
3682.5	17.8939
3683	16.6705
3683.5	15.7481
3684	15.4767
3684.5	15.051
3685	14.5346
3685.5	15.3578
3686	17.7014
3686.5	19.5094
3687	18.9557
3687.5	17.1138
3688	16.2901
3688.5	16.9513
3689	17.8414
3689.5	18.1572
3690	18.2117
3690.5	18.2165
3691	18.0801
3691.5	18.1889
3692	18.9599
3692.5	19.6588
3693	18.7645
3693.5	16.2555
3694	14.1027
3694.5	14.1292
3695	16.1223
3695.5	18.2939
3696	19.6529
3696.5	20.3997
3697	20.6334
3697.5	19.7697
3698	17.645
3698.5	15.3159
3699	14.1527
3699.5	14.1521
3700	14.4578
