#Imported=	16.12.2021 13:55:30
50	0
50.5	0.55463
51	0.95105
51.5	1.01001
52	0.74047
52.5	0.33988
53	0.09559
53.5	0.28011
54	0.86241
54.5	1.7336
55	2.67385
55.5	3.49997
56	4.14251
56.5	4.74223
57	5.56307
57.5	6.84317
58	8.73919
58.5	11.153
59	13.9494
59.5	16.8551
60	19.6079
60.5	22.1067
61	24.3668
61.5	26.5498
62	28.8384
62.5	31.495
63	34.625
63.5	38.2806
64	42.5233
64.5	47.2475
65	52.4231
65.5	58.0126
66	63.8065
66.5	69.5827
67	75.0927
67.5	80.2388
68	85.0188
68.5	89.5997
69	94.3851
69.5	99.6814
70	105.636
70.5	111.902
71	118.041
71.5	123.316
72	127.299
72.5	129.924
73	131.484
73.5	132.726
74	134.092
74.5	135.898
75	137.942
75.5	139.781
76	140.798
76.5	140.918
77	140.241
77.5	139.016
78	137.734
78.5	136.693
79	135.96
79.5	135.309
80	134.551
80.5	133.502
81	132.173
81.5	130.63
82	128.944
82.5	127.172
83	125.293
83.5	123.263
84	121.123
84.5	118.958
85	116.939
85.5	115.161
86	113.606
86.5	112.191
87	110.752
87.5	109.159
88	107.299
88.5	105.221
89	103.086
89.5	101.08
90	99.37
90.5	98.0467
91	97.2064
91.5	96.7869
92	96.6126
92.5	96.5294
93	96.4155
93.5	96.2365
94	96.0285
94.5	95.8924
95	95.9047
95.5	96.0561
96	96.2348
96.5	96.3177
97	96.2047
97.5	95.907
98	95.5732
98.5	95.4382
99	95.6818
99.5	96.323
100	97.3481
100.5	98.6523
101	100.119
101.5	101.758
102	103.638
102.5	105.792
103	108.223
103.5	110.806
104	113.325
104.5	115.547
105	117.328
105.5	118.865
106	120.421
106.5	122.36
107	124.868
107.5	128.021
108	131.635
108.5	135.194
109	138.288
109.5	140.626
110	142.346
110.5	143.703
111	145.169
111.5	147.174
112	149.829
112.5	152.943
113	156.035
113.5	158.685
114	160.484
114.5	161.507
115	162.024
115.5	162.522
116	163.334
116.5	164.564
117	166.143
117.5	167.756
118	169.144
118.5	170.161
119	171.052
119.5	172.107
120	173.789
120.5	176.289
121	179.736
121.5	184.385
122	189.907
122.5	196.242
123	203.706
123.5	212.463
124	222.943
124.5	236.174
125	252.329
125.5	271.11
126	291.81
126.5	312.499
127	331.249
127.5	344.973
128	351.952
128.5	350.754
129	340.517
129.5	323.627
130	302.069
130.5	277.795
131	253.479
131.5	230.961
132	212.219
132.5	197.156
133	185.39
133.5	176.708
134	170.037
134.5	164.588
135	159.944
135.5	155.837
136	152.284
136.5	149.554
137	147.692
137.5	146.564
138	145.952
138.5	145.395
139	144.532
139.5	143.213
140	141.594
140.5	139.953
141	138.612
141.5	137.795
142	137.542
142.5	137.753
143	138.115
143.5	138.359
144	138.257
144.5	137.713
145	136.819
145.5	135.771
146	134.943
146.5	134.556
147	134.692
147.5	135.148
148	135.519
148.5	135.341
149	134.225
149.5	132.298
150	130.033
150.5	128.082
151	126.898
151.5	126.737
152	127.48
152.5	128.579
153	129.49
153.5	129.859
154	129.751
154.5	129.314
155	128.742
155.5	128.132
156	127.389
156.5	126.267
157	124.769
157.5	123.028
158	121.388
158.5	120.2
159	119.734
159.5	120.151
160	121.16
160.5	122.425
161	123.641
161.5	124.634
162	125.325
162.5	125.639
163	125.615
163.5	125.2
164	124.373
164.5	123.29
165	122.093
165.5	120.99
166	120.126
166.5	119.565
167	119.322
167.5	119.204
168	119.108
168.5	119.001
169	118.926
169.5	118.957
170	119.194
170.5	119.608
171	120.108
171.5	120.544
172	120.835
172.5	120.977
173	121.054
173.5	121.229
174	121.64
174.5	122.404
175	123.341
175.5	124.252
176	124.856
176.5	125.017
177	124.725
177.5	124.061
178	123.357
178.5	122.91
179	123.006
179.5	123.695
180	124.95
180.5	126.753
181	128.912
181.5	131.247
182	133.515
182.5	135.483
183	136.994
183.5	137.85
184	138.063
184.5	137.725
185	136.905
185.5	135.808
186	134.673
186.5	133.777
187	133.452
187.5	133.976
188	135.729
188.5	138.725
189	142.618
189.5	146.741
190	150.325
190.5	153
191	154.684
191.5	155.871
192	157.294
192.5	159.727
193	163.564
193.5	168.332
194	173.502
194.5	178.454
195	182.884
195.5	186.746
196	190.265
196.5	193.714
197	197.135
197.5	200.387
198	203.393
198.5	206.232
199	209.259
199.5	212.879
200	217.456
200.5	222.991
201	228.773
201.5	234.146
202	238.484
202.5	241.733
203	244.011
203.5	245.648
204	247.007
204.5	248.054
205	248.449
205.5	248.014
206	246.69
206.5	244.695
207	242.605
207.5	240.853
208	239.688
208.5	238.651
209	237.21
209.5	234.75
210	231.277
210.5	227.025
211	222.57
211.5	218.626
212	215.563
212.5	213.341
213	211.347
213.5	209.078
214	205.971
214.5	202.013
215	197.339
215.5	192.236
216	187.188
216.5	182.4
217	178.02
217.5	173.976
218	170.235
218.5	166.824
219	163.673
219.5	160.741
220	157.916
220.5	155.045
221	152.054
221.5	148.942
222	145.86
222.5	143.005
223	140.699
223.5	139.082
224	138.11
224.5	137.709
225	137.576
225.5	137.458
226	137.084
226.5	136.304
227	135.073
227.5	133.416
228	131.617
228.5	129.905
229	128.488
229.5	127.39
230	126.492
230.5	125.574
231	124.404
231.5	122.929
232	121.325
232.5	119.917
233	118.934
233.5	118.489
234	118.354
234.5	118.145
235	117.398
235.5	115.91
236	113.963
236.5	111.989
237	110.502
237.5	109.754
238	109.83
238.5	110.438
239	111.134
239.5	111.528
240	111.493
240.5	111.148
241	110.648
241.5	110.156
242	109.729
242.5	109.326
243	108.839
243.5	108.196
244	107.42
244.5	106.634
245	106.002
245.5	105.706
246	105.892
246.5	106.523
247	107.506
247.5	108.557
248	109.334
248.5	109.569
249	109.097
249.5	108.064
250	106.636
250.5	105.052
251	103.523
251.5	102.129
252	100.866
252.5	99.7337
253	98.8445
253.5	98.4364
254	98.5964
254.5	99.3428
255	100.477
255.5	101.475
256	101.895
256.5	101.456
257	100.47
257.5	99.3563
258	98.7458
258.5	98.9606
259	100.076
259.5	101.916
260	103.861
260.5	105.584
261	106.966
261.5	108.237
262	109.624
262.5	111.326
263	113.194
263.5	114.915
264	115.849
264.5	115.836
265	114.869
265.5	113.053
266	110.884
266.5	108.683
267	106.728
267.5	105.08
268	103.72
268.5	102.581
269	101.537
269.5	100.508
270	99.4089
270.5	98.2115
271	96.9542
271.5	95.7871
272	94.9265
272.5	94.5251
273	94.6022
273.5	94.869
274	95.012
274.5	94.7119
275	93.9614
275.5	92.9951
276	92.2695
276.5	92.2222
277	92.8893
277.5	94.0206
278	95.073
278.5	95.6437
279	95.4759
279.5	94.7563
280	93.8497
280.5	93.1239
281	92.7205
281.5	92.4655
282	92.1321
282.5	91.6001
283	90.9588
283.5	90.4418
284	90.2896
284.5	90.5449
285	91.0947
285.5	91.6261
286	91.9769
286.5	92.1645
287	92.3673
287.5	92.7288
288	93.2475
288.5	93.6818
289	93.7084
289.5	93.0095
290	91.694
290.5	90.1831
291	88.9081
291.5	88.1928
292	87.9799
292.5	88.0388
293	87.9923
293.5	87.6321
294	87.0384
294.5	86.5861
295	86.5641
295.5	87.0762
296	87.9326
296.5	88.7107
297	89.0554
297.5	88.7924
298	88.2213
298.5	87.8219
299	88.0787
299.5	88.9711
300	90.2164
300.5	91.2057
301	91.4401
301.5	90.6815
302	89.0888
302.5	87.4876
303	86.6903
303.5	87.3667
304	89.2193
304.5	91.7143
305	93.9174
305.5	95.0857
306	94.867
306.5	93.2533
307	91.1416
307.5	89.3088
308	88.4286
308.5	88.3791
309	88.8316
309.5	89.2234
310	89.1162
310.5	88.3911
311	87.2038
311.5	86.1453
312	85.6841
312.5	86.2123
313	87.5035
313.5	89.2668
314	91.0915
314.5	92.5964
315	93.6036
315.5	94.0095
316	94.026
316.5	93.8543
317	93.6749
317.5	93.5909
318	93.6334
318.5	93.8102
319	94.05
319.5	94.2567
320	94.2422
320.5	93.8149
321	92.834
321.5	91.2477
322	89.3354
322.5	87.4576
323	86.088
323.5	85.4941
324	85.6785
324.5	86.4763
325	87.3896
325.5	87.9912
326	88.0448
326.5	87.7059
327	87.2644
327.5	87.0089
328	87.0619
328.5	87.3343
329	87.6341
329.5	87.7643
330	87.6976
330.5	87.5953
331	87.7
331.5	88.1235
332	88.8579
332.5	89.6894
333	90.3559
333.5	90.6089
334	90.3513
334.5	89.6886
335	88.7976
335.5	87.943
336	87.3029
336.5	87.0111
337	87.1094
337.5	87.5136
338	88.1392
338.5	88.8411
339	89.4769
339.5	89.9153
340	90.0742
340.5	89.9643
341	89.5931
341.5	89.0544
342	88.5594
342.5	88.401
343	88.9689
343.5	90.3968
344	92.6965
344.5	95.4377
345	97.7885
345.5	99.0262
346	98.5713
346.5	96.7415
347	94.0577
347.5	91.4298
348	89.6467
348.5	89.1357
349	89.9895
349.5	91.5322
350	93.2761
350.5	94.9392
351	96.548
351.5	98.2784
352	100.374
352.5	102.843
353	105.603
353.5	108.461
354	111.156
354.5	113.47
355	115.019
355.5	115.62
356	115.039
356.5	112.97
357	109.903
357.5	106.321
358	102.962
358.5	100.366
359	98.7054
359.5	97.7121
360	96.7267
360.5	95.4117
361	93.7232
361.5	92.1214
362	91.1046
362.5	91.2261
363	92.2933
363.5	93.8384
364	95.0101
364.5	95.2231
365	94.3692
365.5	92.5921
366	90.5262
366.5	88.6605
367	87.4424
367.5	86.9529
368	87.1225
368.5	87.8678
369	88.8884
369.5	89.8735
370	90.445
370.5	90.3681
371	89.6076
371.5	88.2854
372	86.8814
372.5	85.8678
373	85.7072
373.5	86.4272
374	87.7246
374.5	89.0918
375	90.0714
375.5	90.5419
376	90.5902
376.5	90.5561
377	90.7258
377.5	91.2551
378	92.024
378.5	92.7542
379	93.1106
379.5	92.9201
380	92.3381
380.5	91.6234
381	91.1257
381.5	91.0332
382	91.3836
382.5	91.9482
383	92.3859
383.5	92.3928
384	91.8796
384.5	91.1238
385	90.5823
385.5	90.6985
386	91.5362
386.5	92.94
387	94.4421
387.5	95.5716
388	96.0449
388.5	95.9145
389	95.6266
389.5	95.6961
390	96.5977
390.5	98.303
391	100.724
391.5	103.691
392	106.965
392.5	110.43
393	113.884
393.5	116.989
394	119.244
394.5	119.931
395	118.9
395.5	116.31
396	112.79
396.5	109.364
397	106.767
397.5	105.557
398	105.402
398.5	105.814
399	106.033
399.5	105.5
400	103.978
400.5	101.467
401	98.6234
401.5	95.8858
402	93.722
402.5	92.222
403	91.3742
403.5	91.1223
404	91.1637
404.5	91.335
405	91.5077
405.5	91.6201
406	91.6618
406.5	91.6287
407	91.5374
407.5	91.3956
408	91.2261
408.5	91.0818
409	91.006
409.5	91.0239
410	91.0619
410.5	91.0016
411	90.6416
411.5	89.921
412	88.9416
412.5	87.9553
413	87.2998
413.5	87.2067
414	87.8492
414.5	88.9763
415	90.2351
415.5	91.1614
416	91.4642
416.5	91.1137
417	90.2873
417.5	89.5043
418	89.1263
418.5	89.4041
419	90.1794
419.5	91.1157
420	91.793
420.5	91.9398
421	91.5728
421.5	90.906
422	90.3624
422.5	90.2445
423	90.618
423.5	91.1804
424	91.583
424.5	91.5802
425	91.2695
425.5	91.0188
426	91.3267
426.5	92.4947
427	94.3634
427.5	96.4557
428	97.9482
428.5	98.264
429	97.1943
429.5	95.1536
430	92.8976
430.5	91.1103
431	90.238
431.5	90.1964
432	90.7288
432.5	91.3913
433	91.8664
433.5	92.0565
434	92.075
434.5	92.1193
435	92.2692
435.5	92.4639
436	92.5611
436.5	92.4342
437	92.0464
437.5	91.5397
438	91.1185
438.5	91.0662
439	91.527
439.5	92.6057
440	94.3129
440.5	96.3621
441	98.5243
441.5	100.536
442	102.252
442.5	103.609
443	104.629
443.5	105.479
444	106.279
444.5	107.13
445	108.069
445.5	109.123
446	110.408
446.5	112.039
447	114.188
447.5	117.089
448	120.602
448.5	124.534
449	128.497
449.5	132.043
450	134.853
450.5	136.613
451	137.61
451.5	138.155
452	138.784
452.5	140.022
453	142.203
453.5	145.769
454	150.534
454.5	156.376
455	163.226
455.5	170.729
456	178.812
456.5	187.819
457	198.164
457.5	210.537
458	226.468
458.5	246.368
459	270.382
459.5	299.134
460	331.753
460.5	367.78
461	407.473
461.5	450.272
462	495.708
462.5	542.91
463	589.389
463.5	632.021
464	665.27
464.5	684.916
465	689.148
465.5	675.291
466	646.568
466.5	607.311
467	561.447
467.5	514.296
468	469.301
468.5	428.941
469	393.513
469.5	362.13
470	334.127
470.5	308.427
471	284.514
471.5	262.757
472	243.62
472.5	227.31
473	214.201
473.5	203.802
474	195.134
474.5	187.39
475	179.741
475.5	171.829
476	163.748
476.5	155.98
477	149.053
477.5	143.488
478	139.421
478.5	136.59
479	134.844
479.5	133.911
480	133.435
480.5	133.155
481	132.717
481.5	131.825
482	130.213
482.5	127.806
483	124.915
483.5	121.959
484	119.549
484.5	117.952
485	117.223
485.5	117.094
486	117.031
486.5	116.628
487	115.632
487.5	114.222
488	112.691
488.5	111.421
489	110.55
489.5	109.993
490	109.419
490.5	108.474
491	107.033
491.5	105.253
492	103.564
492.5	102.306
493	101.73
493.5	101.623
494	101.729
494.5	101.747
495	101.562
495.5	101.227
496	100.886
496.5	100.623
497	100.37
497.5	99.8688
498	98.9839
498.5	97.6964
499	96.099
499.5	94.4673
500	92.9735
500.5	91.7953
501	90.9698
501.5	90.5818
502	90.858
502.5	91.7707
503	93.2232
503.5	94.9176
504	96.3172
504.5	97.0275
505	96.8263
505.5	96.1044
506	95.289
506.5	94.8114
507	94.7534
507.5	94.9558
508	95.1494
508.5	95.1731
509	95.0978
509.5	95.1689
510	95.5495
510.5	96.1533
511	96.5905
511.5	96.3672
512	95.2982
512.5	93.504
513	91.6065
513.5	90.1782
514	89.6831
514.5	90.0147
515	90.7543
515.5	91.391
516	91.561
516.5	91.2731
517	90.7924
517.5	90.5724
518	90.8867
518.5	91.8062
519	92.9478
519.5	93.7774
520	93.7602
520.5	92.6934
521	90.8209
521.5	88.5926
522	86.7083
522.5	85.6615
523	85.7743
523.5	86.894
524	88.5063
524.5	90.1077
525	91.2626
525.5	91.8699
526	91.9654
526.5	91.7366
527	91.3634
527.5	90.9003
528	90.3998
528.5	89.9598
529	89.7255
529.5	89.8197
530	90.1701
530.5	90.5871
531	90.7581
531.5	90.5271
532	89.9331
532.5	89.3139
533	89.1001
533.5	89.5972
534	90.8025
534.5	92.164
535	93.1429
535.5	93.2469
536	92.5636
536.5	91.3907
537	90.279
537.5	89.6757
538	89.7813
538.5	90.5751
539	91.6704
539.5	92.7817
540	93.6594
540.5	94.2591
541	94.5806
541.5	94.5814
542	94.2785
542.5	93.6501
543	92.7059
543.5	91.671
544	90.7824
544.5	90.3837
545	90.5396
545.5	91.1969
546	92.1302
546.5	92.9029
547	93.2011
547.5	92.7224
548	91.6856
548.5	90.4033
549	89.4027
549.5	89.0803
550	89.571
550.5	90.7553
551	92.0507
551.5	92.9636
552	92.9698
552.5	92.1053
553	90.6173
553.5	88.9247
554	87.5001
554.5	86.5572
555	86.159
555.5	86.0553
556	86.0494
556.5	86.0629
557	86.1542
557.5	86.41
558	86.8228
558.5	87.1243
559	87.0027
559.5	86.1424
560	84.679
560.5	83.0391
561	81.8999
561.5	81.8033
562	82.873
562.5	84.9537
563	87.3256
563.5	89.2941
564	90.2592
564.5	90.1434
565	89.2857
565.5	88.1549
566	87.3028
566.5	87.0179
567	87.375
567.5	88.1351
568	88.9683
568.5	89.5618
569	89.6924
569.5	89.3326
570	88.5168
570.5	87.4529
571	86.4112
571.5	85.6591
572	85.4042
572.5	85.6562
573	86.3558
573.5	87.249
574	87.9977
574.5	88.2697
575	87.839
575.5	86.8345
576	85.5632
576.5	84.5319
577	84.1136
577.5	84.4951
578	85.5029
578.5	86.5917
579	87.2273
579.5	86.9787
580	85.9698
580.5	84.5348
581	83.2653
581.5	82.6011
582	82.7347
582.5	83.5713
583	84.6574
583.5	85.6395
584	86.2131
584.5	86.3494
585	86.0826
585.5	85.4585
586	84.6315
586.5	83.7406
587	83.0376
587.5	82.7276
588	82.9347
588.5	83.6344
589	84.4391
589.5	84.9763
590	84.8443
590.5	84.1381
591	83.1354
591.5	82.3696
592	82.2182
592.5	82.7886
593	83.9551
593.5	85.1886
594	86.1423
594.5	86.5901
595	86.7092
595.5	86.6669
596	86.5664
596.5	86.3955
597	86.0856
597.5	85.6309
598	85.2499
598.5	85.2261
599	85.9207
599.5	87.2361
600	88.8519
600.5	90.1641
601	90.6742
601.5	90.2086
602	88.8537
602.5	87.2558
603	85.9731
603.5	85.5169
604	85.8395
604.5	86.6391
605	87.5325
605.5	88.1607
606	88.3712
606.5	88.0828
607	87.4176
607.5	86.5136
608	85.5085
608.5	84.5934
609	83.9373
609.5	83.7503
610	84.0859
610.5	84.856
611	85.8894
611.5	86.8562
612	87.4736
612.5	87.4794
613	86.8611
613.5	85.8232
614	84.6802
614.5	83.8459
615	83.5633
615.5	83.9753
616	84.9267
616.5	86.0875
617	87.1301
617.5	87.7996
618	88.0689
618.5	88.0037
619	87.7791
619.5	87.5332
620	87.2865
620.5	86.9693
621	86.5205
621.5	85.9488
622	85.4105
622.5	85.1225
623	85.294
623.5	85.9776
624	86.9242
624.5	87.7735
625	88.0825
625.5	87.7343
626	86.8077
626.5	85.6788
627	84.8239
627.5	84.5818
628	85.0833
628.5	86.0347
629	87.1182
629.5	87.9751
630	88.4517
630.5	88.4993
631	88.1011
631.5	87.3298
632	86.1611
632.5	84.5971
633	82.8916
633.5	81.3918
634	80.6569
634.5	80.9125
635	82.2222
635.5	84.4094
636	86.8253
636.5	88.9875
637	90.4314
637.5	91.1327
638	91.1096
638.5	90.3507
639	89.1029
639.5	87.5094
640	85.773
640.5	84.1813
641	82.9353
641.5	82.2402
642	81.9734
642.5	82.0041
643	82.1847
643.5	82.3701
644	82.5159
644.5	82.6028
645	82.6341
645.5	82.6115
646	82.5783
646.5	82.6586
647	83.0063
647.5	83.8367
648	85.1156
648.5	86.6822
649	88.2377
649.5	89.4535
650	90.1144
650.5	89.9835
651	89.1243
651.5	87.652
652	85.7185
652.5	83.72
653	82.0594
653.5	81.2587
654	81.5089
654.5	82.7018
655	84.5298
655.5	86.3426
656	87.6395
656.5	88.0536
657	87.7133
657.5	86.9918
658	86.3198
658.5	86.0502
659	86.2839
659.5	87.0233
660	88.0883
660.5	89.2845
661	90.4276
661.5	91.3095
662	91.7645
662.5	91.5872
663	90.7488
663.5	89.4309
664	87.8717
664.5	86.3966
665	85.1889
665.5	84.2829
666	83.5176
666.5	82.6887
667	81.6942
667.5	80.6327
668	79.7537
668.5	79.3507
669	79.5849
669.5	80.2878
670	81.1864
670.5	81.9146
671	82.3077
671.5	82.4176
672	82.5394
672.5	82.9761
673	83.875
673.5	85.0901
674	86.193
674.5	86.7483
675	86.4255
675.5	85.4584
676	84.2382
676.5	83.3636
677	83.2005
677.5	83.8678
678	85.1589
678.5	86.4847
679	87.3246
679.5	87.1687
680	86.0763
680.5	84.2545
681	82.1649
681.5	80.391
682	79.3406
682.5	79.3795
683	80.3151
683.5	81.9553
684	84.0177
684.5	86.0687
685	87.7993
685.5	88.7999
686	88.9898
686.5	88.3401
687	86.9344
687.5	85.337
688	84.0435
688.5	83.7036
689	84.3609
689.5	85.8179
690	87.5398
690.5	88.7903
691	89.1801
691.5	88.5573
692	87.5031
692.5	86.5888
693	86.4376
693.5	87.1033
694	88.3454
694.5	89.7009
695	90.6953
695.5	91.1484
696	91.067
696.5	90.7732
697	90.4967
697.5	90.3401
698	90.2063
698.5	89.9485
699	89.4313
699.5	88.7024
700	87.889
700.5	87.1382
701	86.5187
701.5	86.0025
702	85.5245
702.5	85.0324
703	84.5393
703.5	84.1083
704	83.7885
704.5	83.581
705	83.4765
705.5	83.4647
706	83.5756
706.5	83.8883
707	84.4031
707.5	85.0015
708	85.4528
708.5	85.525
709	85.1721
709.5	84.508
710	83.8825
710.5	83.606
711	83.8507
711.5	84.4365
712	84.9466
712.5	84.9207
713	84.1113
713.5	82.7176
714	81.1507
714.5	79.9965
715	79.5697
715.5	79.9433
716	80.807
716.5	81.681
717	82.2438
717.5	82.4348
718	82.5064
718.5	82.7454
719	83.3235
719.5	84.0829
720	84.7043
720.5	84.7944
721	84.2718
721.5	83.2299
722	81.9722
722.5	80.8233
723	79.9305
723.5	79.3048
724	78.8461
724.5	78.566
725	78.595
725.5	78.9744
726	79.6417
726.5	80.2875
727	80.513
727.5	80.0405
728	78.8269
728.5	77.3634
729	76.1266
729.5	75.6136
730	75.803
730.5	76.506
731	77.3814
731.5	78.0962
732	78.527
732.5	78.6522
733	78.6331
733.5	78.5856
734	78.6511
734.5	78.9128
735	79.4163
735.5	80.152
736	80.9078
736.5	81.4577
737	81.485
737.5	80.9742
738	80.0095
738.5	78.7682
739	77.5347
739.5	76.4679
740	75.7249
740.5	75.3469
741	75.401
741.5	76.0196
742	77.0746
742.5	78.3701
743	79.5993
743.5	80.4988
744	80.9775
744.5	81.0301
745	80.8216
745.5	80.4243
746	79.7967
746.5	78.9672
747	78.0825
747.5	77.4977
748	77.5339
748.5	78.2461
749	79.3699
749.5	80.2239
750	80.2714
750.5	79.2244
751	77.5794
751.5	76.1155
752	75.6457
752.5	76.3598
753	77.7987
753.5	79.1806
754	79.7767
754.5	79.4507
755	78.4966
755.5	77.6484
756	77.4528
756.5	78.1637
757	79.4639
757.5	80.7678
758	81.5016
758.5	81.3607
759	80.4835
759.5	79.1508
760	77.8072
760.5	76.7572
761	76.1474
761.5	75.9279
762	75.9299
762.5	76.0603
763	76.2834
763.5	76.5996
764	77.0006
764.5	77.3911
765	77.6319
765.5	77.5983
766	77.2828
766.5	76.8752
767	76.6287
767.5	76.8257
768	77.5234
768.5	78.6853
769	80.1211
769.5	81.5427
770	82.7274
770.5	83.4789
771	83.7965
771.5	83.6894
772	83.2031
772.5	82.4704
773	81.5148
773.5	80.2753
774	78.7426
774.5	76.9349
775	75.0522
775.5	73.4881
776	72.6621
776.5	73.037
777	74.41
777.5	76.4395
778	78.4983
778.5	79.9894
779	80.6146
779.5	80.266
780	79.4315
780.5	78.5091
781	77.9401
781.5	77.8539
782	78.21
782.5	78.8096
783	79.275
783.5	79.3392
784	78.7611
784.5	77.7587
785	76.6549
785.5	75.9914
786	76.0846
786.5	77.0068
787	78.6097
787.5	80.3003
788	81.6055
788.5	82.0566
789	81.7172
789.5	80.845
790	79.8942
790.5	79.397
791	79.6805
791.5	80.9692
792	82.8826
792.5	84.877
793	86.1972
793.5	86.3973
794	85.475
794.5	83.7719
795	82.1176
795.5	81.1291
796	81.1863
796.5	81.94
797	82.7737
797.5	83.0006
798	82.3398
798.5	80.998
799	79.4675
799.5	78.3872
800	78.0893
800.5	78.6879
801	79.8396
801.5	81.0991
802	82.0851
802.5	82.6124
803	82.7343
803.5	82.5598
804	82.2593
804.5	81.9289
805	81.5649
805.5	81.1003
806	80.4632
806.5	79.5589
807	78.3348
807.5	76.8277
808	75.1212
808.5	73.4653
809	72.1824
809.5	71.6548
810	72.1096
810.5	73.3375
811	74.9641
811.5	76.3706
812	77.1284
812.5	77.0666
813	76.4045
813.5	75.6401
814	75.1336
814.5	75.0202
815	75.0871
815.5	75.0703
816	74.7665
816.5	74.2413
817	73.6506
817.5	73.146
818	72.6967
818.5	72.1447
819	71.3012
819.5	70.2376
820	69.2292
820.5	68.8143
821	69.3033
821.5	70.8115
822	73.1163
822.5	75.4882
823	77.3058
823.5	77.9795
824	77.6771
824.5	76.7628
825	75.8515
825.5	75.4103
826	75.5225
826.5	75.9197
827	76.0759
827.5	75.6934
828	74.7083
828.5	73.5834
829	72.7142
829.5	72.451
830	72.6244
830.5	72.9956
831	73.3362
831.5	73.6298
832	73.9915
832.5	74.5048
833	74.975
833.5	75.0938
834	74.5032
834.5	73.415
835	72.2997
835.5	71.8943
836	72.4515
836.5	73.7457
837	75.1168
837.5	75.8416
838	75.6869
838.5	74.8505
839	74.023
839.5	73.622
840	73.6842
840.5	73.7068
841	73.2371
841.5	72.0755
842	70.6956
842.5	69.7363
843	69.8183
843.5	70.8457
844	72.2531
844.5	73.2374
845	73.2583
845.5	72.3475
846	70.9072
846.5	69.6755
847	69.1328
847.5	69.519
848	70.5583
848.5	71.803
849	72.8428
849.5	73.4343
850	73.5779
850.5	73.3279
851	72.8309
851.5	72.213
852	71.5611
852.5	70.9944
853	70.6335
853.5	70.6154
854	70.9518
854.5	71.4685
855	71.901
855.5	71.9745
856	71.6601
856.5	71.1383
857	70.8211
857.5	71.0075
858	71.7727
858.5	72.7819
859	73.4841
859.5	73.405
860	72.3897
860.5	70.8516
861	69.3189
861.5	68.3545
862	68.0897
862.5	68.4182
863	69.0047
863.5	69.5063
864	69.7901
864.5	69.9091
865	70.061
865.5	70.4133
866	71.0779
866.5	71.9639
867	72.9182
867.5	73.6713
868	74.0212
868.5	73.8398
869	73.1227
869.5	72.1791
870	71.2958
870.5	70.7686
871	70.6003
871.5	70.6621
872	70.7093
872.5	70.5712
873	70.2418
873.5	69.8603
874	69.61
874.5	69.553
875	69.6071
875.5	69.5436
876	69.1971
876.5	68.4734
877	67.6106
877.5	66.8883
878	66.7121
878.5	67.1574
879	68.1445
879.5	69.4148
880	70.5374
880.5	71.249
881	71.3536
881.5	71.0126
882	70.3704
882.5	69.5042
883	68.4955
883.5	67.4202
884	66.5362
884.5	66.2074
885	66.7286
885.5	68.2686
886	70.2661
886.5	71.985
887	72.5338
887.5	71.7571
888	70.0985
888.5	68.4539
889	67.7285
889.5	68.2057
890	69.6741
890.5	71.2788
891	72.3838
891.5	72.686
892	72.5126
892.5	72.3159
893	72.3868
893.5	72.6279
894	72.7463
894.5	72.4797
895	71.8985
895.5	71.3062
896	71.0397
896.5	71.1808
897	71.5053
897.5	71.6649
898	71.4118
898.5	70.8014
899	70.0428
899.5	69.3784
900	68.8225
900.5	68.1581
901	67.086
901.5	65.58
902	63.9307
902.5	62.7935
903	62.6897
903.5	63.9239
904	66.1565
904.5	68.5182
905	70.1366
905.5	70.4215
906	69.6109
906.5	68.2585
907	67.188
907.5	66.8432
908	67.241
908.5	67.9584
909	68.4854
909.5	68.6158
910	68.5257
910.5	68.6325
911	69.2257
911.5	70.2847
912	71.3609
912.5	71.9748
913	71.7317
913.5	70.8028
914	69.5164
914.5	68.3681
915	67.6752
915.5	67.5464
916	67.9458
916.5	68.6148
917	69.3842
917.5	70.0633
918	70.5034
918.5	70.5877
919	70.2434
919.5	69.6839
920	69.1587
920.5	68.9849
921	69.1721
921.5	69.5286
922	69.6147
922.5	69.16
923	68.171
923.5	66.9965
924	66.1994
924.5	66.075
925	66.636
925.5	67.2934
926	67.5689
926.5	67.1375
927	66.3317
927.5	65.5626
928	65.2051
928.5	65.1378
929	65.0341
929.5	64.5288
930	63.7334
930.5	63.0645
931	63.1809
931.5	64.2294
932	65.9237
932.5	67.6192
933	68.702
933.5	69.024
934	68.7985
934.5	68.5852
935	68.686
935.5	69.099
936	69.4625
936.5	69.4582
937	68.871
937.5	67.8378
938	66.5791
938.5	65.2934
939	64.1554
939.5	63.3068
940	62.9795
940.5	63.2638
941	64.0513
941.5	65.0605
942	65.8265
942.5	66.0611
943	65.6677
943.5	64.9194
944	64.1528
944.5	63.5779
945	63.1952
945.5	62.9134
946	62.7697
946.5	62.9684
947	63.6946
947.5	65.0239
948	66.6334
948.5	67.9897
949	68.5684
949.5	68.175
950	67.1224
950.5	65.836
951	64.7563
951.5	63.9867
952	63.373
952.5	62.6154
953	61.6006
953.5	60.4817
954	59.704
954.5	59.6397
955	60.5094
955.5	62.1598
956	64.0313
956.5	65.6187
957	66.5505
957.5	66.9349
958	67.0212
958.5	67.1107
959	67.2725
959.5	67.3137
960	66.8934
960.5	65.9765
961	64.8048
961.5	63.975
962	63.9233
962.5	64.7353
963	65.9332
963.5	66.672
964	66.3635
964.5	64.7854
965	62.6682
965.5	60.7829
966	59.9571
966.5	60.1743
967	61.0663
967.5	61.9127
968	62.1264
968.5	61.5275
969	60.2659
969.5	58.9881
970	58.2001
970.5	58.4584
971	59.6427
971.5	61.4905
972	63.4663
972.5	64.9371
973	65.5377
973.5	65.0487
974	63.9655
974.5	62.7525
975	61.8701
975.5	61.3763
976	61.0965
976.5	60.7796
977	60.3773
977.5	60.0886
978	60.2613
978.5	60.8749
979	61.5844
979.5	61.6823
980	60.7182
980.5	58.7047
981	56.1011
981.5	53.835
982	52.5469
982.5	52.6729
983	53.8621
983.5	55.6306
984	57.5767
984.5	59.4346
985	61.1289
985.5	62.5624
986	63.6197
986.5	64.1831
987	64.1092
987.5	63.4957
988	62.5256
988.5	61.3437
989	60.1018
989.5	58.9068
990	57.904
990.5	57.2435
991	56.9903
991.5	57.1322
992	57.4742
992.5	57.8255
993	58.1313
993.5	58.5176
994	59.159
994.5	60.1715
995	61.4185
995.5	62.588
996	63.3439
996.5	63.51
997	63.2096
997.5	62.6419
998	62.08
998.5	61.6916
999	61.546
999.5	61.6034
1000	61.7239
1000.5	61.7365
1001	61.4521
1001.5	60.8521
1002	60.0723
1002.5	59.4837
1003	59.4124
1003.5	59.9913
1004	60.9151
1004.5	61.5759
1005	61.478
1005.5	60.4687
1006	59.0772
1006.5	57.9283
1007	57.5811
1007.5	57.8974
1008	58.4106
1008.5	58.4063
1009	57.5976
1009.5	56.0807
1010	54.3337
1010.5	52.9295
1011	52.1801
1011.5	52.2373
1012	52.8689
1012.5	53.9508
1013	55.3656
1013.5	56.8324
1014	58.046
1014.5	58.5527
1015	58.3091
1015.5	57.5121
1016	56.6786
1016.5	56.3436
1017	56.7247
1017.5	57.76
1018	58.8817
1018.5	59.6779
1019	59.8078
1019.5	59.4546
1020	58.8542
1020.5	58.264
1021	57.7989
1021.5	57.4314
1022	57.0881
1022.5	56.7392
1023	56.4405
1023.5	56.3323
1024	56.4767
1024.5	56.8655
1025	57.4175
1025.5	57.9411
1026	58.2881
1026.5	58.3322
1027	58.124
1027.5	57.7619
1028	57.3811
1028.5	57.1196
1029	57.0553
1029.5	57.2404
1030	57.5773
1030.5	57.8961
1031	57.9122
1031.5	57.4207
1032	56.4088
1032.5	55.0841
1033	53.9817
1033.5	53.5682
1034	54.1945
1034.5	55.5795
1035	57.1387
1035.5	58.2322
1036	58.5971
1036.5	58.5023
1037	58.4733
1037.5	58.9043
1038	59.6969
1038.5	60.377
1039	60.3955
1039.5	59.6556
1040	58.4716
1040.5	57.5484
1041	57.3422
1041.5	57.9232
1042	58.7806
1042.5	59.2961
1043	59.0779
1043.5	58.2389
1044	57.2651
1044.5	56.6067
1045	56.4738
1045.5	56.711
1046	57.1348
1046.5	57.6577
1047	58.3549
1047.5	59.3411
1048	60.5314
1048.5	61.5851
1049	62.0849
1049.5	61.7431
1050	60.7723
1050.5	59.5498
1051	58.5932
1051.5	58.1466
1052	58.2117
1052.5	58.5731
1053	58.9545
1053.5	59.2457
1054	59.4381
1054.5	59.5565
1055	59.5361
1055.5	59.2298
1056	58.6555
1056.5	57.9691
1057	57.5388
1057.5	57.6492
1058	58.4271
1058.5	59.7596
1059	61.1582
1059.5	62.191
1060	62.3936
1060.5	61.7791
1061	60.4667
1061.5	58.7502
1062	57.1411
1062.5	56.0288
1063	55.8634
1063.5	56.5698
1064	57.9873
1064.5	59.7749
1065	61.3774
1065.5	62.4428
1066	62.608
1066.5	62.0452
1067	60.9875
1067.5	59.8524
1068	59.1044
1068.5	58.9822
1069	59.5221
1069.5	60.2101
1070	60.5347
1070.5	59.9686
1071	58.6743
1071.5	57.1181
1072	56.0572
1072.5	55.9153
1073	56.6619
1073.5	57.8725
1074	58.846
1074.5	59.2114
1075	58.7889
1075.5	57.8498
1076	56.6816
1076.5	55.6
1077	54.9257
1077.5	54.9147
1078	55.8301
1078.5	57.4179
1079	59.143
1079.5	60.2314
1080	60.2254
1080.5	59.2483
1081	57.851
1081.5	56.8606
1082	56.6047
1082.5	56.8672
1083	56.9559
1083.5	56.4132
1084	55.197
1084.5	53.8767
1085	53.0453
1085.5	53.0498
1086	53.6272
1086.5	54.2359
1087	54.443
1087.5	54.2392
1088	54.0068
1088.5	54.2256
1089	55.1199
1089.5	56.4316
1090	57.6105
1090.5	58.0122
1091	57.3823
1091.5	55.6974
1092	53.4063
1092.5	51.1851
1093	49.6549
1093.5	49.221
1094	49.7416
1094.5	50.9127
1095	52.1915
1095.5	53.1432
1096	53.5643
1096.5	53.5115
1097	53.2718
1097.5	53.0902
1098	53.1647
1098.5	53.5293
1099	54.1873
1099.5	55.0757
1100	56.0226
1100.5	56.835
1101	57.2631
1101.5	57.2264
1102	56.7144
1102.5	55.8498
1103	54.9167
1103.5	54.1403
1104	53.7426
1104.5	53.7421
1105	54.1137
1105.5	54.7171
1106	55.2793
1106.5	55.5728
1107	55.358
1107.5	54.6934
1108	53.7145
1108.5	52.6903
1109	51.8951
1109.5	51.4624
1110	51.4191
1110.5	51.5269
1111	51.5941
1111.5	51.4523
1112	51.16
1112.5	50.8685
1113	50.8192
1113.5	51.0557
1114	51.4896
1114.5	51.8851
1115	52.0357
1115.5	51.9091
1116	51.6752
1116.5	51.6598
1117	52.0611
1117.5	52.9095
1118	53.816
1118.5	54.3615
1119	54.0519
1119.5	52.8958
1120	51.1491
1120.5	49.2943
1121	47.8647
1121.5	47.173
1122	47.4571
1122.5	48.4438
1123	49.7544
1123.5	50.9048
1124	51.5271
1124.5	51.5367
1125	51.0483
1125.5	50.4722
1126	50.1099
1126.5	50.1096
1127	50.3115
1127.5	50.5043
1128	50.5937
1128.5	50.676
1129	50.893
1129.5	51.3065
1130	51.7592
1130.5	52.0309
1131	51.9504
1131.5	51.5955
1132	51.1722
1132.5	50.829
1133	50.5264
1133.5	50.1091
1134	49.5315
1134.5	49.0859
1135	49.2033
1135.5	50.2668
1136	52.0687
1136.5	53.827
1137	54.5116
1137.5	53.4139
1138	50.8181
1138.5	47.5494
1139	44.9623
1139.5	43.9114
1140	44.7183
1140.5	46.8196
1141	49.1295
1141.5	50.9288
1142	51.9085
1142.5	52.3225
1143	52.4675
1143.5	52.5737
1144	52.6373
1144.5	52.484
1145	51.9192
1145.5	50.9842
1146	49.8423
1146.5	48.8293
1147	48.2468
1147.5	48.2954
1148	49.0631
1148.5	50.3392
1149	51.9328
1149.5	53.5658
1150	54.9636
1150.5	55.9053
1151	56.1815
1151.5	55.8833
1152	55.1267
1152.5	54.1382
1153	53.217
1153.5	52.5343
1154	52.1728
1154.5	52.0469
1155	52.1551
1155.5	52.6665
1156	53.7247
1156.5	55.4851
1157	58.0163
1157.5	60.869
1158	63.5917
1158.5	65.606
1159	66.8408
1159.5	67.4326
1160	67.7231
1160.5	68.0489
1161	68.4026
1161.5	68.4562
1162	67.8983
1162.5	66.5659
1163	64.4371
1163.5	61.9609
1164	59.475
1164.5	57.2674
1165	55.3758
1165.5	53.7781
1166	52.5385
1166.5	51.694
1167	51.3221
1167.5	51.5015
1168	52.0168
1168.5	52.6194
1169	53.0101
1169.5	53.0289
1170	52.6691
1170.5	52.0175
1171	51.3227
1171.5	50.7867
1172	50.5668
1172.5	50.5734
1173	50.6126
1173.5	50.4379
1174	49.9666
1174.5	49.3385
1175	48.8828
1175.5	48.8993
1176	49.4115
1176.5	50.1721
1177	50.6755
1177.5	50.5833
1178	49.8321
1178.5	48.8443
1179	48.0593
1179.5	47.7612
1180	47.8783
1180.5	48.1659
1181	48.4751
1181.5	48.8377
1182	49.3754
1182.5	50.1264
1183	50.851
1183.5	51.1752
1184	50.7953
1184.5	49.7937
1185	48.5603
1185.5	47.4497
1186	46.6061
1186.5	45.8601
1187	44.9771
1187.5	43.8983
1188	42.8947
1188.5	42.4287
1189	42.9175
1189.5	44.2651
1190	46.1236
1190.5	47.9671
1191	49.433
1191.5	50.3612
1192	50.737
1192.5	50.6719
1193	50.1432
1193.5	49.1315
1194	47.8299
1194.5	46.5202
1195	45.6508
1195.5	45.3949
1196	45.7248
1196.5	46.3568
1197	46.8805
1197.5	47.0729
1198	46.9144
1198.5	46.6671
1199	46.5575
1199.5	46.7212
1200	47.0123
1200.5	47.1976
1201	47.0313
1201.5	46.5871
1202	46.1138
1202.5	46.1131
1203	46.8796
1203.5	48.486
1204	50.656
1204.5	52.6042
1205	53.6664
1205.5	53.1655
1206	51.5022
1206.5	49.3301
1207	47.5536
1207.5	46.6268
1208	46.5493
1208.5	47.0224
1209	47.5155
1209.5	47.8531
1210	48.1209
1210.5	48.53
1211	49.1255
1211.5	49.7003
1212	49.9645
1212.5	49.8076
1213	49.2878
1213.5	48.697
1214	48.2101
1214.5	47.9192
1215	47.8271
1215.5	48.0321
1216	48.8297
1216.5	50.2924
1217	52.1693
1217.5	53.7716
1218	54.366
1218.5	53.6331
1219	51.6499
1219.5	49.3145
1220	47.449
1220.5	46.6836
1221	46.8828
1221.5	47.5809
1222	48.3346
1222.5	48.977
1223	49.6177
1223.5	50.3572
1224	51.0387
1224.5	51.3359
1225	50.8782
1225.5	49.7354
1226	48.361
1226.5	47.3629
1227	47.1095
1227.5	47.3593
1228	47.5592
1228.5	47.1889
1229	46.2656
1229.5	45.2933
1230	45.0913
1230.5	46.064
1231	48.1383
1231.5	50.4426
1232	51.9147
1232.5	51.8177
1233	50.2924
1233.5	48.2313
1234	46.5899
1234.5	46.0966
1235	46.6847
1235.5	47.9452
1236	49.1857
1236.5	49.9715
1237	50.2098
1237.5	50.153
1238	50.0813
1238.5	50.0325
1239	49.8514
1239.5	49.4174
1240	48.7773
1240.5	48.2518
1241	48.1986
1241.5	48.8395
1242	50.0799
1242.5	51.3634
1243	52.1721
1243.5	52.0534
1244	51.0794
1244.5	49.4342
1245	47.4892
1245.5	45.7166
1246	44.4773
1246.5	44.127
1247	44.5602
1247.5	45.505
1248	46.4558
1248.5	46.9428
1249	46.7543
1249.5	45.9552
1250	45.0836
1250.5	44.6149
1251	45.0583
1251.5	46.3554
1252	48.2977
1252.5	50.4375
1253	52.2066
1253.5	53.1644
1254	52.7357
1254.5	51.1189
1255	48.638
1255.5	45.9811
1256	43.9945
1256.5	43.2364
1257	43.9675
1257.5	45.5033
1258	47.2279
1258.5	48.4738
1259	49.0436
1259.5	49.1083
1260	49.2404
1260.5	50.2066
1261	52.6194
1261.5	56.9936
1262	62.5232
1262.5	68.1324
1263	72.2188
1263.5	73.8281
1264	72.7822
1264.5	69.3802
1265	65.0734
1265.5	60.9936
1266	58.0385
1266.5	56.162
1267	55.0173
1267.5	54.2654
1268	53.577
1268.5	52.8287
1269	52.0405
1269.5	51.387
1270	51.094
1270.5	51.435
1271	52.2589
1271.5	53.1235
1272	53.426
1272.5	52.8312
1273	51.5005
1273.5	49.8768
1274	48.5455
1274.5	47.7689
1275	47.6265
1275.5	47.9933
1276	48.7947
1276.5	50.0549
1277	51.581
1277.5	53.0481
1278	54.2514
1278.5	55.3979
1279	56.991
1279.5	59.6552
1280	63.9173
1280.5	70.6467
1281	82.9493
1281.5	105.98
1282	142.823
1282.5	194.815
1283	254.909
1283.5	308.587
1284	337.197
1284.5	327.132
1285	284.207
1285.5	219.416
1286	152.432
1286.5	99.3137
1287	67.7083
1287.5	56.3032
1288	54.5289
1288.5	55.0069
1289	53.5922
1289.5	51.0392
1290	49.1888
1290.5	49.2741
1291	50.5378
1291.5	51.8478
1292	52.1966
1292.5	51.585
1293	50.3428
1293.5	48.9532
1294	47.8553
1294.5	47.4457
1295	48.1688
1295.5	49.7406
1296	51.5633
1296.5	52.5791
1297	52.2582
1297.5	50.7286
1298	48.7158
1298.5	47.0187
1299	45.861
1299.5	45.0973
1300	44.3694
1300.5	43.6416
1301	43.194
1301.5	43.2222
1302	43.6702
1302.5	44.2834
1303	44.8063
1303.5	45.2337
1304	45.7188
1304.5	46.3285
1305	46.9393
1305.5	47.2306
1306	47.0999
1306.5	46.7231
1307	46.4891
1307.5	46.6831
1308	47.3086
1308.5	48.1109
1309	48.6752
1309.5	48.779
1310	48.3396
1310.5	47.6503
1311	46.9087
1311.5	46.2035
1312	45.5048
1312.5	44.7736
1313	44.0482
1313.5	43.4562
1314	43.1254
1314.5	43.1195
1315	43.3006
1315.5	43.5041
1316	43.5958
1316.5	43.5775
1317	43.5715
1317.5	43.8076
1318	44.4869
1318.5	45.6405
1319	47.0952
1319.5	48.3934
1320	49.0739
1320.5	48.7075
1321	47.3836
1321.5	45.6114
1322	44.0508
1322.5	43.2339
1323	43.0891
1323.5	43.3252
1324	43.5594
1324.5	43.6864
1325	43.8479
1325.5	44.2145
1326	44.7125
1326.5	45.0349
1327	44.9033
1327.5	44.3872
1328	43.7399
1328.5	43.2484
1329	42.9208
1329.5	42.5584
1330	41.9771
1330.5	41.3536
1331	41.1576
1331.5	41.8309
1332	43.2397
1332.5	44.9215
1333	46.1456
1333.5	46.557
1334	46.1687
1334.5	45.3638
1335	44.5782
1335.5	43.8833
1336	43.1591
1336.5	42.3572
1337	41.6577
1337.5	41.4794
1338	42.0285
1338.5	43.256
1339	44.7261
1339.5	45.9483
1340	46.7137
1340.5	47.0712
1341	47.307
1341.5	47.5154
1342	47.5005
1342.5	46.9708
1343	45.7943
1343.5	44.1271
1344	42.5749
1344.5	41.6852
1345	42.0089
1345.5	43.3114
1346	45.1925
1346.5	46.9007
1347	47.8742
1347.5	47.8922
1348	46.9462
1348.5	45.644
1349	44.439
1349.5	43.7655
1350	43.5933
1350.5	43.724
1351	43.931
1351.5	44.0781
1352	44.1514
1352.5	44.1331
1353	43.9924
1353.5	43.6896
1354	43.2519
1354.5	42.8507
1355	42.6064
1355.5	42.587
1356	42.7331
1356.5	43.0554
1357	43.7462
1357.5	44.9415
1358	46.5578
1358.5	48.165
1359	49.1681
1359.5	49.2257
1360	48.2547
1360.5	46.847
1361	45.6452
1361.5	45.3301
1362	46.0131
1362.5	47.5046
1363	49.4598
1363.5	51.2708
1364	52.4574
1364.5	52.6135
1365	51.8353
1365.5	50.5126
1366	49.002
1366.5	47.6038
1367	46.5803
1367.5	46.4667
1368	47.7525
1368.5	50.4234
1369	53.6909
1369.5	55.8684
1370	55.8933
1370.5	53.5741
1371	50.3283
1371.5	47.8506
1372	47.1545
1372.5	47.8463
1373	48.7144
1373.5	49.1345
1374	49.2578
1374.5	49.4693
1375	49.7339
1375.5	49.6344
1376	49.1417
1376.5	48.9781
1377	50.021
1377.5	52.0039
1378	53.8011
1378.5	54.244
1379	53.8214
1379.5	54.258
1380	57.1342
1380.5	61.118
1381	63.7555
1381.5	63.3369
1382	61.6766
1382.5	61.9714
1383	66.4571
1383.5	73.0523
1384	80.2405
1384.5	94.0209
1385	127.119
1385.5	195.054
1386	305.586
1386.5	433.82
1387	539.572
1387.5	571.717
1388	524.11
1388.5	410.983
1389	272.281
1389.5	155.624
1390	83.9373
1390.5	62.6109
1391	61.5053
1391.5	62.8516
1392	57.9366
1392.5	50.5181
1393	45.7314
1393.5	46.3847
1394	48.8843
1394.5	49.9477
1395	48.4685
1395.5	46.6603
1396	46.1249
1396.5	47.2488
1397	48.5574
1397.5	49.1227
1398	49.0146
1398.5	48.9636
1399	49.0562
1399.5	48.7293
1400	47.6581
1400.5	46.15
1401	45.1593
1401.5	45.1322
1402	45.7822
1402.5	46.4995
1403	46.9355
1403.5	47.2268
1404	47.6174
1404.5	47.9966
1405	48.103
1405.5	48.1157
1406	49.0032
1406.5	51.8536
1407	57.6183
1407.5	65.26
1408	72.7559
1408.5	77.4229
1409	78.0389
1409.5	74.8293
1410	68.6988
1410.5	61.771
1411	55.6028
1411.5	51.1605
1412	48.0508
1412.5	45.5884
1413	43.4125
1413.5	41.642
1414	40.6759
1414.5	40.8857
1415	41.8055
1415.5	42.5796
1416	42.5989
1416.5	41.9929
1417	41.4156
1417.5	41.5074
1418	42.3049
1418.5	43.1778
1419	43.4676
1419.5	43.0081
1420	42.2169
1420.5	41.6548
1421	41.7244
1421.5	42.3523
1422	43.2309
1422.5	43.9656
1423	44.3084
1423.5	44.0808
1424	43.2655
1424.5	42.0872
1425	40.8313
1425.5	39.7754
1426	38.9397
1426.5	38.1844
1427	37.3056
1427.5	36.2783
1428	35.2887
1428.5	34.6971
1429	34.6879
1429.5	35.3605
1430	36.6634
1430.5	38.2946
1431	39.963
1431.5	41.2385
1432	41.9052
1432.5	41.8303
1433	40.996
1433.5	39.6862
1434	38.1285
1434.5	36.682
1435	35.7136
1435.5	35.4846
1436	36.1051
1436.5	37.1139
1437	38.0074
1437.5	38.2502
1438	37.9383
1438.5	37.5373
1439	37.6921
1439.5	38.5333
1440	39.827
1440.5	40.9878
1441	41.503
1441.5	41.2159
1442	40.1902
1442.5	38.8719
1443	37.5889
1443.5	36.7945
1444	36.7006
1444.5	37.3259
1445	38.3106
1445.5	38.9833
1446	38.9207
1446.5	37.9435
1447	36.617
1447.5	35.5024
1448	34.9537
1448.5	34.6674
1449	34.2547
1449.5	33.486
1450	32.7271
1450.5	32.6195
1451	33.8927
1451.5	36.2184
1452	38.8565
1452.5	40.71
1453	41.1652
1453.5	40.2746
1454	38.6173
1454.5	37.2511
1455	36.7153
1455.5	37.2487
1456	38.4705
1456.5	39.9308
1457	41.1489
1457.5	41.7799
1458	41.6633
1458.5	40.6784
1459	39.1383
1459.5	37.5358
1460	36.4723
1460.5	36.1804
1461	36.3961
1461.5	36.704
1462	36.7631
1462.5	36.6101
1463	36.5331
1463.5	36.7583
1464	37.1021
1464.5	37.1415
1465	36.5622
1465.5	35.5127
1466	34.4876
1466.5	34.1396
1467	34.5424
1467.5	35.3905
1468	36.0421
1468.5	36.096
1469	35.5272
1469.5	34.8554
1470	34.6884
1470.5	35.3418
1471	36.6155
1471.5	37.8913
1472	38.5547
1472.5	38.2278
1473	37.276
1473.5	36.1834
1474	35.4315
1474.5	35.1181
1475	35.1113
1475.5	35.1427
1476	35.0572
1476.5	34.832
1477	34.4243
1477.5	33.7597
1478	32.7478
1478.5	31.4869
1479	30.3945
1479.5	29.8688
1480	30.1603
1480.5	30.9817
1481	31.9856
1481.5	32.8154
1482	33.4305
1482.5	33.9246
1483	34.334
1483.5	34.5858
1484	34.5725
1484.5	34.3063
1485	34.095
1485.5	34.1861
1486	34.6949
1486.5	35.3513
1487	35.8617
1487.5	35.9012
1488	35.5593
1488.5	34.9947
1489	34.4147
1489.5	34.0085
1490	33.9156
1490.5	34.3577
1491	35.1625
1491.5	36.0505
1492	36.479
1492.5	36.1484
1493	35.0724
1493.5	33.7089
1494	32.8517
1494.5	32.8726
1495	33.7876
1495.5	34.8885
1496	35.5577
1496.5	35.2637
1497	34.3507
1497.5	33.2496
1498	32.3637
1498.5	31.7567
1499	31.2668
1499.5	30.701
1500	30.1125
1500.5	29.7186
1501	29.7973
1501.5	30.3041
1502	30.9795
1502.5	31.4557
1503	31.6355
1503.5	31.7246
1504	32.1307
1504.5	33.1036
1505	34.5449
1505.5	35.9717
1506	36.7979
1506.5	36.7468
1507	35.7431
1507.5	34.1903
1508	32.5815
1508.5	31.3558
1509	30.7273
1509.5	30.7045
1510	31.2787
1510.5	32.2473
1511	33.3156
1511.5	34.1528
1512	34.5057
1512.5	34.3249
1513	33.6461
1513.5	32.7122
1514	31.8231
1514.5	31.2173
1515	31.0114
1515.5	31.1635
1516	31.6249
1516.5	32.3023
1517	33.0889
1517.5	33.9045
1518	34.6031
1518.5	35.0125
1519	34.9347
1519.5	34.319
1520	33.5154
1520.5	32.9237
1521	32.9023
1521.5	33.3897
1522	34.0816
1522.5	34.4908
1523	34.4866
1523.5	34.2365
1524	34.1212
1524.5	34.3452
1525	34.8267
1525.5	35.1782
1526	35.0247
1526.5	34.4178
1527	33.6605
1527.5	33.0508
1528	32.6377
1528.5	32.363
1529	32.1654
1529.5	32.1557
1530	32.4761
1530.5	33.1567
1531	34.0729
1531.5	35.035
1532	35.7047
1532.5	35.9205
1533	35.579
1533.5	34.814
1534	33.9738
1534.5	33.5253
1535	33.6154
1535.5	33.9553
1536	34.2741
1536.5	34.3468
1537	34.125
1537.5	33.8443
1538	33.8113
1538.5	34.1894
1539	34.8518
1539.5	35.4507
1540	35.495
1540.5	34.9359
1541	34.0073
1541.5	33.1597
1542	32.7743
1542.5	33.0168
1543	33.63
1543.5	34.2322
1544	34.5779
1544.5	34.6483
1545	34.5983
1545.5	34.6169
1546	34.692
1546.5	34.6756
1547	34.3391
1547.5	33.6526
1548	32.7938
1548.5	32.2836
1549	32.4853
1549.5	33.6449
1550	35.4336
1550.5	37.2275
1551	38.0927
1551.5	37.8038
1552	36.4979
1552.5	34.817
1553	33.5101
1553.5	33.1158
1554	33.3803
1554.5	33.8361
1555	34.0625
1555.5	34.0022
1556	33.9166
1556.5	34.2377
1557	34.9977
1557.5	36.0183
1558	36.9235
1558.5	37.4729
1559	37.5915
1559.5	37.509
1560	37.3496
1560.5	37.1016
1561	36.666
1561.5	35.9261
1562	34.9015
1562.5	33.7687
1563	32.681
1563.5	31.7643
1564	31.0666
1564.5	30.6834
1565	30.6299
1565.5	30.9251
1566	31.526
1566.5	32.1914
1567	32.6123
1567.5	32.4915
1568	31.8952
1568.5	31.0612
1569	30.4607
1569.5	30.4303
1570	31.2219
1570.5	32.3615
1571	33.4249
1571.5	34.0111
1572	34.1334
1572.5	34.0365
1573	34.1649
1573.5	34.6244
1574	35.2517
1574.5	35.6604
1575	35.5904
1575.5	34.9071
1576	33.9563
1576.5	32.9926
1577	32.1915
1577.5	31.5751
1578	31.184
1578.5	31.1559
1579	31.6227
1579.5	32.726
1580	34.2314
1580.5	35.7948
1581	36.8455
1581.5	37.0961
1582	36.5784
1582.5	35.7093
1583	35.0138
1583.5	35.0019
1584	35.7867
1584.5	36.9588
1585	37.8258
1585.5	37.9271
1586	37.1574
1586.5	35.9736
1587	35.2087
1587.5	35.4435
1588	36.5045
1588.5	37.7531
1589	38.3442
1589.5	37.8831
1590	36.5792
1590.5	35.2223
1591	34.3996
1591.5	34.3469
1592	34.8807
1592.5	35.633
1593	36.3725
1593.5	37.0589
1594	37.6701
1594.5	38.0414
1595	38.0165
1595.5	37.5248
1596	36.8816
1596.5	36.5467
1597	36.863
1597.5	37.7994
1598	39.0078
1598.5	40.0007
1599	40.5581
1599.5	40.7464
1600	40.7009
1600.5	40.5038
1601	40.0476
1601.5	39.1299
1602	37.8483
1602.5	36.4519
1603	35.3186
1603.5	34.6471
1604	34.5044
1604.5	34.6041
1605	34.746
1605.5	34.9193
1606	35.2725
1606.5	35.9936
1607	37.0951
1607.5	38.2881
1608	39.0642
1608.5	39.0682
1609	38.2098
1609.5	36.627
1610	34.8894
1610.5	33.5657
1611	33.0715
1611.5	33.388
1612	34.3892
1612.5	35.6649
1613	36.8364
1613.5	37.4871
1614	37.554
1614.5	37.0822
1615	36.2713
1615.5	35.4419
1616	34.8535
1616.5	34.6251
1617	34.6363
1617.5	34.7815
1618	35.0315
1618.5	35.49
1619	36.3808
1619.5	37.6459
1620	38.9736
1620.5	39.841
1621	39.9637
1621.5	39.2553
1622	38.1015
1622.5	36.9792
1623	36.1972
1623.5	35.6616
1624	35.218
1624.5	34.8112
1625	34.611
1625.5	34.9449
1626	35.8813
1626.5	37.1301
1627	38.2722
1627.5	38.9564
1628	39.1311
1628.5	38.9187
1629	38.5986
1629.5	38.1949
1630	37.6246
1630.5	36.9063
1631	36.2275
1631.5	36.0149
1632	36.4763
1632.5	37.5787
1633	38.8274
1633.5	39.7364
1634	39.7926
1634.5	38.9475
1635	37.3896
1635.5	35.6342
1636	34.1703
1636.5	33.4892
1637	33.8036
1637.5	35.0299
1638	36.8063
1638.5	38.4497
1639	39.5772
1639.5	40.0336
1640	40.0626
1640.5	39.909
1641	39.7138
1641.5	39.3752
1642	38.7153
1642.5	37.805
1643	36.9011
1643.5	36.4506
1644	36.6649
1644.5	37.4096
1645	38.2041
1645.5	38.6225
1646	38.3631
1646.5	37.4864
1647	36.2499
1647.5	35.0403
1648	34.181
1648.5	33.8512
1649	34.1224
1649.5	34.7737
1650	35.5222
1650.5	35.9793
1651	36.0698
1651.5	35.9664
1652	36.0783
1652.5	36.6819
1653	37.8676
1653.5	39.2011
1654	40.1455
1654.5	40.2975
1655	39.7519
1655.5	38.7785
1656	37.8503
1656.5	37.2429
1657	37.0709
1657.5	37.0927
1658	37.1436
1658.5	37.128
1659	37.0926
1659.5	37.15
1660	37.4238
1660.5	37.8773
1661	38.3414
1661.5	38.5452
1662	38.3018
1662.5	37.4977
1663	36.4209
1663.5	35.478
1664	35.1018
1664.5	35.2914
1665	35.7956
1665.5	36.054
1666	35.6772
1666.5	34.4803
1667	33.0605
1667.5	32.1208
1668	32.383
1668.5	33.8092
1669	36.0124
1669.5	38.0309
1670	39.0111
1670.5	38.543
1671	37.161
1671.5	35.616
1672	34.7385
1672.5	34.705
1673	35.2396
1673.5	35.5725
1674	35.274
1674.5	34.344
1675	33.2732
1675.5	32.5249
1676	32.3906
1676.5	32.6513
1677	32.9606
1677.5	33.0819
1678	33.0716
1678.5	33.0477
1679	33.0802
1679.5	33.1141
1680	33.0889
1680.5	33.1242
1681	33.4033
1681.5	34.0708
1682	34.9095
1682.5	35.5789
1683	35.6625
1683.5	35.1579
1684	34.3479
1684.5	33.6247
1685	33.1288
1685.5	32.8075
1686	32.4873
1686.5	32.1529
1687	32.0605
1687.5	32.4242
1688	33.3055
1688.5	34.4874
1689	35.6128
1689.5	36.3571
1690	36.5625
1690.5	36.2558
1691	35.5064
1691.5	34.5229
1692	33.5004
1692.5	32.7147
1693	32.3148
1693.5	32.355
1694	32.6595
1694.5	33.032
1695	33.4006
1695.5	33.7862
1696	34.1967
1696.5	34.5321
1697	34.6342
1697.5	34.4272
1698	34.0561
1698.5	33.7422
1699	33.6112
1699.5	33.577
1700	33.4699
1700.5	33.1807
1701	32.8953
1701.5	32.844
1702	33.1314
1702.5	33.5234
1703	33.6956
1703.5	33.3873
1704	32.6764
1704.5	31.841
1705	31.1827
1705.5	30.7739
1706	30.609
1706.5	30.6174
1707	30.8251
1707.5	31.2723
1708	31.8582
1708.5	32.4154
1709	32.8366
1709.5	33.1787
1710	33.5929
1710.5	34.153
1711	34.7648
1711.5	35.1542
1712	35.2431
1712.5	35.1402
1713	35.1136
1713.5	35.2859
1714	35.5628
1714.5	35.6158
1715	35.2053
1715.5	34.317
1716	33.2969
1716.5	32.4039
1717	31.7928
1717.5	31.3917
1718	31.1175
1718.5	30.948
1719	30.9467
1719.5	31.1842
1720	31.5697
1720.5	31.9567
1721	32.1702
1721.5	32.192
1722	32.1039
1722.5	32.0682
1723	32.0992
1723.5	32.0293
1724	31.5864
1724.5	30.6606
1725	29.3806
1725.5	28.3215
1726	28.0834
1726.5	28.9188
1727	30.2062
1727.5	31.1119
1728	30.924
1728.5	29.7888
1729	28.4967
1729.5	28.218
1730	29.3759
1730.5	31.392
1731	33.0215
1731.5	33.4517
1732	32.5929
1732.5	31.2164
1733	30.1178
1733.5	29.678
1734	29.5951
1734.5	29.5334
1735	29.4888
1735.5	29.705
1736	30.3912
1736.5	31.2523
1737	31.7192
1737.5	31.2926
1738	30.2584
1738.5	29.2924
1739	29.1039
1739.5	29.8622
1740	31.2905
1740.5	32.6318
1741	33.3436
1741.5	33.2504
1742	32.6768
1742.5	31.9408
1743	31.3645
1743.5	31.0864
1744	31.1676
1744.5	31.4487
1745	31.7243
1745.5	31.771
1746	31.6175
1746.5	31.4598
1747	31.6454
1747.5	32.3384
1748	33.507
1748.5	34.6852
1749	35.3333
1749.5	34.9417
1750	33.6927
1750.5	31.96
1751	30.411
1751.5	29.5032
1752	29.4252
1752.5	29.8697
1753	30.3617
1753.5	30.5777
1754	30.5989
1754.5	30.6374
1755	30.8646
1755.5	31.1649
1756	31.3151
1756.5	31.1802
1757	30.9812
1757.5	31.0829
1758	31.5956
1758.5	32.2725
1759	32.6252
1759.5	32.4193
1760	31.7813
1760.5	31.2185
1761	31.0981
1761.5	31.354
1762	31.5525
1762.5	31.4107
1763	30.9284
1763.5	30.4809
1764	30.3425
1764.5	30.5277
1765	30.6248
1765.5	30.3023
1766	29.5059
1766.5	28.5003
1767	27.5607
1767.5	26.8473
1768	26.3584
1768.5	26.1242
1769	26.1929
1769.5	26.5853
1770	27.1497
1770.5	27.5801
1771	27.6628
1771.5	27.521
1772	27.5819
1772.5	28.3952
1773	30.025
1773.5	31.9191
1774	33.1134
1774.5	33.098
1775	31.8842
1775.5	30.2512
1776	29.2103
1776.5	29.5235
1777	31.0763
1777.5	32.991
1778	34.1852
1778.5	34.201
1779	33.1708
1779.5	31.7111
1780	30.5548
1780.5	30.1274
1781	30.4809
1781.5	31.348
1782	32.4475
1782.5	33.4417
1783	34.0209
1783.5	33.7185
1784	32.4922
1784.5	30.5143
1785	28.4272
1785.5	26.984
1786	26.6628
1786.5	27.2766
1787	28.3166
1787.5	29.2727
1788	29.8683
1788.5	30.0861
1789	29.9999
1789.5	29.753
1790	29.4634
1790.5	29.3496
1791	29.5487
1791.5	30.049
1792	30.4923
1792.5	30.4941
1793	29.7456
1793.5	28.5981
1794	27.6264
1794.5	27.4795
1795	28.0546
1795.5	28.9213
1796	29.4714
1796.5	29.5273
1797	29.263
1797.5	29.1028
1798	29.1924
1798.5	29.2994
1799	29.0443
1799.5	28.3378
1800	27.5115
1800.5	26.9975
1801	27.0553
1801.5	27.4706
1802	27.8547
1802.5	27.8514
1803	27.5388
1803.5	27.1985
1804	27.0859
1804.5	27.1492
1805	27.2103
1805.5	27.1051
1806	26.8715
1806.5	26.6629
1807	26.5977
1807.5	26.6326
1808	26.6167
1808.5	26.5207
1809	26.4589
1809.5	26.6174
1810	26.9954
1810.5	27.4161
1811	27.5841
1811.5	27.4193
1812	27.146
1812.5	27.2606
1813	28.0083
1813.5	29.2337
1814	30.3245
1814.5	30.7024
1815	30.1601
1815.5	29.1063
1816	28.2061
1816.5	28.0169
1817	28.5178
1817.5	29.2276
1818	29.5788
1818.5	29.3182
1819	28.5259
1819.5	27.5388
1820	26.6112
1820.5	25.8708
1821	25.3234
1821.5	25.0161
1822	24.9363
1822.5	25.049
1823	25.2529
1823.5	25.4446
1824	25.6244
1824.5	25.8957
1825	26.3267
1825.5	26.8856
1826	27.3626
1826.5	27.5801
1827	27.4243
1827.5	27.0043
1828	26.4138
1828.5	25.7768
1829	25.2437
1829.5	25.027
1830	25.3277
1830.5	26.1377
1831	27.2542
1831.5	28.201
1832	28.701
1832.5	28.6321
1833	28.1926
1833.5	27.518
1834	26.7305
1834.5	25.9764
1835	25.5465
1835.5	25.7913
1836	26.7709
1836.5	28.0863
1837	28.9948
1837.5	29.0822
1838	28.5094
1838.5	28.0603
1839	28.4376
1839.5	29.6933
1840	31.1129
1840.5	31.6397
1841	30.8536
1841.5	29.1629
1842	27.3652
1842.5	26.0349
1843	25.2329
1843.5	24.6372
1844	23.9937
1844.5	23.3705
1845	23.1044
1845.5	23.4104
1846	24.2837
1846.5	25.2981
1847	26.1371
1847.5	26.5784
1848	26.6925
1848.5	26.6279
1849	26.6409
1849.5	26.9069
1850	27.5047
1850.5	28.2072
1851	28.6502
1851.5	28.4139
1852	27.58
1852.5	26.4675
1853	25.6725
1853.5	25.5437
1854	26.1735
1854.5	27.1975
1855	28.1897
1855.5	28.7792
1856	28.8985
1856.5	28.6472
1857	28.1995
1857.5	27.7863
1858	27.6117
1858.5	27.8217
1859	28.3521
1859.5	29.0087
1860	29.4753
1860.5	29.5842
1861	29.2952
1861.5	28.8503
1862	28.4137
1862.5	28.0378
1863	27.6535
1863.5	27.1794
1864	26.5911
1864.5	25.9309
1865	25.2763
1865.5	24.746
1866	24.4735
1866.5	24.6359
1867	25.1214
1867.5	25.6485
1868	25.7476
1868.5	25.2036
1869	24.0573
1869.5	22.8069
1870	21.888
1870.5	21.5787
1871	21.6345
1871.5	21.7971
1872	21.9984
1872.5	22.4946
1873	23.5922
1873.5	25.2101
1874	26.8571
1874.5	27.852
1875	27.9282
1875.5	27.3213
1876	26.6954
1876.5	26.6528
1877	27.3569
1877.5	28.336
1878	28.8563
1878.5	28.3732
1879	27.0118
1879.5	25.3278
1880	24.0922
1880.5	23.7143
1881	24.1768
1881.5	25.053
1882	25.787
1882.5	26.0747
1883	25.966
1883.5	25.726
1884	25.56
1884.5	25.5117
1885	25.5661
1885.5	25.7689
1886	26.1505
1886.5	26.6728
1887	27.1026
1887.5	27.1897
1888	26.7913
1888.5	26.1369
1889	25.6095
1889.5	25.5458
1890	25.8389
1890.5	26.2376
1891	26.483
1891.5	26.5843
1892	26.6842
1892.5	26.8964
1893	27.1199
1893.5	27.1148
1894	26.7737
1894.5	26.2539
1895	25.9721
1895.5	26.1404
1896	26.6523
1896.5	27.0299
1897	26.8613
1897.5	25.9804
1898	24.7562
1898.5	23.7283
1899	23.4219
1899.5	23.8051
1900	24.531
1900.5	25.0185
1901	24.971
1901.5	24.4951
1902	24.1014
1902.5	24.2248
1903	25.0889
1903.5	26.3591
1904	27.5284
1904.5	28.0176
1905	27.7819
1905.5	27.058
1906	26.3557
1906.5	26.0106
1907	26.0688
1907.5	26.2235
1908	26.2283
1908.5	26.0177
1909	25.767
1909.5	25.6163
1910	25.5946
1910.5	25.599
1911	25.6034
1911.5	25.7548
1912	26.2323
1912.5	27.1321
1913	28.2001
1913.5	29.0573
1914	29.3153
1914.5	28.9984
1915	28.2428
1915.5	27.2663
1916	26.2818
1916.5	25.4766
1917	25.0822
1917.5	25.219
1918	25.913
1918.5	26.8011
1919	27.4757
1919.5	27.5215
1920	27.0064
1920.5	26.1864
1921	25.4121
1921.5	24.832
1922	24.4364
1922.5	24.1068
1923	23.8009
1923.5	23.6146
1924	23.7163
1924.5	24.2665
1925	25.3769
1925.5	26.8756
1926	28.5117
1926.5	29.864
1927	30.6594
1927.5	30.6794
1928	30.0174
1928.5	28.8521
1929	27.4162
1929.5	26.0378
1930	24.9591
1930.5	24.3448
1931	24.1048
1931.5	24.0964
1932	24.1693
1932.5	24.358
1933	24.8862
1933.5	25.8203
1934	26.9412
1934.5	27.6848
1935	27.6362
1935.5	26.6627
1936	25.1913
1936.5	23.8867
1937	23.3663
1937.5	23.7654
1938	24.8215
1938.5	26.0412
1939	26.8937
1939.5	27.1077
1940	26.7003
1940.5	26.0654
1941	25.6058
1941.5	25.5311
1942	25.703
1942.5	25.8019
1943	25.5909
1943.5	25.1194
1944	24.7136
1944.5	24.6903
1945	25.1667
1945.5	25.94
1946	26.6644
1946.5	27.0507
1947	27.0339
1947.5	26.7103
1948	26.2342
1948.5	25.8072
1949	25.5729
1949.5	25.65
1950	25.9795
1950.5	26.422
1951	26.7367
1951.5	26.7924
1952	26.5711
1952.5	26.2748
1953	26.0961
1953.5	26.1742
1954	26.4011
1954.5	26.5811
1955	26.4663
1955.5	26.0082
1956	25.2997
1956.5	24.607
1957	24.15
1957.5	24.1435
1958	24.573
1958.5	25.3575
1959	26.2621
1959.5	26.9438
1960	27.061
1960.5	26.4613
1961	25.3622
1961.5	24.1666
1962	23.311
1962.5	22.8967
1963	22.7497
1963.5	22.5701
1964	22.3602
1964.5	22.4377
1965	23.0496
1965.5	24.2258
1966	25.5491
1966.5	26.5907
1967	27.0309
1967.5	26.9884
1968	26.6412
1968.5	26.1439
1969	25.6147
1969.5	25.2029
1970	25.1665
1970.5	25.6113
1971	26.4287
1971.5	27.1187
1972	27.3227
1972.5	26.9297
1973	26.3838
1973.5	26.1107
1974	26.3815
1974.5	27.0119
1975	27.6711
1975.5	27.9794
1976	27.7823
1976.5	27.0245
1977	25.9901
1977.5	25.0454
1978	24.7188
1978.5	25.1729
1979	26.255
1979.5	27.2671
1980	27.5517
1980.5	26.7699
1981	25.3727
1981.5	24.0279
1982	23.4254
1982.5	23.6038
1983	24.3221
1983.5	25.1471
1984	25.8113
1984.5	26.255
1985	26.551
1985.5	26.7341
1986	26.7237
1986.5	26.4497
1987	25.9151
1987.5	25.238
1988	24.6314
1988.5	24.2395
1989	24.0759
1989.5	24.0361
1990	24.0738
1990.5	24.242
1991	24.6201
1991.5	25.2178
1992	25.792
1992.5	26.0746
1993	25.8884
1993.5	25.4473
1994	25.1037
1994.5	25.204
1995	25.7639
1995.5	26.6212
1996	27.4642
1996.5	28.1133
1997	28.4053
1997.5	28.2938
1998	27.7297
1998.5	26.8816
1999	26.1164
1999.5	25.7882
2000	25.9244
2000.5	26.2301
2001	26.3108
2001.5	26.1124
2002	25.9141
2002.5	26.1986
2003	27.0453
2003.5	28.1803
2004	28.9627
2004.5	28.9792
2005	28.0312
2005.5	26.4682
2006	24.7234
2006.5	23.3208
2007	22.572
2007.5	22.6325
2008	23.3899
2008.5	24.4209
2009	25.3924
2009.5	26.1933
2010	26.958
2010.5	27.8281
2011	28.6488
2011.5	29.0631
2012	28.6566
2012.5	27.6096
2013	26.3885
2013.5	25.6462
2014	25.5328
2014.5	25.7503
2015	25.6394
2015.5	24.9033
2016	23.7143
2016.5	22.7985
2017	22.7015
2017.5	23.5385
2018	24.7213
2018.5	25.5732
2019	25.6915
2019.5	25.2838
2020	24.8021
2020.5	24.6137
2021	24.6891
2021.5	24.6726
2022	24.2367
2022.5	23.2799
2023	22.0435
2023.5	20.9137
2024	20.2514
2024.5	20.2036
2025	20.7099
2025.5	21.6073
2026	22.4951
2026.5	23.0257
2027	22.9134
2027.5	22.3192
2028	21.6312
2028.5	21.4384
2029	21.9937
2029.5	23.2416
2030	24.5939
2030.5	25.5554
2031	25.8354
2031.5	25.717
2032	25.5317
2032.5	25.5196
2033	25.5796
2033.5	25.447
2034	24.9733
2034.5	24.322
2035	23.9225
2035.5	24.0949
2036	24.8344
2036.5	25.6976
2037	26.0778
2037.5	25.558
2038	24.2621
2038.5	22.7789
2039	21.8223
2039.5	21.7253
2040	22.3017
2040.5	22.9868
2041	23.2376
2041.5	22.9312
2042	22.4555
2042.5	22.3518
2043	22.9658
2043.5	24.0665
2044	25.1442
2044.5	25.6468
2045	25.4577
2045.5	24.734
2046	23.8598
2046.5	23.248
2047	23.1843
2047.5	23.6945
2048	24.4473
2048.5	24.91
2049	24.6496
2049.5	23.7062
2050	22.6185
2050.5	22.162
2051	22.7294
2051.5	24.0785
2052	25.4284
2052.5	26.1371
2053	26.1308
2053.5	25.8526
2054	25.8514
2054.5	26.2967
2055	26.9856
2055.5	27.5058
2056	27.6411
2056.5	27.3893
2057	26.9506
2057.5	26.5157
2058	26.1577
2058.5	25.8149
2059	25.4132
2059.5	24.9548
2060	24.6063
2060.5	24.5713
2061	24.9793
2061.5	25.6364
2062	26.2239
2062.5	26.4148
2063	26.1673
2063.5	25.5978
2064	24.977
2064.5	24.4583
2065	24.1572
2065.5	24.0958
2066	24.2709
2066.5	24.5066
2067	24.519
2067.5	24.0567
2068	23.2529
2068.5	22.5154
2069	22.3728
2069.5	22.8404
2070	23.5849
2070.5	24.0245
2071	23.9376
2071.5	23.4454
2072	22.9554
2072.5	22.6833
2073	22.6003
2073.5	22.4883
2074	22.2621
2074.5	22.0184
2075	21.9312
2075.5	22.0684
2076	22.3292
2076.5	22.5375
2077	22.583
2077.5	22.5385
2078	22.5851
2078.5	22.9494
2079	23.6178
2079.5	24.4033
2080	24.947
2080.5	25.0758
2081	24.8458
2081.5	24.6253
2082	24.7299
2082.5	25.2906
2083	26.0327
2083.5	26.6168
2084	26.7058
2084.5	26.3194
2085	25.5606
2085.5	24.6214
2086	23.6855
2086.5	22.9105
2087	22.4371
2087.5	22.3231
2088	22.6212
2088.5	23.2354
2089	24.1046
2089.5	25.1653
2090	26.2465
2090.5	27.077
2091	27.2579
2091.5	26.6278
2092	25.2305
2092.5	23.6705
2093	22.567
2093.5	22.4904
2094	23.1858
2094.5	24.1378
2095	24.6496
2095.5	24.5428
2096	24.0413
2096.5	23.6663
2097	23.6091
2097.5	23.6888
2098	23.5241
2098.5	23.0489
2099	22.6594
2099.5	22.8763
2100	23.9146
2100.5	25.3454
2101	26.4407
2101.5	26.641
2102	26.1139
2102.5	25.4121
2103	25.0982
2103.5	25.1334
2104	25.1278
2104.5	24.6213
2105	23.7345
2105.5	22.9784
2106	22.9937
2106.5	23.8659
2107	25.264
2107.5	26.4993
2108	27.2381
2108.5	27.4838
2109	27.5836
2109.5	27.6895
2110	27.6928
2110.5	27.3969
2111	26.6789
2111.5	25.681
2112	24.6026
2112.5	23.6041
2113	22.7702
2113.5	22.2118
2114	22.1415
2114.5	22.6032
2115	23.5395
2115.5	24.6363
2116	25.5696
2116.5	26.0562
2117	26.0119
2117.5	25.464
2118	24.5357
2118.5	23.6224
2119	23.1128
2119.5	23.2682
2120	23.8397
2120.5	24.3555
2121	24.3909
2121.5	24.0246
2122	23.722
2122.5	23.9347
2123	24.6865
2123.5	25.5758
2124	26.1497
2124.5	26.2607
2125	26.1333
2125.5	26.042
2126	26.0723
2126.5	26.0595
2127	25.8234
2127.5	25.2122
2128	24.3154
2128.5	23.2577
2129	22.2636
2129.5	21.5163
2130	21.1256
2130.5	21.0107
2131	21.0356
2131.5	21.1799
2132	21.522
2132.5	22.0783
2133	22.6027
2133.5	22.7267
2134	22.3044
2134.5	21.7388
2135	21.6276
2135.5	22.3065
2136	23.2642
2136.5	23.7463
2137	23.1378
2137.5	21.9293
2138	20.9193
2138.5	20.9255
2139	21.8985
2139.5	23.4277
2140	24.833
2140.5	25.6994
2141	25.6778
2141.5	24.8244
2142	23.4673
2142.5	22.3961
2143	22.3075
2143.5	23.3809
2144	24.8579
2144.5	25.6825
2145	25.193
2145.5	23.881
2146	22.6681
2146.5	22.3589
2147	22.7613
2147.5	23.373
2148	23.7794
2148.5	24.119
2149	24.717
2149.5	25.6544
2150	26.6078
2150.5	27.1127
2151	27.019
2151.5	26.4863
2152	25.8103
2152.5	25.2347
2153	24.8281
2153.5	24.5313
2154	24.2055
2154.5	23.7212
2155	23.1163
2155.5	22.6409
2156	22.7508
2156.5	23.5805
2157	24.9071
2157.5	26.0915
2158	26.626
2158.5	26.3743
2159	25.7192
2159.5	25.1184
2160	24.8049
2160.5	24.6554
2161	24.4966
2161.5	24.2685
2162	24.0972
2162.5	24.125
2163	24.4344
2163.5	24.9324
2164	25.4204
2164.5	25.5231
2165	24.9451
2165.5	23.5242
2166	21.8293
2166.5	20.6562
2167	20.8985
2167.5	22.3697
2168	24.3116
2168.5	25.5081
2169	25.535
2169.5	24.7091
2170	24.055
2170.5	24.0852
2171	24.6166
2171.5	24.7818
2172	24.0414
2172.5	22.5186
2173	21.0157
2173.5	20.2558
2174	20.4064
2174.5	21.0303
2175	21.5243
2175.5	21.5325
2176	21.123
2176.5	20.6784
2177	20.5975
2177.5	21.0558
2178	21.8765
2178.5	22.6614
2179	23.0565
2179.5	23.0192
2180	22.7517
2180.5	22.4915
2181	22.2983
2181.5	22.0878
2182	21.8126
2182.5	21.6157
2183	21.709
2183.5	22.1305
2184	22.647
2184.5	22.9042
2185	22.7121
2185.5	22.1068
2186	21.2463
2186.5	20.3885
2187	19.7591
2187.5	19.6108
2188	19.9686
2188.5	20.6713
2189	21.2568
2189.5	21.4205
2190	21.0961
2190.5	20.6279
2191	20.2383
2191.5	19.9131
2192	19.5058
2192.5	19.0803
2193	19.0554
2193.5	19.7312
2194	21.0757
2194.5	22.4037
2195	23.145
2195.5	23.0578
2196	22.6832
2196.5	22.5285
2197	22.8134
2197.5	23.2342
2198	23.3867
2198.5	23.0859
2199	22.4807
2199.5	21.8494
2200	21.4448
2200.5	21.3742
2201	21.6509
2201.5	22.0913
2202	22.4896
2202.5	22.6639
2203	22.6476
2203.5	22.5927
2204	22.6131
2204.5	22.6057
2205	22.2787
2205.5	21.5944
2206	20.8183
2206.5	20.5568
2207	21.1082
2207.5	22.377
2208	23.6461
2208.5	24.2784
2209	23.9017
2209.5	22.9583
2210	22.0295
2210.5	21.6375
2211	21.6737
2211.5	21.7514
2212	21.4361
2212.5	20.7739
2213	20.166
2213.5	20.0464
2214	20.3719
2214.5	20.6447
2215	20.371
2215.5	19.5777
2216	18.9679
2216.5	19.2234
2217	20.5225
2217.5	22.117
2218	23.1598
2218.5	23.1923
2219	22.7291
2219.5	22.3489
2220	22.2203
2220.5	21.8416
2221	20.7689
2221.5	19.2389
2222	18.1137
2222.5	18.1985
2223	19.3384
2223.5	20.7437
2224	21.5852
2224.5	21.8639
2225	22.0143
2225.5	22.4352
2226	22.9188
2226.5	23.0106
2227	22.5054
2227.5	21.7145
2228	21.0687
2228.5	20.7133
2229	20.5226
2229.5	20.441
2230	20.6392
2230.5	21.302
2231	22.2441
2231.5	22.9426
2232	22.9641
2232.5	22.457
2233	21.8915
2233.5	21.6259
2234	21.4589
2234.5	21.0392
2235	20.2718
2235.5	19.6207
2236	19.6253
2236.5	20.4372
2237	21.6075
2237.5	22.5193
2238	22.8008
2238.5	22.4889
2239	21.7495
2239.5	20.8302
2240	19.8483
2240.5	19.0048
2241	18.5227
2241.5	18.5924
2242	19.056
2242.5	19.4924
2243	19.3472
2243.5	18.474
2244	17.1418
2244.5	16.063
2245	15.8396
2245.5	16.7329
2246	18.3908
2246.5	20.134
2247	21.3813
2247.5	21.9784
2248	22.0935
2248.5	21.8869
2249	21.4223
2249.5	20.6124
2250	19.5123
2250.5	18.5229
2251	18.1871
2251.5	18.8037
2252	20.1005
2252.5	21.4492
2253	22.1537
2253.5	21.9865
2254	21.1798
2254.5	20.4456
2255	20.3582
2255.5	21.195
2256	22.6557
2256.5	24.2132
2257	25.1885
2257.5	25.2377
2258	24.2236
2258.5	22.6897
2259	21.1839
2259.5	20.2873
2260	20.1154
2260.5	20.5695
2261	21.2645
2261.5	21.8607
2262	22.1187
2262.5	22.059
2263	21.8302
2263.5	21.6338
2264	21.5214
2264.5	21.3523
2265	20.868
2265.5	20.0574
2266	19.1569
2266.5	18.5857
2267	18.4965
2267.5	18.7689
2268	19.0192
2268.5	19.083
2269	19.0435
2269.5	19.0739
2270	19.1792
2270.5	19.1791
2271	18.9866
2271.5	18.7113
2272	18.6222
2272.5	18.8412
2273	19.3505
2273.5	20.0052
2274	20.8078
2274.5	21.8293
2275	22.976
2275.5	23.9389
2276	24.2662
2276.5	23.7649
2277	22.4756
2277.5	21.0459
2278	20.1063
2278.5	20.2259
2279	21.1574
2279.5	22.2493
2280	22.5308
2280.5	21.7287
2281	20.2647
2281.5	19.2582
2282	19.2831
2282.5	20.139
2283	20.6951
2283.5	20.2389
2284	18.9666
2284.5	17.985
2285	18.3178
2285.5	20.0413
2286	22.3037
2286.5	23.9756
2287	24.5205
2287.5	24.1216
2288	23.4302
2288.5	23.0865
2289	23.2931
2289.5	23.7825
2290	24.0818
2290.5	23.7661
2291	22.8123
2291.5	21.5346
2292	20.4869
2292.5	20.1053
2293	20.5584
2293.5	21.6595
2294	22.8333
2294.5	23.4951
2295	23.2831
2295.5	22.3898
2296	21.3486
2296.5	20.8238
2297	21.0489
2297.5	21.8624
2298	22.7398
2298.5	23.3959
2299	23.8185
2299.5	24.1278
2300	24.2857
2300.5	24.1462
2301	23.6763
2301.5	22.9993
2302	22.3722
2302.5	21.9039
2303	21.6003
2303.5	21.4474
2304	21.5226
2304.5	21.8114
2305	22.0832
2305.5	21.979
2306	21.42
2306.5	20.6675
2307	20.1772
2307.5	20.062
2308	20.1337
2308.5	20.1245
2309	20.1148
2309.5	20.3816
2310	20.9456
2310.5	21.4393
2311	21.3628
2311.5	20.8295
2312	20.3778
2312.5	20.6978
2313	21.6996
2313.5	22.7986
2314	23.148
2314.5	22.514
2315	21.1235
2315.5	19.7771
2316	19.116
2316.5	19.7083
2317	21.2508
2317.5	23.1368
2318	24.3577
2318.5	24.4492
2319	23.4125
2319.5	21.8763
2320	20.3619
2320.5	19.1455
2321	18.2538
2321.5	17.7298
2322	17.6198
2322.5	17.7443
2323	18.0052
2323.5	18.6169
2324	19.8999
2324.5	21.8606
2325	23.6245
2325.5	24.5947
2326	25.7355
2326.5	29.7591
2327	38.6558
2327.5	51.2185
2328	62.1519
2328.5	65.7098
2329	59.9344
2329.5	48.387
2330	36.6081
2330.5	28.7918
2331	25.1892
2331.5	23.9329
2332	22.9065
2332.5	21.7784
2333	21.0888
2333.5	20.9929
2334	21.173
2334.5	21.2037
2335	21.0741
2335.5	20.8978
2336	20.66
2336.5	20.2838
2337	19.8365
2337.5	19.4925
2338	19.2939
2338.5	19.0659
2339	18.6907
2339.5	18.2341
2340	17.8802
2340.5	17.6727
2341	17.5789
2341.5	17.6511
2342	18.0847
2342.5	18.9142
2343	19.8
2343.5	20.342
2344	20.5162
2344.5	20.6803
2345	21.2265
2345.5	21.9936
2346	22.5255
2346.5	22.3424
2347	21.585
2347.5	20.6466
2348	20.0633
2348.5	20.0972
2349	20.9284
2349.5	22.3508
2350	23.9292
2350.5	24.9211
2351	24.9036
2351.5	23.8686
2352	22.4201
2352.5	21.2921
2353	20.8885
2353.5	20.9848
2354	21.0891
2354.5	20.7521
2355	20.0045
2355.5	19.151
2356	18.6617
2356.5	18.7134
2357	19.2152
2357.5	19.7968
2358	20.1398
2358.5	20.0531
2359	19.6531
2359.5	19.2006
2360	19.0983
2360.5	19.5415
2361	20.4854
2361.5	21.4942
2362	22.0581
2362.5	21.8981
2363	21.3079
2363.5	20.8247
2364	20.8576
2364.5	21.2331
2365	21.5832
2365.5	21.5713
2366	21.305
2366.5	21.1024
2367	21.4097
2367.5	22.4219
2368	24.2208
2368.5	26.5178
2369	28.9608
2369.5	31.1894
2370	33.0011
2370.5	34.1846
2371	34.2763
2371.5	33.009
2372	30.2911
2372.5	26.9013
2373	23.8865
2373.5	22.0884
2374	21.2555
2374.5	20.7028
2375	19.8242
2375.5	18.7959
2376	18.1373
2376.5	18.2315
2377	18.7969
2377.5	19.4531
2378	20.068
2378.5	20.7912
2379	21.7047
2379.5	22.4832
2380	22.7416
2380.5	22.3533
2381	21.8212
2381.5	21.7255
2382	22.2752
2382.5	23.0049
2383	23.0879
2383.5	22.1352
2384	20.4289
2384.5	18.7942
2385	17.9957
2385.5	18.3063
2386	19.3643
2386.5	20.4558
2387	21.0632
2387.5	21.1452
2388	21.0099
2388.5	20.9916
2389	21.1262
2389.5	21.221
2390	21.1122
2390.5	21.003
2391	21.2941
2391.5	22.2633
2392	23.6249
2392.5	24.7165
2393	24.9233
2393.5	24.2008
2394	22.9081
2394.5	21.6132
2395	20.4334
2395.5	19.1642
2396	17.7659
2396.5	16.5791
2397	16.175
2397.5	16.7237
2398	18.0045
2398.5	19.2687
2399	20.0143
2399.5	19.9836
2400	19.4353
2400.5	18.6521
2401	18.0487
2401.5	17.9538
2402	18.663
2402.5	19.9967
2403	21.4358
2403.5	22.2005
2404	22.0772
2404.5	21.4096
2405	21.0786
2405.5	21.5385
2406	22.549
2406.5	23.119
2407	22.7437
2407.5	21.6266
2408	20.65
2408.5	20.1751
2409	19.8199
2409.5	18.9627
2410	17.6304
2410.5	16.7831
2411	17.1532
2411.5	18.6383
2412	19.856
2412.5	19.8923
2413	18.8185
2413.5	17.8988
2414	17.8896
2414.5	18.6269
2415	19.2155
2415.5	19.1683
2416	18.8408
2416.5	18.8339
2417	19.3711
2417.5	19.9276
2418	20.067
2418.5	19.7928
2419	19.6172
2419.5	19.8545
2420	20.3515
2420.5	20.6271
2421	20.2894
2421.5	19.4264
2422	18.4218
2422.5	17.6953
2423	17.3137
2423.5	17.1424
2424	17.0896
2424.5	17.2447
2425	17.7432
2425.5	18.3651
2426	18.5729
2426.5	17.8433
2427	16.5858
2427.5	15.8287
2428	16.9054
2428.5	19.3693
2429	21.9459
2429.5	22.9105
2430	22.0531
2430.5	20.2281
2431	18.9755
2431.5	18.7967
2432	19.2237
2432.5	19.2378
2433	18.5681
2433.5	17.8703
2434	17.9408
2434.5	19.0108
2435	20.4085
2435.5	21.215
2436	20.772
2436.5	19.4312
2437	18.0306
2437.5	17.5972
2438	18.1998
2438.5	19.2094
2439	19.5884
2439.5	19.0264
2440	17.9188
2440.5	17.2593
2441	17.5191
2441.5	18.5262
2442	19.3876
2442.5	19.5507
2443	19.0303
2443.5	18.5279
2444	18.5325
2444.5	19.0716
2445	19.7162
2445.5	20.0466
2446	20.028
2446.5	19.9656
2447	20.2717
2447.5	20.9344
2448	21.597
2448.5	21.7372
2449	21.2739
2449.5	20.4056
2450	19.5289
2450.5	18.7934
2451	18.143
2451.5	17.5146
2452	17.0494
2452.5	17.0768
2453	17.5673
2453.5	18.284
2454	18.8307
2454.5	19.0714
2455	19.083
2455.5	19.0694
2456	19.0911
2456.5	19.0972
2457	19.0888
2457.5	19.2022
2458	19.6493
2458.5	20.3912
2459	21.176
2459.5	21.5331
2460	21.2318
2460.5	20.3362
2461	19.4818
2461.5	19.2832
2462	20.1268
2462.5	21.4895
2463	22.7089
2463.5	23.1182
2464	22.6705
2464.5	21.5509
2465	20.1791
2465.5	18.8575
2466	17.931
2466.5	17.6199
2467	17.9433
2467.5	18.5627
2468	18.9171
2468.5	18.7199
2469	18.2448
2469.5	18.0032
2470	18.256
2470.5	18.5884
2471	18.547
2471.5	18.1468
2472	18.0987
2472.5	18.9326
2473	20.4104
2473.5	21.4887
2474	21.1968
2474.5	19.5873
2475	17.676
2475.5	16.7045
2476	16.9867
2476.5	18.1395
2477	19.4203
2477.5	20.3007
2478	20.6396
2478.5	20.6332
2479	20.6031
2479.5	20.7714
2480	21.0309
2480.5	21.0724
2481	20.5115
2481.5	19.472
2482	18.306
2482.5	17.4505
2483	16.9381
2483.5	16.6095
2484	16.3896
2484.5	16.4741
2485	17.1534
2485.5	18.2959
2486	19.5644
2486.5	20.5517
2487	21.1006
2487.5	21.0606
2488	20.2608
2488.5	18.8339
2489	17.232
2489.5	16.2807
2490	16.3807
2490.5	17.4252
2491	18.5317
2491.5	19.0744
2492	18.8511
2492.5	18.2861
2493	17.7554
2493.5	17.5542
2494	17.7697
2494.5	18.4105
2495	19.1818
2495.5	19.7191
2496	19.6154
2496.5	18.9742
2497	18.0154
2497.5	17.0703
2498	16.3659
2498.5	16.0867
2499	16.2365
2499.5	16.6008
2500	16.7869
2500.5	16.6585
2501	16.4703
2501.5	16.7514
2502	17.6091
2502.5	18.7681
2503	19.7417
2503.5	20.4438
2504	21.0448
2504.5	21.4927
2505	21.3513
2505.5	20.0821
2506	18.2115
2506.5	16.6944
2507	16.4686
2507.5	17.1801
2508	17.7426
2508.5	17.2165
2509	15.834
2509.5	14.5104
2510	14.0395
2510.5	14.4717
2511	15.3706
2511.5	16.2725
2512	17.114
2512.5	17.9954
2513	18.8787
2513.5	19.5848
2514	19.9871
2514.5	20.095
2515	19.9094
2515.5	19.4639
2516	18.8054
2516.5	18.1481
2517	17.7246
2517.5	17.6031
2518	17.5379
2518.5	17.3054
2519	16.9856
2519.5	17.0524
2520	17.7518
2520.5	18.8083
2521	19.497
2521.5	19.3992
2522	18.8194
2522.5	18.4679
2523	18.7554
2523.5	19.1909
2524	19.1722
2524.5	18.5258
2525	17.9438
2525.5	18.0198
2526	18.7743
2526.5	19.4646
2527	19.4668
2527.5	18.9576
2528	18.5552
2528.5	18.6991
2529	19.0732
2529.5	19.1133
2530	18.3368
2530.5	17.0213
2531	15.6566
2531.5	14.737
2532	14.4186
2532.5	14.7782
2533	15.6177
2533.5	16.5788
2534	17.1365
2534.5	17.1501
2535	16.9463
2535.5	17.2151
2536	18.2065
2536.5	19.6371
2537	20.7141
2537.5	21.0111
2538	20.6104
2538.5	20.0883
2539	19.6903
2539.5	19.3449
2540	18.8916
2540.5	18.3523
2541	17.8857
2541.5	17.5391
2542	17.2735
2542.5	17.1178
2543	17.1676
2543.5	17.4719
2544	17.8663
2544.5	18.282
2545	18.9392
2545.5	20.0025
2546	21.2713
2546.5	21.9881
2547	21.6297
2547.5	20.1134
2548	18.2145
2548.5	16.6297
2549	15.8081
2549.5	15.6845
2550	16.2362
2550.5	17.2901
2551	18.3822
2551.5	19.041
2552	19.2448
2552.5	19.4556
2553	20.0687
2553.5	20.7942
2554	21.0654
2554.5	20.4632
2555	19.4292
2555.5	18.5532
2556	18.1359
2556.5	18.0136
2557	18.0571
2557.5	18.2564
2558	18.535
2558.5	18.4636
2559	17.6963
2559.5	16.3383
2560	15.0956
2560.5	14.649
2561	15.2999
2561.5	16.6256
2562	17.918
2562.5	18.5351
2563	18.3899
2563.5	17.7311
2564	16.9666
2564.5	16.3072
2565	15.6286
2565.5	14.7268
2566	13.8273
2566.5	13.4896
2567	14.0362
2567.5	15.1576
2568	16.1587
2568.5	16.6353
2569	16.8014
2569.5	17.1014
2570	17.573
2570.5	17.9987
2571	18.3049
2571.5	18.7372
2572	19.5176
2572.5	20.2772
2573	20.5591
2573.5	20.1686
2574	19.6059
2574.5	19.2742
2575	19.1239
2575.5	18.7422
2576	17.9852
2576.5	17.2667
2577	16.98
2577.5	17.1985
2578	17.4853
2578.5	17.5934
2579	17.6837
2579.5	18.017
2580	18.579
2580.5	18.9996
2581	19.0362
2581.5	18.7558
2582	18.593
2582.5	18.7514
2583	19.1253
2583.5	19.3344
2584	19.1342
2584.5	18.5309
2585	17.8253
2585.5	17.3003
2586	17.093
2586.5	17.1859
2587	17.5858
2587.5	18.2354
2588	19.0128
2588.5	19.5232
2589	19.3934
2589.5	18.448
2590	17.0602
2590.5	15.9031
2591	15.5888
2591.5	16.0264
2592	16.798
2592.5	17.5179
2593	18.1031
2593.5	18.6132
2594	19.0174
2594.5	19.2054
2595	19.1498
2595.5	19.0445
2596	19.0469
2596.5	19.0793
2597	18.7884
2597.5	17.9574
2598	16.749
2598.5	15.7295
2599	15.3798
2599.5	15.8341
2600	16.6847
2600.5	17.3771
2601	17.5779
2601.5	17.3748
2602	17.0318
2602.5	16.7695
2603	16.5967
2603.5	16.4917
2604	16.5548
2604.5	16.9137
2605	17.4
2605.5	17.6359
2606	17.3658
2606.5	17.09
2607	17.4681
2607.5	18.7283
2608	19.9432
2608.5	20.1305
2609	19.1431
2609.5	18.223
2610	18.5837
2610.5	19.8737
2611	20.6635
2611.5	19.5013
2612	17.1182
2612.5	15.3117
2613	15.7159
2613.5	17.6704
2614	19.6963
2614.5	20.4084
2615	19.9562
2615.5	19.3277
2616	19.3107
2616.5	19.7574
2617	19.966
2617.5	19.4687
2618	18.3242
2618.5	17.2464
2619	16.8557
2619.5	17.3403
2620	18.0764
2620.5	18.3313
2621	17.7431
2621.5	17.1308
2622	17.2979
2622.5	18.4329
2623	19.5489
2623.5	19.6142
2624	18.3899
2624.5	16.8167
2625	15.8193
2625.5	15.6096
2626	15.86
2626.5	16.2468
2627	16.6874
2627.5	17.1655
2628	17.501
2628.5	17.5871
2629	17.521
2629.5	17.5628
2630	17.7052
2630.5	17.6825
2631	17.3935
2631.5	17.0831
2632	17.2356
2632.5	17.8873
2633	18.6369
2633.5	18.9195
2634	18.632
2634.5	17.9657
2635	17.2858
2635.5	16.7205
2636	16.2808
2636.5	16.0031
2637	15.9747
2637.5	16.1469
2638	16.2389
2638.5	16.0683
2639	15.8731
2639.5	16.0466
2640	16.761
2640.5	17.448
2641	17.4468
2641.5	16.632
2642	15.8207
2642.5	15.7081
2643	16.2443
2643.5	16.5637
2644	16.0202
2644.5	15.081
2645	14.6087
2645.5	15.2628
2646	16.5687
2646.5	17.8194
2647	18.4578
2647.5	18.4772
2648	17.8816
2648.5	16.8129
2649	15.6864
2649.5	15.1581
2650	15.485
2650.5	16.4056
2651	17.4221
2651.5	18.2915
2652	19.0565
2652.5	19.5359
2653	19.2925
2653.5	17.9935
2654	16.2383
2654.5	15.0517
2655	15.1778
2655.5	16.0654
2656	16.9636
2656.5	17.368
2657	17.5292
2657.5	17.8067
2658	18.2846
2658.5	18.8205
2659	19.3068
2659.5	19.6156
2660	19.4727
2660.5	18.4857
2661	16.9101
2661.5	15.3228
2662	14.4862
2662.5	14.4712
2663	14.8966
2663.5	15.3498
2664	15.8325
2664.5	16.5142
2665	17.2511
2665.5	17.6798
2666	17.5473
2666.5	17.193
2667	17.0868
2667.5	17.4731
2668	17.9707
2668.5	18.0187
2669	17.4872
2669.5	16.7563
2670	16.4675
2670.5	16.7344
2671	17.2262
2671.5	17.6391
2672	18.2156
2672.5	19.4672
2673	21.2328
2673.5	22.4437
2674	21.8499
2674.5	19.7649
2675	17.5136
2675.5	16.833
2676	17.4171
2676.5	18.1404
2677	17.9375
2677.5	17.1177
2678	16.6459
2678.5	16.9396
2679	17.4909
2679.5	17.5289
2680	16.9426
2680.5	16.1038
2681	15.6349
2681.5	15.8091
2682	16.6812
2682.5	17.8101
2683	18.461
2683.5	17.995
2684	16.8051
2684.5	15.7167
2685	15.5248
2685.5	15.9245
2686	16.2349
2686.5	16.1676
2687	16.1486
2687.5	16.6011
2688	17.2479
2688.5	17.4795
2689	16.9789
2689.5	16.214
2690	15.6244
2690.5	15.3528
2691	15.1469
2691.5	14.8981
2692	14.6722
2692.5	14.5223
2693	14.5027
2693.5	14.8038
2694	15.621
2694.5	16.8468
2695	17.7167
2695.5	17.5274
2696	16.4918
2696.5	15.7017
2697	16.0341
2697.5	17.1858
2698	18.0779
2698.5	17.9082
2699	17.2542
2699.5	16.9238
2700	17.2407
2700.5	17.4565
2701	16.9174
2701.5	15.8613
2702	15.1417
2702.5	15.5059
2703	16.7841
2703.5	18.3755
2704	19.6901
2704.5	20.325
2705	19.8638
2705.5	18.1907
2706	16.1811
2706.5	15.0389
2707	15.5707
2707.5	17.2739
2708	18.7518
2708.5	19.0371
2709	18.272
2709.5	17.2989
2710	16.8418
2710.5	16.9594
2711	17.3066
2711.5	17.5668
2712	17.4971
2712.5	17.0414
2713	16.5075
2713.5	16.6194
2714	17.7599
2714.5	19.6281
2715	20.9056
2715.5	20.7281
2716	19.0181
2716.5	17.2724
2717	16.1441
2717.5	15.5831
2718	15.304
2718.5	15.5502
2719	16.6253
2719.5	17.9768
2720	18.612
2720.5	17.9399
2721	16.4859
2721.5	15.3596
2722	15.1977
2722.5	15.7312
2723	16.3206
2723.5	16.6135
2724	16.8789
2724.5	17.6218
2725	18.8973
2725.5	20.4072
2726	21.3255
2726.5	21.1609
2727	20.0914
2727.5	18.8212
2728	18.1604
2728.5	18.3632
2729	19.2392
2729.5	20.4184
2730	21.5159
2730.5	22.2223
2731	22.3906
2731.5	22.0513
2732	21.4079
2732.5	20.716
2733	20.0772
2733.5	19.4849
2734	19.0268
2734.5	19.0035
2735	19.6313
2735.5	20.6631
2736	21.4715
2736.5	21.4425
2737	20.507
2737.5	19.2901
2738	18.3253
2738.5	17.7158
2739	17.2078
2739.5	16.6966
2740	16.4509
2740.5	16.7152
2741	17.3544
2741.5	17.9206
2742	18.2952
2742.5	18.8088
2743	19.733
2743.5	20.7386
2744	21.0124
2744.5	20.2823
2745	19.1195
2745.5	18.4723
2746	18.8158
2746.5	19.6066
2747	20.1402
2747.5	20.1407
2748	19.8031
2748.5	19.3867
2749	18.8869
2749.5	18.2431
2750	17.5615
2750.5	17.0877
2751	16.9258
2751.5	17.0394
2752	17.4329
2752.5	18.1945
2753	19.2997
2753.5	20.4149
2754	21.1661
2754.5	21.4181
2755	21.3769
2755.5	21.3804
2756	21.4997
2756.5	21.5495
2757	21.3434
2757.5	20.9947
2758	20.9786
2758.5	21.6851
2759	23.0199
2759.5	24.2638
2760	24.3762
2760.5	23.0684
2761	20.9676
2761.5	19.1575
2762	18.3915
2762.5	18.4209
2763	18.4541
2763.5	18.0904
2764	17.546
2764.5	17.3409
2765	17.6276
2765.5	18.1101
2766	18.4799
2766.5	18.6884
2767	18.922
2767.5	19.3079
2768	19.7857
2768.5	20.2082
2769	20.4301
2769.5	20.3359
2770	19.9229
2770.5	19.286
2771	18.589
2771.5	17.957
2772	17.411
2772.5	17.0093
2773	17.0005
2773.5	17.7057
2774	19.1999
2774.5	20.915
2775	22.0179
2775.5	21.998
2776	20.9729
2776.5	19.6066
2777	18.6272
2777.5	18.3196
2778	18.6168
2778.5	19.2535
2779	19.8099
2779.5	19.824
2780	19.1055
2780.5	17.9711
2781	17.159
2781.5	17.2903
2782	18.0177
2782.5	18.4643
2783	18.094
2783.5	17.2764
2784	16.9993
2784.5	17.5862
2785	18.3828
2785.5	18.5669
2786	18.0745
2786.5	17.7939
2787	18.4047
2787.5	19.5288
2788	20.1556
2788.5	19.6167
2789	18.3451
2789.5	17.5023
2790	17.8005
2790.5	19.1099
2791	20.6252
2791.5	21.3808
2792	21.0131
2792.5	19.8409
2793	18.5955
2793.5	17.937
2794	17.9566
2794.5	18.1114
2795	17.9669
2795.5	17.5829
2796	17.3914
2796.5	17.636
2797	17.9245
2797.5	17.7438
2798	17.043
2798.5	16.4028
2799	16.6281
2799.5	17.8012
2800	19.2202
2800.5	19.9191
2801	19.3484
2801.5	17.8276
2802	16.4431
2802.5	16.0218
2803	16.6325
2803.5	17.582
2804	17.9008
2804.5	17.2644
2805	16.2023
2805.5	15.5701
2806	15.9173
2806.5	17.0938
2807	18.3231
2807.5	19.0418
2808	19.2723
2808.5	19.4477
2809	19.8877
2809.5	20.3585
2810	20.437
2810.5	20.1038
2811	19.7797
2811.5	19.8186
2812	19.914
2812.5	19.4244
2813	18.2406
2813.5	16.9825
2814	16.4482
2814.5	16.8552
2815	17.6584
2815.5	18.4237
2816	19.0856
2816.5	19.6696
2817	19.9686
2817.5	19.8764
2818	19.8268
2818.5	20.4838
2819	22.0019
2819.5	23.6212
2820	24.2278
2820.5	23.5225
2821	22.0443
2821.5	20.6047
2822	19.7838
2822.5	19.8173
2823	20.5473
2823.5	21.4746
2824	21.8824
2824.5	21.3506
2825	20.2773
2825.5	19.6616
2826	19.9739
2826.5	20.8101
2827	21.3989
2827.5	21.3503
2828	20.9083
2828.5	20.4385
2829	20.0791
2829.5	19.9361
2830	20.1763
2830.5	20.7132
2831	20.9256
2831.5	20.2704
2832	18.9594
2832.5	17.932
2833	18.0524
2833.5	19.1424
2834	20.3018
2834.5	20.9902
2835	21.3347
2835.5	21.6773
2836	21.9378
2836.5	21.7136
2837	20.995
2837.5	20.3561
2838	20.4804
2838.5	21.4827
2839	22.5979
2839.5	22.9271
2840	22.2571
2840.5	21.2315
2841	20.8596
2841.5	21.655
2842	22.8871
2842.5	23.4076
2843	22.6718
2843.5	21.177
2844	19.9571
2844.5	19.5316
2845	19.4503
2845.5	19.229
2846	18.9566
2846.5	19.1056
2847	19.8441
2847.5	20.677
2848	21.1775
2848.5	21.4854
2849	22.0235
2849.5	22.8601
2850	23.4209
2850.5	23.1347
2851	22.0694
2851.5	20.8708
2852	20.3233
2852.5	20.914
2853	22.4614
2853.5	23.9803
2854	24.2478
2854.5	22.6266
2855	19.793
2855.5	17.5986
2856	17.5793
2856.5	19.4199
2857	21.5776
2857.5	22.6814
2858	22.5022
2858.5	21.6872
2859	20.7876
2859.5	19.8761
2860	19.1018
2860.5	18.9335
2861	19.756
2861.5	21.3379
2862	22.8482
2862.5	23.5146
2863	22.778
2863.5	20.302
2864	16.3082
2864.5	12.1952
2865	10.1238
2865.5	11.2615
2866	14.7922
2866.5	18.5087
2867	20.6011
2867.5	21.042
2868	21.1803
2868.5	21.8367
2869	22.8219
2869.5	23.5105
2870	23.5334
2870.5	22.8478
2871	21.5202
2871.5	19.7181
2872	17.9752
2872.5	17.0239
2873	17.2491
2873.5	18.3009
2874	19.3398
2874.5	19.8608
2875	19.9129
2875.5	19.9577
2876	20.4961
2876.5	21.6365
2877	22.7828
2877.5	23.1898
2878	22.6929
2878.5	22.0383
2879	22.2939
2879.5	23.7177
2880	25.121
2880.5	25.2155
2881	23.7776
2881.5	21.7716
2882	20.4307
2882.5	20.3949
2883	21.4235
2883.5	22.9636
2884	24.372
2884.5	24.9953
2885	24.4973
2885.5	23.2425
2886	22.175
2886.5	21.8317
2887	21.9405
2887.5	21.8893
2888	21.4565
2888.5	21.0018
2889	20.9133
2889.5	21.035
2890	21.0064
2890.5	20.7957
2891	20.7544
2891.5	21.1257
2892	21.5315
2892.5	21.2259
2893	19.978
2893.5	18.4846
2894	17.9572
2894.5	19.1072
2895	21.3004
2895.5	22.7393
2896	22.1562
2896.5	19.8857
2897	17.5761
2897.5	16.8217
2898	17.8788
2898.5	19.5246
2899	20.3671
2899.5	20.0384
2900	19.0469
2900.5	18.0861
2901	17.521
2901.5	17.4049
2902	17.6907
2902.5	18.3389
2903	19.2596
2903.5	20.2869
2904	21.1481
2904.5	21.3356
2905	20.0519
2905.5	16.8732
2906	12.2928
2906.5	7.7628
2907	4.8135
2907.5	3.90998
2908	4.15054
2908.5	4.36174
2909	4.73434
2909.5	6.62648
2910	10.9536
2910.5	16.798
2911	21.716
2911.5	23.6257
2912	23.0177
2912.5	22.0054
2913	22.1974
2913.5	23.4527
2914	24.4003
2914.5	23.9732
2915	22.4302
2915.5	20.9461
2916	20.311
2916.5	20.5495
2917	21.1299
2917.5	21.4193
2918	21.1045
2918.5	20.5055
2919	20.3607
2919.5	21.0848
2920	22.268
2920.5	22.9522
2921	22.56
2921.5	21.5187
2922	20.7424
2922.5	20.3651
2923	19.7231
2923.5	18.3988
2924	16.972
2924.5	16.4983
2925	17.2511
2925.5	18.2189
2926	18.475
2926.5	18.2658
2927	18.5147
2927.5	19.512
2928	20.404
2928.5	20.1643
2929	19.088
2929.5	18.4999
2930	19.1341
2930.5	20.3673
2931	20.9857
2931.5	20.5648
2932	19.9256
2932.5	20.1529
2933	21.3414
2933.5	22.7865
2934	23.7894
2934.5	24.0897
2935	23.6938
2935.5	22.6448
2936	21.2038
2936.5	19.9825
2937	19.4784
2937.5	19.6203
2938	19.8867
2938.5	19.9211
2939	19.895
2939.5	20.1616
2940	20.6695
2940.5	21.1424
2941	21.5693
2941.5	22.1917
2942	22.9854
2942.5	23.4162
2943	22.9618
2943.5	21.9239
2944	21.1095
2944.5	20.9296
2945	21.1344
2945.5	21.3648
2946	21.6653
2946.5	22.188
2947	22.5026
2947.5	21.8589
2948	20.1874
2948.5	18.3616
2949	17.3467
2949.5	17.251
2950	17.4338
2950.5	17.5063
2951	17.8834
2951.5	18.9947
2952	20.5389
2952.5	21.7201
2953	22.0292
2953.5	21.5986
2954	20.8605
2954.5	20.1226
2955	19.5855
2955.5	19.4729
2956	19.859
2956.5	20.5072
2957	21.0695
2957.5	21.4182
2958	21.6096
2958.5	21.4866
2959	20.6594
2959.5	19.0564
2960	17.3125
2960.5	16.4216
2961	16.924
2961.5	18.4195
2962	19.8346
2962.5	20.2823
2963	19.7206
2963.5	18.8357
2964	18.5008
2964.5	19.1162
2965	20.3011
2965.5	21.2408
2966	21.4485
2966.5	21.2785
2967	21.3264
2967.5	21.6435
2968	21.672
2968.5	20.9661
2969	19.8948
2969.5	19.5036
2970	20.6147
2970.5	22.8192
2971	24.7873
2971.5	25.2969
2972	24.1296
2972.5	22.2144
2973	20.8837
2973.5	20.7948
2974	21.4082
2974.5	21.5833
2975	20.8786
2975.5	19.864
2976	19.3663
2976.5	19.584
2977	20.0366
2977.5	20.2875
2978	20.4858
2978.5	21.049
2979	21.9185
2979.5	22.5481
2980	22.4624
2980.5	21.688
2981	20.6937
2981.5	20.0519
2982	20.1521
2982.5	21.0335
2983	22.2707
2983.5	23.299
2984	23.8158
2984.5	23.9188
2985	23.7816
2985.5	23.2986
2986	22.2598
2986.5	20.9181
2987	20.1125
2987.5	20.3597
2988	21.1772
2988.5	21.4846
2989	20.7002
2989.5	19.3706
2990	18.7004
2990.5	19.4737
2991	21.4296
2991.5	23.4679
2992	24.6481
2992.5	24.7677
2993	24.3417
2993.5	24.0175
2994	23.9121
2994.5	23.5474
2995	22.526
2995.5	21.2242
2996	20.5045
2996.5	20.6734
2997	21.2403
2997.5	21.6271
2998	21.8213
2998.5	22.1054
2999	22.394
2999.5	22.3747
3000	22.5119
3000.5	24.1852
3001	28.0868
3001.5	32.8961
3002	36.0079
3002.5	35.7716
3003	32.8646
3003.5	29.4053
3004	26.9658
3004.5	25.6783
3005	24.9579
3005.5	24.5372
3006	24.3421
3006.5	24.1234
3007	23.691
3007.5	23.3546
3008	23.6894
3008.5	24.6994
3009	25.4733
3009.5	25.0881
3010	23.8299
3010.5	23.0455
3011	23.983
3011.5	26.759
3012	30.3107
3012.5	33.1741
3013	34.367
3013.5	33.8175
3014	32.2035
3014.5	30.3407
3015	28.4847
3015.5	26.3978
3016	23.9914
3016.5	21.8914
3017	21.18
3017.5	22.3899
3018	24.7323
3018.5	26.4645
3019	26.2775
3019.5	24.4949
3020	22.5124
3020.5	21.5262
3021	21.6689
3021.5	22.2647
3022	22.7447
3022.5	23.1853
3023	23.9571
3023.5	24.9949
3024	25.6022
3024.5	25.1821
3025	23.8855
3025.5	22.5206
3026	21.924
3026.5	22.3999
3027	23.5899
3027.5	24.6962
3028	24.9059
3028.5	23.9557
3029	22.5751
3029.5	22.0528
3030	23.0601
3030.5	25.0063
3031	26.583
3031.5	26.9615
3032	26.3483
3032.5	25.4488
3033	24.7182
3033.5	24.3393
3034	24.6564
3034.5	25.9904
3035	28.1056
3035.5	30.3181
3036	32.2509
3036.5	34.0754
3037	35.7366
3037.5	36.3162
3038	34.7875
3038.5	31.4769
3039	28.2217
3039.5	26.6263
3040	26.4282
3040.5	26.4627
3041	26.4046
3041.5	26.9114
3042	28.1551
3042.5	29.0254
3043	28.3108
3043.5	26.3101
3044	24.6022
3044.5	24.1885
3045	24.4662
3045.5	24.49
3046	24.5105
3046.5	25.4519
3047	27.3442
3047.5	28.9231
3048	28.974
3048.5	27.7202
3049	26.599
3049.5	26.805
3050	28.2809
3050.5	29.9895
3051	30.8781
3051.5	30.4909
3052	29.0079
3052.5	27.1298
3053	25.7768
3053.5	25.57
3054	26.4312
3054.5	27.6936
3055	28.6334
3055.5	28.9105
3056	28.587
3056.5	27.9126
3057	27.1457
3057.5	26.4861
3058	26.0565
3058.5	25.9309
3059	26.2284
3059.5	27.0904
3060	28.4198
3060.5	29.6376
3061	29.9026
3061.5	28.8173
3062	26.9737
3062.5	25.6455
3063	25.5867
3063.5	26.3944
3064	27.0161
3064.5	26.859
3065	26.3668
3065.5	26.4869
3066	27.6098
3066.5	29.0986
3067	29.8893
3067.5	29.5191
3068	28.5201
3068.5	27.8332
3069	27.8739
3069.5	28.4176
3070	29.1872
3070.5	30.2142
3071	31.4658
3071.5	32.302
3072	31.7335
3072.5	29.526
3073	26.9288
3073.5	25.8864
3074	27.2347
3074.5	29.7701
3075	31.3661
3075.5	31.1958
3076	30.2806
3076.5	30.0249
3077	30.5819
3077.5	30.8134
3078	29.701
3078.5	27.5402
3079	25.7127
3079.5	25.4252
3080	26.7137
3080.5	28.5427
3081	29.7546
3081.5	29.9778
3082	29.7715
3082.5	29.814
3083	30.182
3083.5	30.432
3084	30.2831
3084.5	30.0013
3085	30.0031
3085.5	30.2714
3086	30.4351
3086.5	30.3921
3087	30.5324
3087.5	31.1788
3088	32.0369
3088.5	32.4905
3089	32.4109
3089.5	32.2621
3090	32.4331
3090.5	32.786
3091	32.9154
3091.5	32.6308
3092	32.0533
3092.5	31.4204
3093	30.9966
3093.5	31.053
3094	31.6441
3094.5	32.3609
3095	32.57
3095.5	32.0921
3096	31.5203
3096.5	31.5565
3097	32.1275
3097.5	32.4535
3098	32.0043
3098.5	31.2327
3099	31.1749
3099.5	32.297
3100	33.935
3100.5	34.9665
3101	34.9471
3101.5	34.4025
3102	34.0307
3102.5	33.9295
3103	33.8426
3103.5	33.9095
3104	34.5844
3104.5	35.7239
3105	36.4264
3105.5	36.1101
3106	35.3776
3106.5	35.2922
3107	35.9532
3107.5	36.4198
3108	36.194
3108.5	36.1233
3109	37.2569
3109.5	39.1258
3110	39.9572
3110.5	38.7861
3111	36.7606
3111.5	35.91
3112	36.8929
3112.5	38.5328
3113	39.4777
3113.5	39.4261
3114	38.8174
3114.5	37.9522
3115	36.8508
3115.5	35.7109
3116	34.9791
3116.5	34.8396
3117	34.9055
3117.5	34.6434
3118	34.044
3118.5	33.7078
3119	34.2138
3119.5	35.4561
3120	36.6651
3120.5	37.1333
3121	36.9941
3121.5	37.1191
3122	38.1989
3122.5	39.9282
3123	41.1917
3123.5	41.1529
3124	40.1091
3124.5	39.1654
3125	39.0925
3125.5	39.6444
3126	40.0164
3126.5	39.7867
3127	39.2451
3127.5	38.9148
3128	39.0277
3128.5	39.5351
3129	40.3833
3129.5	41.5264
3130	42.7022
3130.5	43.4106
3131	43.2126
3131.5	41.9951
3132	40.0671
3132.5	38.1476
3133	37.1626
3133.5	37.7119
3134	39.5158
3134.5	41.505
3135	42.6813
3135.5	42.9389
3136	42.9401
3136.5	43.2427
3137	43.7382
3137.5	43.9631
3138	43.7689
3138.5	43.4889
3139	43.452
3139.5	43.5118
3140	43.2435
3140.5	42.6561
3141	42.5178
3141.5	43.5997
3142	45.6125
3142.5	47.182
3143	47.1986
3143.5	46.1064
3144	45.5049
3144.5	46.4008
3145	48.1419
3145.5	49.2077
3146	48.7582
3146.5	47.1788
3147	45.4301
3147.5	44.3499
3148	44.4842
3148.5	45.9614
3149	48.2036
3149.5	50.1012
3150	50.8703
3150.5	50.6492
3151	50.0555
3151.5	49.3872
3152	48.6259
3152.5	48.0522
3153	48.2246
3153.5	49.1938
3154	50.1891
3154.5	50.3849
3155	49.7755
3155.5	49.0261
3156	48.5763
3156.5	48.1887
3157	47.4463
3157.5	46.5043
3158	46.1554
3158.5	47.0497
3159	48.8373
3159.5	50.2316
3160	50.177
3160.5	49.0113
3161	48.2078
3161.5	48.7729
3162	50.1379
3162.5	50.9767
3163	50.9465
3163.5	51.0509
3164	52.1284
3164.5	53.5379
3165	53.8783
3165.5	52.8241
3166	51.694
3166.5	51.9983
3167	53.8257
3167.5	55.8619
3168	56.6972
3168.5	55.9951
3169	54.636
3169.5	53.9654
3170	54.7602
3170.5	56.607
3171	58.2146
3171.5	58.5069
3172	57.5343
3172.5	56.2243
3173	55.3529
3173.5	54.9851
3174	54.9633
3174.5	55.5556
3175	57.1377
3175.5	59.2262
3176	60.3531
3176.5	59.372
3177	56.8096
3177.5	54.5272
3178	53.934
3178.5	54.8024
3179	55.9444
3179.5	56.6627
3180	57.1455
3180.5	57.6639
3181	58.018
3181.5	58.0001
3182	57.9772
3182.5	58.5865
3183	59.9577
3183.5	61.5339
3184	62.6601
3184.5	63.0555
3185	62.7861
3185.5	62.0856
3186	61.2574
3186.5	60.5091
3187	59.7896
3187.5	58.9977
3188	58.4307
3188.5	58.7346
3189	60.1566
3189.5	62.0466
3190	63.4432
3190.5	64.0835
3191	64.4464
3191.5	64.7413
3192	64.3361
3192.5	62.5973
3193	60.0722
3193.5	58.2496
3194	57.9442
3194.5	58.3224
3195	57.9748
3195.5	56.8339
3196	56.4687
3196.5	58.2043
3197	61.3373
3197.5	63.7793
3198	64.4355
3198.5	64.3359
3199	65.1093
3199.5	66.861
3200	68.2215
3200.5	68.2833
3201	67.6237
3201.5	67.1426
3202	66.6768
3202.5	65.5102
3203	63.9029
3203.5	63.2355
3204	64.5066
3204.5	67.288
3205	70.3339
3205.5	72.6254
3206	73.543
3206.5	72.73
3207	70.5502
3207.5	68.3909
3208	67.6786
3208.5	68.4613
3209	69.5615
3209.5	70.1144
3210	70.3162
3210.5	70.5074
3211	70.3394
3211.5	69.4814
3212	68.5762
3212.5	68.6102
3213	69.4707
3213.5	70.0027
3214	69.6899
3214.5	69.48
3215	70.3946
3215.5	71.8842
3216	72.4054
3216.5	71.5348
3217	70.6873
3217.5	71.4062
3218	73.4729
3218.5	75.1932
3219	75.2887
3219.5	74.023
3220	72.5867
3220.5	71.918
3221	72.2262
3221.5	73.1418
3222	73.9164
3222.5	73.7172
3223	72.2278
3223.5	70.0972
3224	68.5887
3224.5	68.6433
3225	70.2784
3225.5	72.7805
3226	75.2598
3226.5	77.0162
3227	77.6814
3227.5	77.3293
3228	76.5024
3228.5	75.9554
3229	76.1663
3229.5	76.9943
3230	77.8709
3230.5	78.4478
3231	79.007
3231.5	79.9791
3232	80.989
3232.5	80.7914
3233	78.6202
3233.5	75.4795
3234	73.5305
3234.5	73.9979
3235	76.0358
3235.5	77.8406
3236	78.4952
3236.5	78.4442
3237	78.5816
3237.5	79.4019
3238	80.8367
3238.5	82.3255
3239	83.0246
3239.5	82.4782
3240	81.2473
3240.5	80.4826
3241	80.708
3241.5	81.3664
3242	81.6779
3242.5	81.4628
3243	80.8279
3243.5	79.5895
3244	77.7006
3244.5	76.0733
3245	76.1158
3245.5	78.1201
3246	80.5547
3246.5	81.4192
3247	80.2069
3247.5	78.198
3248	76.8687
3248.5	76.4569
3249	76.3357
3249.5	76.3942
3250	77.3531
3250.5	79.5377
3251	81.9076
3251.5	82.8891
3252	82.0711
3252.5	80.6429
3253	80.1526
3253.5	81.1694
3254	83.0821
3254.5	84.7139
3255	85.0881
3255.5	84.1541
3256	82.9983
3256.5	82.8557
3257	83.6409
3257.5	83.9629
3258	82.9257
3258.5	81.2305
3259	79.9767
3259.5	79.0911
3260	77.9343
3260.5	77.0367
3261	77.8901
3261.5	80.7914
3262	84.0217
3262.5	85.7431
3263	85.8855
3263.5	85.4995
3264	85.0097
3264.5	84.1233
3265	83.0974
3265.5	82.8967
3266	83.8149
3266.5	84.7809
3267	84.6217
3267.5	83.6359
3268	83.3332
3268.5	84.6231
3269	86.6765
3269.5	87.8082
3270	87.3197
3270.5	86.133
3271	85.4942
3271.5	85.4146
3272	84.9018
3272.5	83.6523
3273	82.7611
3273.5	83.2882
3274	84.6705
3274.5	85.3771
3275	85.0175
3275.5	84.9201
3276	86.3136
3276.5	88.6346
3277	90.2425
3277.5	90.4494
3278	90.1374
3278.5	90.3801
3279	91.099
3279.5	91.4222
3280	91.0046
3280.5	90.4643
3281	90.4131
3281.5	90.4377
3282	89.4497
3282.5	87.0911
3283	84.5121
3283.5	83.4498
3284	84.5499
3284.5	86.8353
3285	89.0322
3285.5	90.8861
3286	92.7918
3286.5	94.3531
3287	94.1371
3287.5	91.3733
3288	87.4738
3288.5	85.0534
3289	85.3012
3289.5	86.9405
3290	88.0828
3290.5	88.4631
3291	89.1541
3291.5	90.4876
3292	91.3461
3292.5	90.7839
3293	89.5025
3293.5	89.0404
3294	89.8708
3294.5	90.9569
3295	91.1122
3295.5	90.2898
3296	89.4641
3296.5	89.587
3297	90.7389
3297.5	92.0638
3298	92.4873
3298.5	91.6753
3299	90.3064
3299.5	89.327
3300	89.1236
3300.5	89.6099
3301	90.7378
3301.5	92.2992
3302	93.4261
3302.5	93.1214
3303	91.5667
3303.5	90.2489
3304	90.3031
3304.5	91.1592
3305	91.3826
3305.5	90.5893
3306	89.8681
3306.5	90.2912
3307	91.6064
3307.5	92.696
3308	92.9794
3308.5	92.9588
3309	93.4101
3309.5	94.3348
3310	94.9405
3310.5	94.6778
3311	94.0629
3311.5	94.121
3312	94.9889
3312.5	95.5702
3313	94.9804
3313.5	93.9319
3314	93.9447
3314.5	95.2264
3315	96.3219
3315.5	96.1836
3316	95.5385
3316.5	95.6126
3317	96.2554
3317.5	96.3586
3318	95.6961
3318.5	95.1138
3319	94.9632
3319.5	94.6342
3320	94.0467
3320.5	94.3721
3321	96.3066
3321.5	98.4455
3322	98.6328
3322.5	96.6944
3323	94.7091
3323.5	94.5424
3324	96.1133
3324.5	98.1972
3325	99.7725
3325.5	100.08
3326	98.6088
3326.5	96.0661
3327	94.5691
3327.5	95.652
3328	98.2983
3328.5	100.027
3329	99.9005
3329.5	99.3914
3330	100.035
3330.5	101.353
3331	101.83
3331.5	101.157
3332	100.428
3332.5	100.354
3333	100.35
3333.5	99.5807
3334	98.1465
3334.5	96.8735
3335	96.4908
3335.5	97.4014
3336	99.6647
3336.5	102.605
3337	104.886
3337.5	105.609
3338	105.272
3338.5	105.138
3339	105.79
3339.5	106.832
3340	107.807
3340.5	108.609
3341	108.923
3341.5	108.18
3342	106.54
3342.5	105.199
3343	105.078
3343.5	105.695
3344	106.068
3344.5	106.254
3345	106.974
3345.5	107.82
3346	107.262
3346.5	104.824
3347	102.248
3347.5	101.738
3348	103.462
3348.5	105.56
3349	106.471
3349.5	106.455
3350	106.641
3350.5	107.334
3351	107.973
3351.5	108.401
3352	109.195
3352.5	110.398
3353	110.792
3353.5	109.377
3354	107.333
3354.5	107.077
3355	109.574
3355.5	113.316
3356	116.073
3356.5	116.839
3357	115.762
3357.5	113.267
3358	110.199
3358.5	108.221
3359	108.763
3359.5	111.396
3360	114.025
3360.5	115.024
3361	114.694
3361.5	114.405
3362	114.709
3362.5	114.936
3363	114.4
3363.5	113.479
3364	113.235
3364.5	114.013
3365	114.814
3365.5	114.426
3366	112.965
3366.5	111.764
3367	111.768
3367.5	112.72
3368	114.089
3368.5	115.899
3369	118.054
3369.5	119.665
3370	119.928
3370.5	119.116
3371	117.991
3371.5	116.764
3372	115.475
3372.5	114.933
3373	116.138
3373.5	118.741
3374	121.017
3374.5	121.498
3375	120.023
3375.5	117.41
3376	115.104
3376.5	114.889
3377	117.484
3377.5	121.013
3378	122.201
3378.5	119.978
3379	117.014
3379.5	116.755
3380	119.586
3380.5	122.87
3381	124.307
3381.5	124.106
3382	124.009
3382.5	125.22
3383	127.354
3383.5	128.797
3384	127.836
3384.5	124.402
3385	120.832
3385.5	119.875
3386	121.667
3386.5	123.733
3387	124.431
3387.5	124.908
3388	126.377
3388.5	126.883
3389	123.466
3389.5	117.499
3390	114.039
3390.5	115.438
3391	118.332
3391.5	118.614
3392	117.228
3392.5	118.293
3393	122.59
3393.5	126.26
3394	126.386
3394.5	124.86
3395	125.068
3395.5	126.785
3396	127.331
3396.5	125.902
3397	124.298
3397.5	123.925
3398	124.295
3398.5	124.735
3399	125.628
3399.5	127.097
3400	127.9
3400.5	127.001
3401	125.593
3401.5	125.917
3402	128.339
3402.5	130.909
3403	131.841
3403.5	131.512
3404	131.571
3404.5	132.721
3405	134.102
3405.5	134.639
3406	134.258
3406.5	133.512
3407	132.544
3407.5	131.05
3408	129.199
3408.5	128.02
3409	128.517
3409.5	130.442
3410	132.26
3410.5	132.628
3411	131.826
3411.5	131.37
3412	131.992
3412.5	132.434
3413	131.025
3413.5	127.949
3414	125.326
3414.5	124.98
3415	126.691
3415.5	128.923
3416	130.674
3416.5	132.048
3417	133.383
3417.5	134.605
3418	135.508
3418.5	135.968
3419	135.834
3419.5	135.204
3420	134.96
3420.5	136.265
3421	139.013
3421.5	141.218
3422	140.652
3422.5	137.169
3423	133.086
3423.5	130.81
3424	131.067
3424.5	132.863
3425	134.657
3425.5	135.561
3426	135.896
3426.5	136.622
3427	137.902
3427.5	138.364
3428	136.72
3428.5	133.786
3429	131.876
3429.5	132.073
3430	133.133
3430.5	133.663
3431	134.281
3431.5	136.453
3432	139.797
3432.5	142.071
3433	142.15
3433.5	141.236
3434	140.88
3434.5	140.963
3435	140.206
3435.5	138.072
3436	135.525
3436.5	134.054
3437	134.285
3437.5	135.328
3438	135.811
3438.5	135.434
3439	135.366
3439.5	136.709
3440	138.819
3440.5	139.899
3441	139.269
3441.5	138.239
3442	138.331
3442.5	139.353
3443	139.991
3443.5	139.454
3444	138.085
3444.5	136.795
3445	136.366
3445.5	137.001
3446	138.148
3446.5	138.915
3447	138.954
3447.5	138.478
3448	137.459
3448.5	135.499
3449	132.894
3449.5	131.17
3450	131.693
3450.5	133.88
3451	135.606
3451.5	135.775
3452	135.41
3452.5	136.04
3453	137.612
3453.5	138.542
3454	137.734
3454.5	135.993
3455	135.11
3455.5	135.638
3456	136.457
3456.5	136.497
3457	136.038
3457.5	135.923
3458	136.024
3458.5	135.411
3459	134.076
3459.5	133.485
3460	134.557
3460.5	136.146
3461	136.334
3461.5	134.884
3462	133.537
3462.5	133.738
3463	134.938
3463.5	135.689
3464	135.845
3464.5	136.276
3465	136.863
3465.5	136.155
3466	133.526
3466.5	130.688
3467	129.921
3467.5	131.117
3468	131.852
3468.5	130.96
3469	129.973
3469.5	130.774
3470	132.931
3470.5	134.384
3471	134.15
3471.5	133.239
3472	132.965
3472.5	133.523
3473	134.521
3473.5	135.595
3474	136.143
3474.5	135.313
3475	132.894
3475.5	129.839
3476	127.386
3476.5	126.008
3477	125.73
3477.5	126.604
3478	128.262
3478.5	129.506
3479	129.286
3479.5	128.024
3480	127.098
3480.5	126.969
3481	126.994
3481.5	126.866
3482	127.162
3482.5	128.057
3483	128.481
3483.5	127.552
3484	126.144
3484.5	125.647
3485	125.871
3485.5	125.353
3486	123.826
3486.5	123.169
3487	125.046
3487.5	128.085
3488	129.33
3488.5	127.823
3489	125.756
3489.5	125.72
3490	127.555
3490.5	128.598
3491	126.909
3491.5	123.323
3492	120.025
3492.5	118.547
3493	119.11
3493.5	120.937
3494	122.617
3494.5	122.821
3495	121.592
3495.5	120.157
3496	119.332
3496.5	118.594
3497	117.246
3497.5	115.822
3498	115.369
3498.5	115.499
3499	114.83
3499.5	112.966
3500	111.156
3500.5	110.882
3501	112.349
3501.5	114.262
3502	114.817
3502.5	113.317
3503	111.102
3503.5	110.521
3504	112.117
3504.5	113.404
3505	111.678
3505.5	108.187
3506	106.637
3506.5	108.486
3507	111.337
3507.5	112.406
3508	111.77
3508.5	110.967
3509	109.902
3509.5	107.762
3510	105.908
3510.5	107.23
3511	112.16
3511.5	117.013
3512	117.553
3512.5	113.771
3513	109.068
3513.5	106.519
3514	106.605
3514.5	107.934
3515	108.836
3515.5	108.334
3516	106.527
3516.5	104.396
3517	102.883
3517.5	102
3518	101.317
3518.5	101.243
3519	102.686
3519.5	105.206
3520	106.782
3520.5	106.118
3521	104.518
3521.5	104.547
3522	106.874
3522.5	109.54
3523	110.407
3523.5	108.87
3524	105.645
3524.5	102.075
3525	100.064
3525.5	101.188
3526	105.104
3526.5	109.325
3527	111.352
3527.5	110.859
3528	109.129
3528.5	106.768
3529	103.282
3529.5	99.0761
3530	96.1472
3530.5	95.9681
3531	97.5123
3531.5	98.484
3532	98.3801
3532.5	98.4533
3533	99.2048
3533.5	99.4353
3534	98.0808
3534.5	95.784
3535	93.8725
3535.5	92.6654
3536	91.9947
3536.5	91.9143
3537	91.9944
3537.5	90.8399
3538	88.0882
3538.5	85.8455
3539	86.634
3539.5	90.1554
3540	93.3156
3540.5	93.6024
3541	91.7894
3541.5	90.1605
3542	89.8535
3542.5	90.3301
3543	90.4561
3543.5	89.5404
3544	87.9416
3544.5	86.8346
3545	87.1305
3545.5	88.3346
3546	88.8753
3546.5	87.8759
3547	86.2602
3547.5	85.2022
3548	84.5436
3548.5	83.3644
3549	81.6481
3549.5	80.5415
3550	80.6935
3550.5	81.4038
3551	81.6684
3551.5	81.365
3552	81.177
3552.5	81.7046
3553	82.8012
3553.5	83.7302
3554	83.7111
3554.5	82.6758
3555	81.5999
3555.5	81.6741
3556	82.7704
3556.5	83.5132
3557	82.8058
3557.5	81.0808
3558	79.8467
3558.5	79.9576
3559	80.5462
3559.5	80.1405
3560	78.4849
3560.5	77.08
3561	77.4927
3561.5	79.0761
3562	79.7282
3562.5	78.5059
3563	76.4388
3563.5	74.8215
3564	73.8518
3564.5	73.4447
3565	74.0689
3565.5	75.5437
3566	76.2597
3566.5	74.8068
3567	72.1501
3567.5	70.5634
3568	70.8158
3568.5	71.5135
3569	70.8947
3569.5	68.7594
3570	66.7049
3570.5	66.242
3571	67.5052
3571.5	69.4573
3572	71.2625
3572.5	72.8834
3573	74.1093
3573.5	74.0869
3574	72.5203
3574.5	70.5222
3575	69.3911
3575.5	68.849
3576	67.9234
3576.5	66.5707
3577	65.6009
3577.5	65.5474
3578	66.3854
3578.5	67.8923
3579	69.2145
3579.5	68.9115
3580	66.6883
3580.5	64.5883
3581	64.5842
3581.5	65.8957
3582	66.2762
3582.5	65.3528
3583	65.1304
3583.5	66.5729
3584	67.9794
3584.5	67.408
3585	65.2425
3585.5	63.6007
3586	63.5959
3586.5	64.4301
3587	64.8144
3587.5	64.1756
3588	62.6519
3588.5	60.6994
3589	58.992
3589.5	58.3313
3590	59.0399
3590.5	60.3482
3591	60.89
3591.5	60.2821
3592	59.4663
3592.5	59.4318
3593	60.067
3593.5	60.6625
3594	61.066
3594.5	61.3802
3595	61.1448
3595.5	59.9231
3596	58.6111
3596.5	58.8332
3597	60.7055
3597.5	62.3587
3598	61.8686
3598.5	59.3407
3599	56.8297
3599.5	55.8289
3600	55.9248
3600.5	55.5644
3601	54.3023
3601.5	53.8561
3602	55.6334
3602.5	58.2932
3603	58.8242
3603.5	56.3054
3604	53.5221
3604.5	52.9073
3605	53.8519
3605.5	54.196
3606	53.3944
3606.5	52.8986
3607	53.5997
3607.5	54.8345
3608	55.2926
3608.5	54.2485
3609	52.2563
3609.5	50.6665
3610	50.5062
3610.5	51.3214
3611	51.5963
3611.5	50.8274
3612	50.028
3612.5	50.1709
3613	50.8957
3613.5	51.188
3614	50.8429
3614.5	50.3038
3615	49.698
3615.5	48.6483
3616	47.1112
3616.5	45.7495
3617	45.2282
3617.5	45.3905
3618	45.4835
3618.5	45.4844
3619	46.3638
3619.5	48.4636
3620	50.2587
3620.5	49.9045
3621	48.1236
3621.5	47.255
3622	48.1075
3622.5	49.1836
3623	49.437
3623.5	49.7349
3624	50.4709
3624.5	50.2414
3625	48.0725
3625.5	45.6581
3626	45.0201
3626.5	45.9989
3627	47.1446
3627.5	47.8414
3628	48.1899
3628.5	47.8443
3629	46.7216
3629.5	45.8954
3630	46.3163
3630.5	47.2443
3631	47.2669
3631.5	46.0058
3632	44.2922
3632.5	43.1231
3633	42.9625
3633.5	43.6705
3634	44.5073
3634.5	44.6909
3635	44.1796
3635.5	43.3547
3636	42.4288
3636.5	41.6068
3637	41.299
3637.5	41.4017
3638	41.0328
3638.5	39.8078
3639	38.997
3639.5	39.9561
3640	42.0471
3640.5	43.2106
3641	42.4279
3641.5	41.0205
3642	40.447
3642.5	40.598
3643	40.3934
3643.5	39.5548
3644	38.8057
3644.5	38.5061
3645	38.3745
3645.5	38.3614
3646	38.6198
3646.5	38.5227
3647	37.214
3647.5	35.4574
3648	35.2832
3648.5	36.7881
3649	37.7484
3649.5	36.8752
3650	35.9221
3650.5	36.6941
3651	38.1785
3651.5	38.2374
3652	36.4356
3652.5	34.0796
3653	32.1972
3653.5	31.5103
3654	32.6107
3654.5	34.6709
3655	35.6934
3655.5	34.7864
3656	32.9986
3656.5	31.4727
3657	30.197
3657.5	29.4617
3658	30.3866
3658.5	33.068
3659	35.662
3659.5	36.7382
3660	36.5491
3660.5	35.7884
3661	34.4382
3661.5	32.5177
3662	30.6746
3662.5	29.4408
3663	28.7323
3663.5	28.4421
3664	28.5112
3664.5	28.4808
3665	28.0585
3665.5	28.0009
3666	29.2132
3666.5	31.2926
3667	32.7158
3667.5	32.667
3668	31.529
3668.5	30.0278
3669	28.6795
3669.5	27.7959
3670	27.4421
3670.5	27.398
3671	27.4412
3671.5	27.4745
3672	27.2861
3672.5	26.7003
3673	26.1973
3673.5	26.7436
3674	28.5325
3674.5	30.4389
3675	30.8641
3675.5	29.4063
3676	27.0927
3676.5	25.2531
3677	24.5004
3677.5	24.4457
3678	24.4401
3678.5	24.1898
3679	23.9309
3679.5	24.2371
3680	25.2866
3680.5	26.3104
3681	26.1239
3681.5	24.8291
3682	24.0273
3682.5	24.8205
3683	26.3501
3683.5	26.8436
3684	25.9047
3684.5	24.4421
3685	23.2988
3685.5	22.6281
3686	22.4224
3686.5	22.7455
3687	23.4086
3687.5	23.9001
3688	23.8439
3688.5	23.3051
3689	22.7332
3689.5	22.4693
3690	22.3975
3690.5	22.4127
3691	22.9012
3691.5	23.9778
3692	24.7008
3692.5	24.0608
3693	22.5662
3693.5	21.7383
3694	21.8426
3694.5	21.8957
3695	21.4816
3695.5	21.2708
3696	21.4428
3696.5	21.3202
3697	20.684
3697.5	20.3534
3698	20.8774
3698.5	21.761
3699	22.1378
3699.5	21.9282
3700	21.7556
