#Imported=	16.12.2021 13:58:48
60	41.2267
60.5	39.4552
61	38.132
61.5	37.1881
62	36.7649
62.5	36.8957
63	37.5014
63.5	38.4924
64	39.5642
64.5	40.5949
65	41.5609
65.5	42.5256
66	43.5761
66.5	44.7506
67	46.0042
67.5	47.3242
68	48.7229
68.5	50.2665
69	52.1162
69.5	54.1977
70	56.4008
70.5	58.499
71	60.2703
71.5	61.4439
72	62.1207
72.5	62.5173
73	62.8489
73.5	63.318
74	64.0142
74.5	64.8426
75	65.6165
75.5	66.192
76	66.4775
76.5	66.4878
77	66.2508
77.5	65.8508
78	65.322
78.5	64.6679
79	63.9656
79.5	63.3525
80	63.03
80.5	63.0703
81	63.5169
81.5	64.2212
82	64.8529
82.5	64.9544
83	64.3348
83.5	62.9434
84	60.7861
84.5	58.271
85	55.7916
85.5	53.6824
86	52.0321
86.5	50.908
87	50.2016
87.5	49.7767
88	49.5638
88.5	49.4988
89	49.5717
89.5	49.7567
90	49.9344
90.5	49.9216
91	49.5483
91.5	48.7511
92	47.4409
92.5	45.7419
93	43.8655
93.5	42.1024
94	40.6582
94.5	39.723
95	39.4541
95.5	39.7818
96	40.5343
96.5	41.3807
97	42.0118
97.5	42.0329
98	41.2745
98.5	39.7809
99	37.852
99.5	35.9579
100	34.5182
100.5	33.8815
101	34.0371
101.5	34.7197
102	35.4679
102.5	35.9513
103	35.8501
103.5	35.2312
104	34.2964
104.5	33.3206
105	32.4689
105.5	31.8111
106	31.3049
106.5	30.8719
107	30.5186
107.5	30.3131
108	30.3472
108.5	30.733
109	31.3883
109.5	32.1285
110	32.6952
110.5	32.933
111	32.7001
111.5	32.0499
112	31.1515
112.5	30.2452
113	29.5172
113.5	29.084
114	29.0128
114.5	29.1893
115	29.407
115.5	29.3961
116	28.983
116.5	27.976
117	26.4662
117.5	24.6873
118	23.0751
118.5	21.9378
119	21.5093
119.5	21.8665
120	22.7805
120.5	23.9367
121	24.9702
121.5	25.6961
122	25.9474
122.5	25.8007
123	25.3075
123.5	24.583
124	23.7587
124.5	22.9116
125	22.1381
125.5	21.538
126	21.2999
126.5	21.4714
127	22.0638
127.5	23.1034
128	24.3736
128.5	25.6337
129	26.5162
129.5	26.8595
130	26.5305
130.5	25.6641
131	24.5488
131.5	23.6133
132	23.1104
132.5	23.0585
133	23.3141
133.5	23.5376
134	23.4223
134.5	22.8183
135	21.978
135.5	21.1973
136	20.7483
136.5	20.7314
137	21.151
137.5	21.6632
138	22.07
138.5	22.3104
139	22.4941
139.5	22.78
140	23.2662
140.5	23.8064
141	24.0976
141.5	23.9258
142	23.222
142.5	22.0955
143	21.0709
143.5	20.6404
144	21.0792
144.5	22.2202
145	23.7602
145.5	25.0779
146	25.6636
146.5	25.2111
147	24.0585
147.5	22.5672
148	21.2455
148.5	20.5068
149	20.5119
149.5	21.0286
150	21.7178
150.5	22.2855
151	22.5865
151.5	22.6672
152	22.785
152.5	23.136
153	23.7867
153.5	24.6293
154	25.4008
154.5	25.7225
155	25.499
155.5	24.8553
156	23.9842
156.5	23.1876
157	22.6534
157.5	22.4762
158	22.4216
158.5	22.3104
159	22.002
159.5	21.4901
160	20.8391
160.5	20.2331
161	19.7981
161.5	19.6478
162	19.7429
162.5	20.069
163	20.5915
163.5	21.2196
164	21.8754
164.5	22.4847
165	22.9972
165.5	23.3503
166	23.5345
166.5	23.5324
167	23.2977
167.5	22.8388
168	22.1268
168.5	21.1889
169	20.1396
169.5	19.1411
170	18.3184
170.5	17.7049
171	17.3192
171.5	17.0721
172	16.9516
172.5	17.0472
173	17.4316
173.5	18.204
174	19.3058
174.5	20.5267
175	21.5031
175.5	21.9186
176	21.7281
176.5	20.9987
177	20.1144
177.5	19.4012
178	19.1641
178.5	19.3904
179	19.8987
179.5	20.429
180	20.8134
180.5	20.9573
181	20.973
181.5	21.0208
182	21.2296
182.5	21.5598
183	21.8771
183.5	21.9438
184	21.539
184.5	20.4103
185	18.75
185.5	16.8337
186	15.0862
186.5	13.8854
187	13.5696
187.5	14.3003
188	15.5981
188.5	17.0809
189	18.3188
189.5	19.0868
190	19.251
190.5	19.0757
191	18.8552
191.5	18.7869
192	18.869
192.5	18.9874
193	18.9154
193.5	18.4513
194	17.4682
194.5	16.0911
195	14.5088
195.5	12.9979
196	11.8435
196.5	11.3958
197	11.8548
197.5	13.0172
198	14.6913
198.5	16.468
199	17.9671
199.5	18.7681
200	18.9035
200.5	18.6094
201	18.1644
201.5	17.8559
202	17.8402
202.5	18.1358
203	18.5921
203.5	19.07
204	19.4954
204.5	19.8571
205	20.1579
205.5	20.4189
206	20.6327
206.5	20.793
207	20.9179
207.5	21.0166
208	21.0836
208.5	21.0867
209	20.926
209.5	20.5796
210	20.0943
210.5	19.575
211	19.158
211.5	18.9405
212	18.9407
212.5	19.0324
213	19.0871
213.5	19.0512
214	18.9471
214.5	18.8219
215	18.6963
215.5	18.4863
216	18.0268
216.5	17.2953
217	16.3626
217.5	15.4833
218	14.9423
218.5	15.0867
219	15.7926
219.5	16.7374
220	17.5263
220.5	17.9177
221	17.8385
221.5	17.4426
222	17.069
222.5	16.916
223	16.9455
223.5	16.9951
224	16.8744
224.5	16.5522
225	16.1675
225.5	16.0326
226	16.2819
226.5	16.9339
227	17.8014
227.5	18.5988
228	19.0372
228.5	19.0481
229	18.8048
229.5	18.5179
230	18.3998
230.5	18.5798
231	19.1247
231.5	19.9401
232	20.9136
232.5	21.8903
233	22.7413
233.5	23.309
234	23.5541
234.5	23.4851
235	23.189
235.5	22.8926
236	22.7329
236.5	22.7849
237	23.0017
237.5	23.3144
238	23.6275
238.5	23.9134
239	24.2012
239.5	24.5135
240	24.8269
240.5	25.0478
241	25.0793
241.5	24.8244
242	24.3683
242.5	23.8813
243	23.5582
243.5	23.501
244	23.7044
244.5	24.0733
245	24.382
245.5	24.5006
246	24.3959
246.5	24.1613
247	23.8972
247.5	23.6959
248	23.5728
248.5	23.4609
249	23.2771
249.5	22.9812
250	22.5749
250.5	22.1382
251	21.7618
251.5	21.5444
252	21.4904
252.5	21.5978
253	21.797
253.5	22.0168
254	22.1647
254.5	22.1729
255	21.9821
255.5	21.5973
256	21.1126
256.5	20.6387
257	20.3061
257.5	20.1861
258	20.326
258.5	20.5734
259	20.7574
259.5	20.7062
260	20.4075
260.5	19.9114
261	19.3849
261.5	19.027
262	18.9669
262.5	19.1286
263	19.3706
263.5	19.532
264	19.553
264.5	19.4851
265	19.5469
265.5	19.9394
266	20.7876
266.5	22.0108
267	23.3731
267.5	24.5652
268	25.3307
268.5	25.5136
269	25.1124
269.5	24.4104
270	23.5964
270.5	22.8605
271	22.2918
271.5	21.9273
272	21.7097
272.5	21.5653
273	21.4943
273.5	21.5302
274	21.7521
274.5	22.2684
275	23.0564
275.5	24.0433
276	24.9802
276.5	25.6469
277	25.8173
277.5	25.5124
278	24.8745
278.5	24.149
279	23.6446
279.5	23.499
280	23.6575
280.5	23.8934
281	23.9806
281.5	23.7804
282	23.3243
282.5	22.7802
283	22.4239
283.5	22.4126
284	22.8424
284.5	23.5683
285	24.4504
285.5	25.2842
286	25.8871
286.5	26.0913
287	25.8838
287.5	25.3124
288	24.4423
288.5	23.52
289	22.7725
289.5	22.4789
290	22.6642
290.5	23.2526
291	24.0041
291.5	24.6695
292	25.0132
292.5	24.9986
293	24.6777
293.5	24.1861
294	23.6926
294.5	23.2486
295	22.8316
295.5	22.3695
296	21.7652
296.5	20.968
297	19.9967
297.5	18.9437
298	17.9778
298.5	17.2726
299	17.0363
299.5	17.2829
300	18.0129
300.5	19.008
301	19.92
301.5	20.4013
302	20.3208
302.5	19.6924
303	18.6145
303.5	17.4362
304	16.4676
304.5	15.9772
305	15.9561
305.5	16.3795
306	17.0503
306.5	17.7592
307	18.2943
307.5	18.5638
308	18.5811
308.5	18.5051
309	18.5381
309.5	18.8239
310	19.3668
310.5	20.0002
311	20.4516
311.5	20.479
312	20.0742
312.5	19.4286
313	18.9264
313.5	18.8722
314	19.4363
314.5	20.4099
315	21.4457
315.5	22.055
316	22.0559
316.5	21.3837
317	20.3631
317.5	19.291
318	18.4754
318.5	18.0268
319	18.0247
319.5	18.4249
320	19.1446
320.5	20.207
321	21.538
321.5	23.0284
322	24.52
322.5	25.8338
323	26.8417
323.5	27.5367
324	28.0558
324.5	28.4977
325	28.9374
325.5	29.3748
326	29.7355
326.5	29.9376
327	29.9467
327.5	29.7874
328	29.5836
328.5	29.458
329	29.5515
329.5	29.9322
330	30.6927
330.5	31.798
331	33.106
331.5	34.4278
332	35.5503
332.5	36.288
333	36.4483
333.5	36.068
334	35.1279
334.5	33.7196
335	32.0558
335.5	30.2809
336	28.5818
336.5	27.1052
337	26.0354
337.5	25.3389
338	24.9606
338.5	24.692
339	24.2859
339.5	23.5748
340	22.5673
340.5	21.4118
341	20.3515
341.5	19.6107
342	19.3527
342.5	19.6575
343	20.296
343.5	21.1124
344	21.9089
344.5	22.5391
345	22.8584
345.5	22.8381
346	22.4953
346.5	21.8825
347	21.2088
347.5	20.6256
348	20.28
348.5	20.1903
349	20.3477
349.5	20.6485
350	20.9832
350.5	21.2841
351	21.5468
351.5	21.7735
352	21.9247
352.5	21.9438
353	21.7367
353.5	21.252
354	20.5752
354.5	19.9023
355	19.4747
355.5	19.419
356	19.819
356.5	20.4617
357	21.1423
357.5	21.6351
358	21.8767
358.5	21.9394
359	22.023
359.5	22.2451
360	22.6101
360.5	22.9406
361	23.022
361.5	22.5891
362	21.69
362.5	20.4954
363	19.3919
363.5	18.6708
364	18.544
364.5	18.9227
365	19.5601
365.5	20.1456
366	20.4317
366.5	20.3103
367	19.8822
367.5	19.4044
368	19.0752
368.5	19.0122
369	19.1849
369.5	19.5236
370	19.8895
370.5	20.194
371	20.3827
371.5	20.4653
372	20.3977
372.5	20.0902
373	19.5067
373.5	18.6138
374	17.5461
374.5	16.5423
375	15.9765
375.5	15.9339
376	16.3359
376.5	16.9066
377	17.2487
377.5	17.0508
378	16.2317
378.5	15.05
379	13.909
379.5	13.1926
380	12.9868
380.5	13.2569
381	13.6866
381.5	14.0916
382	14.3941
382.5	14.6738
383	15.0433
383.5	15.5049
384	15.8884
384.5	15.921
385	15.5092
385.5	14.7106
386	13.7384
386.5	12.9171
387	12.4667
387.5	12.4293
388	12.5903
388.5	12.7667
389	12.8987
389.5	13.059
390	13.4012
390.5	13.9406
391	14.568
391.5	14.9998
392	14.9924
392.5	14.4634
393	13.6421
393.5	12.8824
394	12.5591
394.5	12.7893
395	13.5058
395.5	14.5388
396	15.569
396.5	16.3771
397	16.8287
397.5	16.9143
398	16.5519
398.5	15.776
399	14.7149
399.5	13.5949
400	12.7552
400.5	12.4993
401	13.0598
401.5	14.0998
402	15.2719
402.5	16.1638
403	16.5958
403.5	16.5461
404	16.3056
404.5	16.1532
405	16.3123
405.5	16.6683
406	16.9912
406.5	17.0596
407	16.8703
407.5	16.5585
408	16.3902
408.5	16.5437
409	17.1054
409.5	17.8371
410	18.4286
410.5	18.5669
411	18.2702
411.5	17.6549
412	16.9953
412.5	16.5359
413	16.4413
413.5	16.6374
414	16.9338
414.5	17.0317
415	16.791
415.5	16.1723
416	15.2588
416.5	14.2826
417	13.4727
417.5	13.0268
418	13.0117
418.5	13.4999
419	14.3364
419.5	15.339
420	16.3242
420.5	17.1671
421	17.8041
421.5	18.2451
422	18.5753
422.5	18.8506
423	19.0931
423.5	19.2487
424	19.1562
424.5	18.7598
425	18.0568
425.5	17.178
426	16.4104
426.5	16.0879
427	16.4631
427.5	17.5116
428	19.093
428.5	20.6854
429	21.8184
429.5	22.0379
430	21.4834
430.5	20.3961
431	19.2752
431.5	18.5903
432	18.6907
432.5	19.5057
433	20.6588
433.5	21.5855
434	21.9272
434.5	21.5972
435	20.7561
435.5	19.8882
436	19.4257
436.5	19.6581
437	20.5082
437.5	21.7684
438	22.9872
438.5	23.8625
439	24.2047
439.5	24.205
440	24.0415
440.5	23.9093
441	23.8873
441.5	23.9445
442	23.9678
442.5	23.8757
443	23.6467
443.5	23.3881
444	23.1801
444.5	23.0548
445	22.9431
445.5	22.7509
446	22.4087
446.5	21.9539
447	21.4896
447.5	21.1519
448	20.9898
448.5	20.9422
449	20.8416
449.5	20.568
450	20.0842
450.5	19.5295
451	19.1075
451.5	19.0202
452	19.3221
452.5	20.0047
453	20.8222
453.5	21.534
454	21.897
454.5	21.8726
455	21.4475
455.5	20.7181
456	19.8868
456.5	19.1493
457	18.6647
457.5	18.4806
458	18.5921
458.5	18.7926
459	18.9495
459.5	18.9874
460	18.962
460.5	18.9677
461	19.0807
461.5	19.2735
462	19.4336
462.5	19.4375
463	19.2629
463.5	19.0563
464	19.0414
464.5	19.3584
465	19.9617
465.5	20.5603
466	20.7768
466.5	20.3607
467	19.3558
467.5	17.9846
468	16.7538
468.5	16.0327
469	15.9994
469.5	16.3747
470	16.8605
470.5	17.1298
471	17.0596
471.5	16.6554
472	16.1328
472.5	15.6917
473	15.503
473.5	15.5138
474	15.5913
474.5	15.5609
475	15.3535
475.5	14.9955
476	14.6526
476.5	14.507
477	14.746
477.5	15.3131
478	16.0373
478.5	16.6068
479	16.7796
479.5	16.4718
480	15.8174
480.5	15.1029
481	14.5828
481.5	14.3608
482	14.3687
482.5	14.448
483	14.407
483.5	14.1553
484	13.7046
484.5	13.2058
485	12.7957
485.5	12.5571
486	12.4907
486.5	12.5937
487	12.7988
487.5	13.0484
488	13.2753
488.5	13.427
489	13.4722
489.5	13.432
490	13.4009
490.5	13.5008
491	13.803
491.5	14.2925
492	14.9029
492.5	15.4755
493	15.8736
493.5	15.9608
494	15.7598
494.5	15.3023
495	14.7038
495.5	14.1009
496	13.5882
496.5	13.1669
497	12.781
497.5	12.3427
498	11.8241
498.5	11.2778
499	10.8727
499.5	10.7759
500	11.1618
500.5	11.9985
501	13.0738
501.5	14.0687
502	14.7451
502.5	15.0273
503	14.9551
503.5	14.7573
504	14.5801
504.5	14.4867
505	14.4227
505.5	14.2898
506	14.0424
506.5	13.7283
507	13.4972
507.5	13.458
508	13.6439
508.5	13.9884
509	14.3339
509.5	14.5516
510	14.5964
510.5	14.5318
511	14.4711
511.5	14.5262
512	14.7387
512.5	15.0911
513	15.4658
513.5	15.78
514	16.0037
514.5	16.1754
515	16.3326
515.5	16.4758
516	16.546
516.5	16.3974
517	15.9721
517.5	15.2661
518	14.3926
518.5	13.5957
519	13.1231
519.5	13.0798
520	13.3676
520.5	13.8318
521	14.2379
521.5	14.4494
522	14.3942
522.5	14.204
523	14.0272
523.5	14.0482
524	14.3504
524.5	14.9843
525	15.835
525.5	16.6907
526	17.2651
526.5	17.3842
527	16.9531
527.5	15.9725
528	14.7444
528.5	13.5714
529	12.7847
529.5	12.525
530	12.8752
530.5	13.6114
531	14.4523
531.5	15.0474
532	15.2487
532.5	15.0124
533	14.4569
533.5	13.8726
534	13.5526
534.5	13.6924
535	14.2702
535.5	15.1507
536	15.9902
536.5	16.5231
537	16.5574
537.5	16.276
538	15.9571
538.5	15.9038
539	16.1897
539.5	16.7289
540	17.2356
540.5	17.4813
541	17.3003
541.5	16.8613
542	16.3709
542.5	16.0566
543	15.9572
543.5	15.9726
544	15.8754
544.5	15.529
545	14.9215
545.5	14.2517
546	13.7202
546.5	13.525
547	13.6306
547.5	13.9689
548	14.4201
548.5	14.8921
549	15.3711
549.5	15.8673
550	16.3623
550.5	16.7561
551	16.9471
551.5	16.8811
552	16.57
552.5	16.1537
553	15.7202
553.5	15.2846
554	14.7733
554.5	14.0526
555	13.1094
555.5	12.0593
556	11.1912
556.5	10.7633
557	10.975
557.5	11.8473
558	13.0428
558.5	14.2266
559	15.0897
559.5	15.5029
560	15.3637
560.5	14.8351
561	14.059
561.5	13.2059
562	12.461
562.5	11.9768
563	11.8377
563.5	11.9813
564	12.3153
564.5	12.6682
565	12.9509
565.5	13.1788
566	13.4632
566.5	13.893
567	14.4698
567.5	15.0424
568	15.3923
568.5	15.3514
569	14.932
569.5	14.2408
570	13.5579
570.5	13.087
571	12.9654
571.5	13.0732
572	13.2672
572.5	13.4184
573	13.5187
573.5	13.6383
574	13.8359
574.5	14.0692
575	14.1438
575.5	13.8684
576	13.1174
576.5	11.9423
577	10.7146
577.5	9.88086
578	9.80603
578.5	10.4851
579	11.7268
579.5	12.9574
580	13.7748
580.5	13.8993
581	13.5588
581.5	12.9982
582	12.4838
582.5	12.1062
583	11.811
583.5	11.477
584	11.0725
584.5	10.698
585	10.5105
585.5	10.6064
586	10.9702
586.5	11.4014
587	11.7546
587.5	12.0322
588	12.3787
588.5	12.9788
589	13.8203
589.5	14.7106
590	15.2676
590.5	15.2966
591	14.773
591.5	13.9737
592	13.3597
592.5	13.3268
593	13.9456
593.5	14.9622
594	16.011
594.5	16.7725
595	17.1882
595.5	17.3808
596	17.5775
596.5	17.8744
597	18.2402
597.5	18.5854
598	18.8788
598.5	19.199
599	19.6401
599.5	20.2262
600	20.7511
600.5	20.9104
601	20.3722
601.5	19.2196
602	17.7405
602.5	16.5401
603	16.0799
603.5	16.65
604	17.8926
604.5	19.3373
605	20.437
605.5	20.9675
606	20.906
606.5	20.48
607	20.0341
607.5	19.838
608	19.9938
608.5	20.4347
609	20.9984
609.5	21.4118
610	21.4526
610.5	20.9648
611	20.1379
611.5	19.2934
612	18.8318
612.5	18.9097
613	19.4875
613.5	20.1367
614	20.4536
614.5	20.088
615	19.2523
615.5	18.2974
616	17.7069
616.5	17.6798
617	18.198
617.5	18.9008
618	19.4321
618.5	19.5282
619	19.2871
619.5	18.8986
620	18.588
620.5	18.4335
621	18.4148
621.5	18.4533
622	18.4897
622.5	18.5049
623	18.4943
623.5	18.4426
624	18.3112
624.5	18.1169
625	17.9118
625.5	17.8014
626	17.8493
626.5	18.0693
627	18.346
627.5	18.5155
628	18.3893
628.5	17.9692
629	17.3847
629.5	16.9266
630	16.8407
630.5	17.2871
631	18.1965
631.5	19.249
632	20.0728
632.5	20.4191
633	20.2929
633.5	19.8598
634	19.4897
634.5	19.4032
635	19.6436
635.5	19.9814
636	20.1801
636.5	20.1361
637	19.9818
637.5	19.9895
638	20.3346
638.5	20.9656
639	21.5721
639.5	21.8091
640	21.472
640.5	20.612
641	19.553
641.5	18.5864
642	17.874
642.5	17.384
643	17.0194
643.5	16.6631
644	16.3087
644.5	16.0312
645	15.8847
645.5	15.8839
646	15.9564
646.5	15.9943
647	15.8808
647.5	15.5639
648	15.0389
648.5	14.3343
649	13.6457
649.5	13.2208
650	13.3727
650.5	14.1677
651	15.5728
651.5	17.2018
652	18.5986
652.5	19.2854
653	19.2563
653.5	18.7256
654	18.1053
654.5	17.7756
655	17.8672
655.5	18.1727
656	18.2928
656.5	17.8066
657	16.6513
657.5	15.069
658	13.547
658.5	12.5865
659	12.5246
659.5	13.414
660	14.7872
660.5	16.1836
661	17.1503
661.5	17.5261
662	17.2868
662.5	16.7673
663	16.2584
663.5	15.9963
664	15.9518
664.5	15.9745
665	15.8182
665.5	15.3564
666	14.5835
666.5	13.7437
667	13.1298
667.5	13.0887
668	13.5863
668.5	14.438
669	15.2256
669.5	15.5417
670	15.0901
670.5	13.9444
671	12.5409
671.5	11.4275
672	10.9876
672.5	11.304
673	12.2584
673.5	13.3312
674	14.1413
674.5	14.4541
675	14.39
675.5	14.1592
676	14.0078
676.5	13.9969
677	13.9984
677.5	13.7881
678	13.2311
678.5	12.3582
679	11.474
679.5	10.9024
680	10.8396
680.5	11.1563
681	11.5461
681.5	11.6103
682	11.1574
682.5	10.1796
683	9.14009
683.5	8.50136
684	8.6856
684.5	9.65003
685	11.2023
685.5	12.8177
686	14.0036
686.5	14.2675
687	13.6563
687.5	12.4103
688	10.9701
688.5	9.82785
689	9.27039
689.5	9.28176
690	9.53864
690.5	9.71804
691	9.65206
691.5	9.42745
692	9.31926
692.5	9.54377
693	10.1572
693.5	11.0232
694	11.8848
694.5	12.6116
695	13.2465
695.5	13.9073
696	14.6145
696.5	15.175
697	15.3202
697.5	14.7568
698	13.6773
698.5	12.3919
699	11.368
699.5	10.873
700	11.036
700.5	11.6662
701	12.5155
701.5	13.3715
702	14.0571
702.5	14.4257
703	14.3154
703.5	13.8101
704	13.1013
704.5	12.5943
705	12.6034
705.5	13.2906
706	14.2759
706.5	15.0324
707	14.9375
707.5	14.0437
708	12.6938
708.5	11.5788
709	11.1816
709.5	11.6825
710	12.6779
710.5	13.6109
711	13.9633
711.5	13.7177
712	13.0696
712.5	12.3255
713	11.7491
713.5	11.4804
714	11.559
714.5	11.9204
715	12.5002
715.5	13.0942
716	13.4774
716.5	13.3415
717	12.7091
717.5	11.704
718	10.6471
718.5	9.86342
719	9.56904
719.5	9.71998
720	10.1049
720.5	10.5196
721	10.8272
721.5	11.007
722	11.0722
722.5	11.0507
723	10.8924
723.5	10.5253
724	9.95622
724.5	9.24316
725	8.56379
725.5	8.09114
726	8.03352
726.5	8.35641
727	8.98209
727.5	9.73633
728	10.4042
728.5	10.832
729	10.9936
729.5	10.991
730	10.9617
730.5	11.042
731	11.286
731.5	11.6974
732	12.1806
732.5	12.6817
733	13.1838
733.5	13.7034
734	14.2446
734.5	14.7385
735	15.058
735.5	14.9678
736	14.4166
736.5	13.4302
737	12.1816
737.5	11.0046
738	10.2024
738.5	9.96018
739	10.2156
739.5	10.8592
740	11.6095
740.5	12.2512
741	12.5715
741.5	12.5571
742	12.2071
742.5	11.5944
743	10.8846
743.5	10.2259
744	9.74346
744.5	9.47694
745	9.4536
745.5	9.59977
746	9.88417
746.5	10.3072
747	10.8079
747.5	11.2686
748	11.4648
748.5	11.2279
749	10.4321
749.5	9.32464
750	8.30516
750.5	7.92191
751	8.29554
751.5	9.33497
752	10.6456
752.5	11.7449
753	12.3463
753.5	12.5043
754	12.486
754.5	12.5089
755	12.5778
755.5	12.4994
756	11.953
756.5	10.9432
757	9.67838
757.5	8.66032
758	8.31157
758.5	8.94811
759	10.3384
759.5	11.9965
760	13.3059
760.5	13.9213
761	13.7568
761.5	12.9881
762	12.0792
762.5	11.367
763	11.019
763.5	10.952
764	10.9972
764.5	10.9392
765	10.6676
765.5	10.1196
766	9.40265
766.5	8.61668
767	7.92418
767.5	7.48629
768	7.52535
768.5	8.12816
769	9.20629
769.5	10.5599
770	11.7782
770.5	12.532
771	12.5646
771.5	12.0637
772	11.2749
772.5	10.5519
773	10.1003
773.5	9.98402
774	10.0304
774.5	10.052
775	9.88494
775.5	9.55782
776	9.17524
776.5	8.91995
777	8.90786
777.5	9.20618
778	9.72742
778.5	10.3101
779	10.7848
779.5	11.0882
780	11.2565
780.5	11.3971
781	11.6012
781.5	11.8463
782	11.9718
782.5	11.809
783	11.2175
783.5	10.3322
784	9.42874
784.5	8.90335
785	8.9032
785.5	9.41047
786	10.1787
786.5	10.8287
787	11.0847
787.5	10.9193
788	10.5606
788.5	10.358
789	10.5882
789.5	11.3305
790	12.4846
790.5	13.6318
791	14.3725
791.5	14.38
792	13.7104
792.5	12.538
793	11.304
793.5	10.3703
794	10.0418
794.5	10.1937
795	10.6067
795.5	10.9478
796	10.9788
796.5	10.5846
797	9.86056
797.5	9.03736
798	8.35997
798.5	7.98042
799	7.92848
799.5	8.18916
800	8.58391
800.5	8.99539
801	9.31462
801.5	9.49041
802	9.46005
802.5	9.21244
803	8.79648
803.5	8.33108
804	8.03741
804.5	8.12668
805	8.7857
805.5	9.84856
806	11.0748
806.5	12.117
807	12.789
807.5	13.0349
808	13.0485
808.5	12.9973
809	12.9117
809.5	12.6885
810	12.1802
810.5	11.3194
811	10.2716
811.5	9.23337
812	8.35974
812.5	7.65348
813	7.08395
813.5	6.65457
814	6.51653
814.5	6.97943
815	8.03062
815.5	9.48833
816	10.844
816.5	11.635
817	11.572
817.5	10.9469
818	10.2767
818.5	10.1382
819	10.6093
819.5	11.4617
820	12.1829
820.5	12.3781
821	11.8679
821.5	10.8531
822	9.70964
822.5	8.77341
823	8.19351
823.5	7.98104
824	8.15311
824.5	8.60298
825	9.30886
825.5	10.1903
826	11.0657
826.5	11.6771
827	11.7966
827.5	11.3469
828	10.3072
828.5	9.02845
829	7.85485
829.5	7.16572
830	7.01796
830.5	7.33978
831	7.84157
831.5	8.25026
832	8.44763
832.5	8.57015
833	8.82494
833.5	9.41191
834	10.2115
834.5	10.9832
835	11.3987
835.5	11.3665
836	10.9591
836.5	10.5008
837	10.284
837.5	10.5184
838	11.0699
838.5	11.7255
839	12.2265
839.5	12.466
840	12.4276
840.5	12.1943
841	11.8758
841.5	11.5238
842	11.1795
842.5	10.8892
843	10.7638
843.5	10.8525
844	11.1646
844.5	11.585
845	11.8948
845.5	11.8921
846	11.5633
846.5	11.1262
847	10.9567
847.5	11.3055
848	12.1767
848.5	13.3017
849	14.1806
849.5	14.4437
850	14.0158
850.5	13.2507
851	12.5757
851.5	12.3159
852	12.4939
852.5	12.9761
853	13.4657
853.5	13.8137
854	13.9648
854.5	13.965
855	13.7791
855.5	13.339
856	12.6322
856.5	11.6945
857	10.7311
857.5	9.94295
858	9.55953
858.5	9.58655
859	10.0498
859.5	10.9246
860	12.0547
860.5	13.2427
861	14.1679
861.5	14.5746
862	14.2157
862.5	13.3272
863	12.2217
863.5	11.2699
864	10.6068
864.5	10.1556
865	9.68389
865.5	9.06569
866	8.39302
866.5	7.9531
867	7.97231
867.5	8.6073
868	9.55595
868.5	10.5318
869	11.267
869.5	11.7362
870	12.0146
870.5	12.2262
871	12.4036
871.5	12.4688
872	12.3738
872.5	12.1447
873	11.9036
873.5	11.7911
874	11.8746
874.5	12.098
875	12.3255
875.5	12.4506
876	12.4706
876.5	12.4519
877	12.467
877.5	12.5154
878	12.5431
878.5	12.4897
879	12.3876
879.5	12.3447
880	12.4818
880.5	12.804
881	13.1969
881.5	13.4373
882	13.3746
882.5	12.9564
883	12.4163
883.5	11.9958
884	11.8906
884.5	12.0579
885	12.3387
885.5	12.4861
886	12.3641
886.5	11.9155
887	11.3128
887.5	10.7178
888	10.2864
888.5	10.0405
889	9.95248
889.5	9.94147
890	9.96449
890.5	10.1036
891	10.5075
891.5	11.2994
892	12.5342
892.5	13.8712
893	14.8756
893.5	15.0807
894	14.5044
894.5	13.4326
895	12.5113
895.5	12.1841
896	12.6059
896.5	13.2623
897	13.6198
897.5	13.2816
898	12.5071
898.5	11.753
899	11.4558
899.5	11.5955
900	11.8786
900.5	11.9454
901	11.7491
901.5	11.5336
902	11.5713
902.5	11.8399
903	11.9423
903.5	11.4923
904	10.392
904.5	9.17557
905	8.57614
905.5	9.29799
906	11.0614
906.5	13.1573
907	14.5505
907.5	14.7785
908	13.8171
908.5	12.2022
909	10.629
909.5	9.55858
910	9.07561
910.5	9.06652
911	9.4775
911.5	10.1255
912	10.8766
912.5	11.5169
913	11.8954
913.5	11.9687
914	11.9103
914.5	11.9522
915	12.239
915.5	12.6453
916	12.9519
916.5	12.943
917	12.7153
917.5	12.4809
918	12.4806
918.5	12.7171
919	13.0087
919.5	13.0816
920	12.8306
920.5	12.2855
921	11.6818
921.5	11.1808
922	10.902
922.5	10.8737
923	11.2294
923.5	12.1052
924	13.4467
924.5	15.003
925	16.2025
925.5	16.5511
926	15.5946
926.5	13.8362
927	11.91
927.5	10.6302
928	10.2876
928.5	10.7913
929	11.5081
929.5	11.8599
930	11.5036
930.5	10.7593
931	10.1229
931.5	10.1725
932	10.954
932.5	12.2505
933	13.5003
933.5	14.2011
934	13.9608
934.5	12.8978
935	11.3596
935.5	9.80175
936	8.65348
936.5	8.17583
937	8.51395
937.5	9.47447
938	10.9204
938.5	12.5671
939	14.1145
939.5	15.1926
940	15.5992
940.5	15.2515
941	14.1652
941.5	12.7944
942	11.5644
942.5	10.8918
943	10.8428
943.5	11.3206
944	11.9383
944.5	12.3869
945	12.4959
945.5	12.4443
946	12.4731
946.5	12.8052
947	13.3746
947.5	13.9508
948	14.2046
948.5	13.9973
949	13.3608
949.5	12.6751
950	12.3214
950.5	12.6987
951	13.6439
951.5	14.8509
952	15.7779
952.5	16.0378
953	15.391
953.5	14.0977
954	12.6619
954.5	11.7066
955	11.5342
955.5	12.1673
956	13.3629
956.5	14.5938
957	15.5003
957.5	15.9532
958	16.1288
958.5	16.2747
959	16.5973
959.5	17.1115
960	17.6745
960.5	18.0582
961	18.0971
961.5	17.7256
962	17.0909
962.5	16.3426
963	15.6638
963.5	15.167
964	14.9486
964.5	14.9725
965	15.1947
965.5	15.5639
966	15.9831
966.5	16.3937
967	16.7436
967.5	17.0017
968	17.1135
968.5	17.0683
969	16.9074
969.5	16.763
970	16.8414
970.5	17.35
971	18.4386
971.5	19.9321
972	21.5923
972.5	23.0991
973	24.2953
973.5	25.1506
974	25.8424
974.5	26.4734
975	26.9671
975.5	27.1555
976	26.874
976.5	26.1682
977	25.3818
977.5	24.9457
978	25.1333
978.5	25.9126
979	27.1227
979.5	28.4065
980	29.6007
980.5	30.6854
981	31.7463
981.5	32.7985
982	33.7502
982.5	34.4956
983	34.9622
983.5	35.2789
984	35.61
984.5	36.0748
985	36.5797
985.5	36.9258
986	36.9008
986.5	36.5593
987	36.1381
987.5	35.9949
988	36.3224
988.5	37.1754
989	38.2349
989.5	39.2106
990	39.8784
990.5	40.3062
991	40.6353
991.5	40.9999
992	41.3701
992.5	41.543
993	41.3414
993.5	40.7577
994	39.9485
994.5	39.2607
995	38.9122
995.5	38.9264
996	39.0422
996.5	38.9771
997	38.5917
997.5	37.9693
998	37.2434
998.5	36.5187
999	35.7641
999.5	34.8708
1000	33.844
1000.5	32.7973
1001	31.9407
1001.5	31.3789
1002	31.1254
1002.5	31.019
1003	30.9212
1003.5	30.7656
1004	30.5557
1004.5	30.2401
1005	29.6413
1005.5	28.6477
1006	27.232
1006.5	25.6999
1007	24.48
1007.5	23.9849
1008	24.1281
1008.5	24.5715
1009	24.8403
1009.5	24.712
1010	24.2481
1010.5	23.7585
1011	23.5079
1011.5	23.5763
1012	23.7895
1012.5	23.9525
1013	23.9429
1013.5	23.7878
1014	23.4793
1014.5	22.8932
1015	21.9741
1015.5	20.7867
1016	19.7381
1016.5	19.2907
1017	19.8704
1017.5	21.2343
1018	22.8239
1018.5	23.8758
1019	24.119
1019.5	23.6622
1020	23.0222
1020.5	22.7196
1021	22.9711
1021.5	23.5247
1022	23.9622
1022.5	23.8936
1023	23.345
1023.5	22.5294
1024	21.7876
1024.5	21.3602
1025	21.3562
1025.5	21.7276
1026	22.2836
1026.5	22.8221
1027	23.151
1027.5	23.2013
1028	23.0002
1028.5	22.7862
1029	22.7613
1029.5	23.0442
1030	23.4949
1030.5	23.8687
1031	23.8922
1031.5	23.4619
1032	22.5383
1032.5	21.3507
1033	20.1422
1033.5	19.2259
1034	18.7924
1034.5	19.0213
1035	19.9132
1035.5	21.1482
1036	22.2974
1036.5	22.9027
1037	22.7648
1037.5	21.8284
1038	20.5703
1038.5	19.4073
1039	18.6978
1039.5	18.4005
1040	18.3056
1040.5	18.0686
1041	17.5327
1041.5	16.7586
1042	16.0626
1042.5	15.7239
1043	15.9705
1043.5	16.5906
1044	17.3152
1044.5	17.8064
1045	17.9258
1045.5	17.6607
1046	17.2002
1046.5	16.744
1047	16.473
1047.5	16.4551
1048	16.7295
1048.5	17.2915
1049	17.9425
1049.5	18.4156
1050	18.3909
1050.5	17.7643
1051	16.5674
1051.5	15.228
1052	14.1987
1052.5	14.0039
1053	14.5963
1053.5	15.7999
1054	17.1874
1054.5	18.2973
1055	18.7861
1055.5	18.5976
1056	17.9483
1056.5	17.1131
1057	16.3886
1057.5	15.903
1058	15.6713
1058.5	15.5398
1059	15.405
1059.5	15.2244
1060	15.0352
1060.5	14.9036
1061	14.8732
1061.5	14.9624
1062	15.2175
1062.5	15.5995
1063	16.0085
1063.5	16.1891
1064	15.9339
1064.5	15.1121
1065	13.9404
1065.5	12.8569
1066	12.3677
1066.5	12.5771
1067	13.2782
1067.5	14.0458
1068	14.4882
1068.5	14.4574
1069	14.0419
1069.5	13.4673
1070	12.8446
1070.5	12.2348
1071	11.7029
1071.5	11.4185
1072	11.4569
1072.5	11.8094
1073	12.3493
1073.5	12.8962
1074	13.4222
1074.5	14.0245
1075	14.7638
1075.5	15.5383
1076	16.0758
1076.5	16.1766
1077	15.8312
1077.5	15.4584
1078	15.3923
1078.5	15.7453
1079	16.2255
1079.5	16.4331
1080	16.1291
1080.5	15.4008
1081	14.4684
1081.5	13.6023
1082	12.8961
1082.5	12.3739
1083	12.0224
1083.5	11.9273
1084	12.1198
1084.5	12.484
1085	12.8687
1085.5	13.184
1086	13.4948
1086.5	13.9682
1087	14.5981
1087.5	15.1969
1088	15.4285
1088.5	15.2108
1089	14.7252
1089.5	14.4623
1090	14.7533
1090.5	15.6114
1091	16.5385
1091.5	17.0877
1092	16.9762
1092.5	16.5079
1093	16.0776
1093.5	16.0643
1094	16.5137
1094.5	17.3459
1095	18.3353
1095.5	19.3295
1096	20.1725
1096.5	20.7144
1097	20.7508
1097.5	20.0857
1098	18.9122
1098.5	17.5522
1099	16.5147
1099.5	16.1127
1100	16.4834
1100.5	17.2135
1101	17.8027
1101.5	17.7039
1102	16.943
1102.5	15.8677
1103	15.139
1103.5	15.1439
1104	15.9341
1104.5	16.946
1105	17.5325
1105.5	17.1538
1106	16.1201
1106.5	15.0561
1107	14.8144
1107.5	15.6239
1108	17.2976
1108.5	19.0583
1109	20.2348
1109.5	20.4388
1110	19.9331
1110.5	19.1309
1111	18.4057
1111.5	17.8849
1112	17.5159
1112.5	17.1652
1113	16.7446
1113.5	16.2285
1114	15.6293
1114.5	14.9587
1115	14.2208
1115.5	13.4887
1116	12.8776
1116.5	12.5565
1117	12.5277
1117.5	12.7175
1118	12.9142
1118.5	12.9371
1119	12.7359
1119.5	12.522
1120	12.5756
1120.5	13.137
1121	13.9714
1121.5	14.6846
1122	14.7779
1122.5	14.2077
1123	13.2632
1123.5	12.6189
1124	12.7516
1124.5	13.8243
1125	15.1707
1125.5	15.9691
1126	15.4435
1126.5	13.8826
1127	11.9054
1127.5	10.482
1128	10.1539
1128.5	11.0896
1129	12.6895
1129.5	14.2315
1130	15.0345
1130.5	15.0316
1131	14.4118
1131.5	13.6011
1132	12.9909
1132.5	12.8064
1133	13.0954
1133.5	13.7482
1134	14.6617
1134.5	15.6006
1135	16.3299
1135.5	16.5089
1136	16.0762
1136.5	15.0427
1137	13.6825
1137.5	12.3977
1138	11.5566
1138.5	11.3478
1139	11.7483
1139.5	12.7281
1140	13.9832
1140.5	15.24
1141	16.1317
1141.5	16.4477
1142	16.0832
1142.5	15.2562
1143	14.3774
1143.5	13.8522
1144	13.8282
1144.5	14.1868
1145	14.6566
1145.5	14.9301
1146	14.872
1146.5	14.5017
1147	14.0006
1147.5	13.5112
1148	13.1481
1148.5	12.9886
1149	13.1639
1149.5	13.6523
1150	14.3489
1150.5	15.015
1151	15.4136
1151.5	15.4273
1152	15.1822
1152.5	14.9951
1153	15.1322
1153.5	15.5833
1154	16.1209
1154.5	16.3719
1155	16.1668
1155.5	15.5283
1156	14.7105
1156.5	14.0596
1157	13.7995
1157.5	13.8572
1158	13.9752
1158.5	13.9173
1159	13.6665
1159.5	13.3916
1160	13.4002
1160.5	13.7942
1161	14.4949
1161.5	15.1675
1162	15.4494
1162.5	15.104
1163	14.2702
1163.5	13.2394
1164	12.3226
1164.5	11.6936
1165	11.4109
1165.5	11.5007
1166	11.8762
1166.5	12.5155
1167	13.2971
1167.5	13.9935
1168	14.2787
1168.5	13.9644
1169	13.0424
1169.5	11.6723
1170	10.3907
1170.5	9.71708
1171	10.0895
1171.5	11.3509
1172	13.0558
1172.5	14.406
1173	14.9095
1173.5	14.315
1174	13.1507
1174.5	11.9677
1175	11.254
1175.5	11.0007
1176	11.0362
1176.5	11.1888
1177	11.5316
1177.5	12.3847
1178	13.8209
1178.5	15.562
1179	16.9488
1179.5	17.4688
1180	16.9226
1180.5	15.5752
1181	14.1158
1181.5	13.0215
1182	12.3561
1182.5	11.8935
1183	11.4656
1183.5	11.108
1184	11.0204
1184.5	11.4512
1185	12.2689
1185.5	13.2294
1186	13.9988
1186.5	14.4838
1187	14.7373
1187.5	14.8975
1188	14.9775
1188.5	14.7955
1189	14.237
1189.5	13.284
1190	12.1113
1190.5	11.0496
1191	10.3409
1191.5	10.0339
1192	10.0103
1192.5	10.1719
1193	10.382
1193.5	10.5324
1194	10.4486
1194.5	10.0611
1195	9.39458
1195.5	8.76136
1196	8.5577
1196.5	9.16194
1197	10.5162
1197.5	12.2115
1198	13.6386
1198.5	14.3668
1199	14.2599
1199.5	13.446
1200	12.4785
1200.5	11.734
1201	11.4544
1201.5	11.6044
1202	12.0342
1202.5	12.3885
1203	12.3661
1203.5	11.6786
1204	10.5743
1204.5	9.48067
1205	8.95056
1205.5	9.18472
1206	10.1555
1206.5	11.4002
1207	12.4231
1207.5	12.7969
1208	12.5434
1208.5	11.8701
1209	11.0778
1209.5	10.4435
1210	10.1508
1210.5	10.2822
1211	10.738
1211.5	11.362
1212	11.8689
1212.5	12.0259
1213	11.6487
1213.5	10.9158
1214	10.0382
1214.5	9.31593
1215	8.93258
1215.5	8.97995
1216	9.33343
1216.5	9.74791
1217	9.97505
1217.5	9.96485
1218	9.83344
1218.5	9.83621
1219	10.146
1219.5	10.8046
1220	11.6405
1220.5	12.3599
1221	12.6615
1221.5	12.4713
1222	11.8847
1222.5	11.0785
1223	10.3997
1223.5	10.1575
1224	10.6122
1224.5	11.5561
1225	12.5359
1225.5	12.8882
1226	12.3338
1226.5	10.9045
1227	9.27968
1227.5	8.08975
1228	7.85465
1228.5	8.31028
1229	9.09516
1229.5	9.8293
1230	10.4686
1230.5	11.1837
1231	12.1095
1231.5	13.1669
1232	14.0787
1232.5	14.5795
1233	14.4877
1233.5	13.707
1234	12.4559
1234.5	10.9156
1235	9.45148
1235.5	8.43962
1236	8.25664
1236.5	8.79942
1237	9.676
1237.5	10.3181
1238	10.5239
1238.5	10.4538
1239	10.5459
1239.5	11.0582
1240	11.915
1240.5	12.6476
1241	12.8203
1241.5	12.2425
1242	11.3227
1242.5	10.4712
1243	10.0288
1243.5	9.9637
1244	10.197
1244.5	10.675
1245	11.428
1245.5	12.5342
1246	13.8186
1246.5	14.9445
1247	15.3658
1247.5	14.9252
1248	13.6666
1248.5	11.9721
1249	10.4806
1249.5	9.65264
1250	9.53576
1250.5	9.78138
1251	9.92624
1251.5	9.6549
1252	9.00348
1252.5	8.35226
1253	8.17966
1253.5	8.66427
1254	9.55456
1254.5	10.3003
1255	10.4258
1255.5	9.93294
1256	9.24348
1256.5	9.0534
1257	9.65538
1257.5	10.8982
1258	12.2655
1258.5	13.2047
1259	13.4408
1259.5	13.135
1260	12.6993
1260.5	12.4369
1261	12.3062
1261.5	12.105
1262	11.6683
1262.5	11.1842
1263	11.0114
1263.5	11.514
1264	12.5781
1264.5	13.7545
1265	14.4755
1265.5	14.5723
1266	14.2117
1266.5	13.92
1267	13.975
1267.5	14.2703
1268	14.2949
1268.5	13.6545
1269	12.388
1269.5	10.9679
1270	9.91665
1270.5	9.45618
1271	9.47376
1271.5	9.78134
1272	10.1709
1272.5	10.6523
1273	11.2383
1273.5	11.8032
1274	12.1419
1274.5	12.1565
1275	11.9785
1275.5	11.8574
1276	11.9002
1276.5	11.9922
1277	11.8964
1277.5	11.5923
1278	11.2984
1278.5	11.4066
1279	12.0244
1279.5	12.9196
1280	13.6559
1280.5	14.0826
1281	14.5158
1281.5	15.5825
1282	17.7439
1282.5	20.9363
1283	24.0843
1283.5	26.0575
1284	26.1062
1284.5	24.4146
1285	21.4384
1285.5	18.2135
1286	15.4419
1286.5	13.5762
1287	12.45
1287.5	11.9544
1288	11.9147
1288.5	12.0889
1289	12.315
1289.5	12.4536
1290	12.4852
1290.5	12.4682
1291	12.5013
1291.5	12.6324
1292	12.8575
1292.5	13.1089
1293	13.3263
1293.5	13.4526
1294	13.4469
1294.5	13.2413
1295	12.8656
1295.5	12.4189
1296	12.078
1296.5	11.9395
1297	11.9586
1297.5	11.9547
1298	11.7699
1298.5	11.35
1299	10.8186
1299.5	10.3403
1300	10.0526
1300.5	9.95264
1301	10.0693
1301.5	10.5309
1302	11.3299
1302.5	12.3542
1303	13.2136
1303.5	13.5263
1304	13.1389
1304.5	12.4391
1305	11.9343
1305.5	12.0603
1306	12.5782
1306.5	12.9787
1307	12.7171
1307.5	11.9374
1308	11.1477
1308.5	10.9784
1309	11.5758
1309.5	12.6568
1310	13.4838
1310.5	13.6385
1311	13.1
1311.5	12.4161
1312	12.0272
1312.5	12.1518
1313	12.5993
1313.5	13.0787
1314	13.3705
1314.5	13.4719
1315	13.4643
1315.5	13.4587
1316	13.4765
1316.5	13.4874
1317	13.479
1317.5	13.5015
1318	13.6358
1318.5	13.8949
1319	14.1818
1319.5	14.2606
1320	13.8923
1320.5	12.9204
1321	11.6602
1321.5	10.5224
1322	10.0343
1322.5	10.3774
1323	11.5845
1323.5	13.2096
1324	14.7427
1324.5	15.717
1325	16.0049
1325.5	15.6058
1326	14.6386
1326.5	13.5433
1327	12.7711
1327.5	12.6975
1328	13.3116
1328.5	14.3696
1329	15.2689
1329.5	15.5252
1330	14.8874
1330.5	13.9239
1331	13.2066
1331.5	13.2338
1332	13.8715
1332.5	14.6584
1333	14.9252
1333.5	14.5039
1334	13.6301
1334.5	12.9497
1335	12.8911
1335.5	13.5897
1336	14.5328
1336.5	15.2282
1337	15.4353
1337.5	15.327
1338	15.1161
1338.5	14.8696
1339	14.3902
1339.5	13.3179
1340	11.8183
1340.5	10.3287
1341	9.57121
1341.5	9.84091
1342	11.1132
1342.5	12.736
1343	13.9865
1343.5	14.4008
1344	14.1272
1344.5	13.4923
1345	12.8389
1345.5	12.3576
1346	12.0586
1346.5	11.9045
1347	11.8694
1347.5	11.9945
1348	12.2824
1348.5	12.6952
1349	13.1672
1349.5	13.6048
1350	13.9206
1350.5	13.9921
1351	13.8045
1351.5	13.3977
1352	13.0128
1352.5	12.9086
1353	13.3047
1353.5	14.079
1354	14.9356
1354.5	15.4052
1355	15.3067
1355.5	14.6962
1356	13.8562
1356.5	13.1401
1357	12.7814
1357.5	12.7919
1358	13.0116
1358.5	13.2659
1359	13.431
1359.5	13.4565
1360	13.3042
1360.5	13.0057
1361	12.5989
1361.5	12.2012
1362	11.952
1362.5	12.0059
1363	12.3435
1363.5	12.7956
1364	13.0346
1364.5	12.9124
1365	12.4892
1365.5	12.0958
1366	12.0815
1366.5	12.6126
1367	13.3526
1367.5	13.7862
1368	13.5014
1368.5	12.7171
1369	11.9405
1369.5	11.8848
1370	12.6289
1370.5	13.8521
1371	14.9808
1371.5	15.6745
1372	15.9187
1372.5	16.0714
1373	16.4029
1373.5	16.8899
1374	17.2039
1374.5	17.0238
1375	16.1423
1375.5	14.8144
1376	13.4246
1376.5	12.3921
1377	11.8994
1377.5	12.0377
1378	12.5612
1378.5	13.1893
1379	13.6175
1379.5	13.733
1380	13.5105
1380.5	13.062
1381	12.6326
1381.5	12.5249
1382	12.8932
1382.5	13.673
1383	14.6794
1383.5	15.6431
1384	16.5813
1384.5	17.9993
1385	20.3865
1385.5	24.0537
1386	28.51
1386.5	32.6012
1387	34.6606
1387.5	34.0891
1388	31.2281
1388.5	26.6785
1389	21.8271
1389.5	17.4946
1390	14.3671
1390.5	12.4026
1391	11.6517
1391.5	11.7807
1392	12.2768
1392.5	12.6028
1393	12.4562
1393.5	11.9272
1394	11.3089
1394.5	10.8941
1395	10.7897
1395.5	10.9345
1396	11.2005
1396.5	11.584
1397	12.092
1397.5	12.6845
1398	13.2615
1398.5	13.7428
1399	14.1371
1399.5	14.4701
1400	14.7025
1400.5	14.6615
1401	14.1938
1401.5	13.4044
1402	12.6264
1402.5	12.2497
1403	12.4572
1403.5	13.2055
1404	13.9981
1404.5	14.416
1405	14.2789
1405.5	13.8334
1406	13.4978
1406.5	13.6945
1407	14.4652
1407.5	15.4765
1408	16.1257
1408.5	15.9792
1409	14.8793
1409.5	13.3875
1410	12.171
1410.5	11.6922
1411	11.8807
1411.5	12.4266
1412	12.8454
1412.5	12.9663
1413	12.907
1413.5	12.9337
1414	13.1414
1414.5	13.3956
1415	13.4478
1415.5	13.1733
1416	12.7218
1416.5	12.3278
1417	12.1382
1417.5	11.9778
1418	11.5554
1418.5	10.6899
1419	9.68177
1419.5	9.05327
1420	9.32555
1420.5	10.3937
1421	11.6766
1421.5	12.4485
1422	12.4286
1422.5	11.7733
1423	11.256
1423.5	11.3393
1424	12.0086
1424.5	12.7423
1425	13.0437
1425.5	12.7402
1426	12.1216
1426.5	11.5618
1427	11.2809
1427.5	11.305
1428	11.5965
1428.5	12.0012
1429	12.3823
1429.5	12.548
1430	12.3828
1430.5	11.8616
1431	11.2745
1431.5	10.9746
1432	11.2823
1432.5	12.0518
1433	13.0132
1433.5	13.737
1434	14.0089
1434.5	13.7356
1435	13.0175
1435.5	12.0614
1436	11.0849
1436.5	10.3243
1437	9.91509
1437.5	9.97894
1438	10.3718
1438.5	10.9682
1439	11.5726
1439.5	12.0506
1440	12.3289
1440.5	12.451
1441	12.5275
1441.5	12.706
1442	13.0301
1442.5	13.4536
1443	13.8363
1443.5	14.0304
1444	13.9074
1444.5	13.4565
1445	12.7669
1445.5	11.946
1446	11.1973
1446.5	10.6891
1447	10.5007
1447.5	10.4236
1448	10.2385
1448.5	9.82364
1449	9.40649
1449.5	9.43823
1450	10.177
1450.5	11.4278
1451	12.6225
1451.5	13.1103
1452	12.7559
1452.5	11.931
1453	11.3691
1453.5	11.5599
1454	12.4942
1454.5	13.5565
1455	14.1469
1455.5	14.058
1456	13.4927
1456.5	12.9343
1457	12.8236
1457.5	13.2832
1458	14.1257
1458.5	14.8892
1459	15.0848
1459.5	14.5801
1460	13.6032
1460.5	12.5007
1461	11.6445
1461.5	11.1834
1462	11.0355
1462.5	10.9507
1463	10.8078
1463.5	10.5674
1464	10.2212
1464.5	9.66594
1465	8.82434
1465.5	7.76302
1466	6.80106
1466.5	6.40457
1467	6.83907
1467.5	8.04929
1468	9.47817
1468.5	10.6042
1469	11.0962
1469.5	11.1414
1470	10.9949
1470.5	10.9017
1471	10.9191
1471.5	11.0323
1472	11.203
1472.5	11.4384
1473	11.6972
1473.5	11.894
1474	12.0199
1474.5	12.2585
1475	12.8047
1475.5	13.7269
1476	14.6101
1476.5	14.9091
1477	14.2295
1477.5	12.9403
1478	11.591
1478.5	10.7632
1479	10.4871
1479.5	10.491
1480	10.4887
1480.5	10.481
1481	10.6678
1481.5	10.982
1482	11.1263
1482.5	10.77
1483	10.0493
1483.5	9.48298
1484	9.54069
1484.5	10.0872
1485	10.4877
1485.5	10.097
1486	8.89083
1486.5	7.67589
1487	7.35591
1487.5	8.35693
1488	10.2182
1488.5	11.8457
1489	12.3865
1489.5	11.8978
1490	10.9733
1490.5	10.4296
1491	10.5767
1491.5	11.2825
1492	12.2008
1492.5	13.0129
1493	13.5799
1493.5	13.9057
1494	13.9907
1494.5	13.7641
1495	13.3364
1495.5	12.9286
1496	12.8022
1496.5	12.913
1497	13.0401
1497.5	12.8682
1498	12.4049
1498.5	11.9602
1499	11.9023
1499.5	12.31
1500	12.9754
1500.5	13.4596
1501	13.6162
1501.5	13.5326
1502	13.419
1502.5	13.2722
1503	12.9373
1503.5	12.3778
1504	11.751
1504.5	11.334
1505	11.1591
1505.5	10.9442
1506	10.4034
1506.5	9.51846
1507	8.67633
1507.5	8.27934
1508	8.46906
1508.5	9.00119
1509	9.60669
1509.5	10.2517
1510	11.0229
1510.5	11.8625
1511	12.4015
1511.5	12.319
1512	11.8187
1512.5	11.4535
1513	11.5635
1513.5	12.1455
1514	12.6714
1514.5	12.6747
1515	12.0574
1515.5	11.3192
1516	10.949
1516.5	11.2588
1517	12.0148
1517.5	12.5927
1518	12.576
1518.5	11.9555
1519	11.2756
1519.5	11.3615
1520	12.3673
1520.5	13.6874
1521	14.74
1521.5	15.1348
1522	15.1351
1522.5	14.9235
1523	14.5196
1523.5	13.784
1524	12.8813
1524.5	12.2699
1525	12.3669
1525.5	13.2796
1526	14.3522
1526.5	14.821
1527	14.4446
1527.5	13.5234
1528	12.8178
1528.5	12.6978
1529	12.8905
1529.5	12.8856
1530	12.291
1530.5	11.3771
1531	10.7596
1531.5	10.8703
1532	11.7813
1532.5	12.9321
1533	13.6112
1533.5	13.396
1534	12.2402
1534.5	10.7087
1535	9.69824
1535.5	9.90122
1536	11.5025
1536.5	13.9006
1537	16.0524
1537.5	17.046
1538	16.755
1538.5	15.7902
1539	15.0325
1539.5	15.0878
1540	15.882
1540.5	16.8659
1541	17.5188
1541.5	17.6151
1542	17.198
1542.5	16.5044
1543	15.6758
1543.5	14.7378
1544	13.6922
1544.5	12.6139
1545	11.6571
1545.5	10.9568
1546	10.6014
1546.5	10.6295
1547	10.9114
1547.5	11.3136
1548	11.7477
1548.5	12.165
1549	12.5326
1549.5	12.7905
1550	12.8478
1550.5	12.6342
1551	12.1855
1551.5	11.7872
1552	11.7473
1552.5	12.2884
1553	13.5
1553.5	15.1253
1554	16.7244
1554.5	17.8995
1555	18.31
1555.5	17.8747
1556	16.7618
1556.5	15.3487
1557	13.9918
1557.5	12.9544
1558	12.324
1558.5	12.0677
1559	12.0573
1559.5	12.1531
1560	12.2203
1560.5	12.1933
1561	12.1623
1561.5	12.387
1562	13.0422
1562.5	14.0845
1563	15.1582
1563.5	15.6634
1564	15.3848
1564.5	14.4942
1565	13.4051
1565.5	12.5955
1566	12.1339
1566.5	11.8635
1567	11.6928
1567.5	11.7295
1568	12.2356
1568.5	13.1404
1569	14.1086
1569.5	14.6653
1570	14.4461
1570.5	13.6617
1571	12.8065
1571.5	12.2639
1572	12.1448
1572.5	12.1231
1573	11.783
1573.5	10.9688
1574	9.89336
1574.5	9.13622
1575	9.31533
1575.5	10.6475
1576	12.7131
1576.5	14.5949
1577	15.5092
1577.5	15.1271
1578	14.0304
1578.5	13.2779
1579	13.4464
1579.5	14.4423
1580	15.5309
1580.5	15.8198
1581	15.2876
1581.5	14.4028
1582	13.7564
1582.5	13.6516
1583	13.6233
1583.5	13.2587
1584	12.5025
1584.5	11.7527
1585	11.5896
1585.5	11.9965
1586	12.518
1586.5	12.6105
1587	12.1706
1587.5	11.7272
1588	11.913
1588.5	12.8776
1589	14.0393
1589.5	14.5208
1590	13.7062
1590.5	11.8488
1591	9.90735
1591.5	8.82452
1592	9.07625
1592.5	10.6101
1593	12.721
1593.5	14.623
1594	15.8878
1594.5	16.3709
1595	16.1413
1595.5	15.5278
1596	14.6863
1596.5	13.6361
1597	12.3683
1597.5	11.0755
1598	10.2025
1598.5	10.1318
1599	10.9826
1599.5	12.3696
1600	13.5744
1600.5	14.1032
1601	14.0091
1601.5	13.7399
1602	13.7137
1602.5	13.9644
1603	14.1442
1603.5	13.868
1604	13.207
1604.5	12.4922
1605	12.0897
1605.5	12.1227
1606	12.2168
1606.5	12.0472
1607	11.5383
1607.5	10.9763
1608	11.0074
1608.5	11.921
1609	13.5427
1609.5	15.2523
1610	16.1517
1610.5	15.6924
1611	14.2132
1611.5	12.5648
1612	11.7525
1612.5	12.1368
1613	13.3921
1613.5	14.6402
1614	15.0938
1614.5	14.688
1615	13.7913
1615.5	12.9481
1616	12.645
1616.5	12.9052
1617	13.5283
1617.5	14.2187
1618	14.6379
1618.5	14.5758
1619	14.2738
1619.5	14.1514
1620	14.5856
1620.5	15.5101
1621	16.1606
1621.5	15.7096
1622	13.9475
1622.5	11.5763
1623	9.89406
1623.5	9.81564
1624	11.2609
1624.5	13.0266
1625	13.9771
1625.5	13.8432
1626	13.1336
1626.5	12.8461
1627	13.2968
1627.5	13.9759
1628	14.2122
1628.5	13.6702
1629	12.8881
1629.5	12.8118
1630	13.7854
1630.5	15.3844
1631	16.521
1631.5	16.3563
1632	14.8788
1632.5	12.9997
1633	11.7905
1633.5	11.6422
1634	12.2698
1634.5	12.9704
1635	13.0761
1635.5	12.5951
1636	11.8424
1636.5	11.1641
1637	10.7793
1637.5	10.651
1638	10.6381
1638.5	10.653
1639	10.6522
1639.5	10.639
1640	10.6835
1640.5	10.91
1641	11.425
1641.5	12.1845
1642	12.8881
1642.5	13.1081
1643	12.4203
1643.5	10.8763
1644	9.11199
1644.5	7.8659
1645	7.72151
1645.5	8.8522
1646	10.4565
1646.5	11.6774
1647	12.0476
1647.5	11.6357
1648	11.092
1648.5	11.0137
1649	11.4432
1649.5	11.975
1650	12.1171
1650.5	11.7865
1651	11.303
1651.5	11.2291
1652	11.8847
1652.5	13.0738
1653	14.3935
1653.5	15.3896
1654	15.6403
1654.5	15.1797
1655	14.2663
1655.5	13.2446
1656	12.4663
1656.5	12.0767
1657	12.0129
1657.5	12.1354
1658	12.4444
1658.5	13.0641
1659	14.0383
1659.5	15.1904
1660	16.0369
1660.5	16.1259
1661	15.4438
1661.5	14.2573
1662	12.9586
1662.5	11.8689
1663	11.0403
1663.5	10.443
1664	10.1319
1664.5	10.2797
1665	10.9415
1665.5	12.0401
1666	13.2994
1666.5	14.3409
1667	14.8711
1667.5	14.7617
1668	14.054
1668.5	12.9816
1669	11.9884
1669.5	11.3548
1670	11.1573
1670.5	11.3222
1671	11.717
1671.5	12.2951
1672	13.0516
1672.5	13.8955
1673	14.5714
1673.5	14.8255
1674	14.5502
1674.5	13.8333
1675	12.951
1675.5	12.1414
1676	11.5147
1676.5	11.1244
1677	11.0026
1677.5	11.0996
1678	11.288
1678.5	11.4828
1679	11.7012
1679.5	12.0389
1680	12.4909
1680.5	12.8342
1681	12.7125
1681.5	12.0025
1682	11.037
1682.5	10.3094
1683	10.2015
1683.5	10.6792
1684	11.1808
1684.5	11.363
1685	11.2347
1685.5	11.1181
1686	11.2968
1686.5	11.7032
1687	11.9788
1687.5	11.8076
1688	11.2798
1688.5	10.7762
1689	10.7081
1689.5	11.3136
1690	12.2852
1690.5	13.0415
1691	13.1541
1691.5	12.5304
1692	11.6144
1692.5	11.1494
1693	11.6277
1693.5	12.8915
1694	14.2724
1694.5	15.1082
1695	15.2347
1695.5	14.9732
1696	14.928
1696.5	15.2076
1697	15.4036
1697.5	14.9885
1698	13.6566
1698.5	11.7511
1699	9.96837
1699.5	8.86291
1700	8.6141
1700.5	8.99493
1701	9.63121
1701.5	10.2289
1702	10.5885
1702.5	10.6632
1703	10.5931
1703.5	10.5577
1704	10.7149
1704.5	11.1034
1705	11.5374
1705.5	11.7561
1706	11.5878
1706.5	10.9875
1707	10.0795
1707.5	8.99406
1708	7.87645
1708.5	6.98995
1709	6.73414
1709.5	7.41156
1710	9.08612
1710.5	11.4242
1711	13.5899
1711.5	14.7299
1712	14.4102
1712.5	13.049
1713	11.6849
1713.5	11.2557
1714	12.0306
1714.5	13.5193
1715	14.5232
1715.5	14.247
1716	12.8798
1716.5	11.2299
1717	10.3235
1717.5	10.5508
1718	11.566
1718.5	12.659
1719	13.2585
1719.5	13.3501
1720	13.1889
1720.5	12.9807
1721	12.7872
1721.5	12.5743
1722	12.3588
1722.5	12.1747
1723	11.9661
1723.5	11.5417
1724	10.7699
1724.5	9.71952
1725	8.72178
1725.5	8.30835
1726	8.68588
1726.5	9.74086
1727	11.0755
1727.5	12.0998
1728	12.3919
1728.5	11.9845
1729	11.3818
1729.5	11.213
1730	11.6952
1730.5	12.3759
1731	12.4759
1731.5	11.319
1732	9.14297
1732.5	7.14757
1733	6.33336
1733.5	7.05484
1734	8.709
1734.5	10.1404
1735	10.6147
1735.5	10.1296
1736	9.38658
1736.5	9.03844
1737	9.23838
1737.5	9.73811
1738	10.0498
1738.5	9.81099
1739	9.06158
1739.5	8.16841
1740	7.63246
1740.5	7.84534
1741	8.85358
1741.5	10.438
1742	12.1578
1742.5	13.4138
1743	13.8319
1743.5	13.2907
1744	12.0161
1744.5	10.7014
1745	10.1784
1745.5	10.8819
1746	12.4712
1746.5	13.7474
1747	13.7279
1747.5	12.322
1748	10.2637
1748.5	8.7484
1749	8.47559
1749.5	9.16957
1750	10.1004
1750.5	10.7713
1751	11.1552
1751.5	11.3705
1752	11.3174
1752.5	10.6897
1753	9.39545
1753.5	8.09781
1754	7.5646
1754.5	8.20731
1755	9.68876
1755.5	11.056
1756	11.6532
1756.5	11.3991
1757	10.8167
1757.5	10.3506
1758	9.97639
1758.5	9.50505
1759	8.938
1759.5	8.67518
1760	9.09127
1760.5	10.0518
1761	10.7867
1761.5	10.5278
1762	9.32093
1762.5	7.91341
1763	7.35719
1763.5	8.25418
1764	10.0151
1764.5	11.5608
1765	12.1698
1765.5	11.8941
1766	11.5163
1766.5	11.6089
1767	12.195
1767.5	12.6093
1768	12.08
1768.5	10.5524
1769	8.57272
1769.5	7.05868
1770	6.66326
1770.5	7.33494
1771	8.5196
1771.5	9.41726
1772	9.60264
1772.5	9.35001
1773	9.18001
1773.5	9.53666
1774	10.4518
1774.5	11.4843
1775	12.1579
1775.5	12.1747
1776	11.5959
1776.5	10.7025
1777	9.70866
1777.5	8.79965
1778	8.17936
1778.5	7.95493
1779	8.0615
1779.5	8.24994
1780	8.2662
1780.5	8.15283
1781	8.16977
1781.5	8.49093
1782	8.96405
1782.5	9.0622
1783	8.42152
1783.5	7.26223
1784	6.31196
1784.5	6.30581
1785	7.23976
1785.5	8.58871
1786	9.67656
1786.5	10.1226
1787	10.2858
1787.5	10.7178
1788	11.6552
1788.5	12.817
1789	13.5853
1789.5	13.6124
1790	13.0074
1790.5	12.2999
1791	12.0441
1791.5	12.1733
1792	12.1579
1792.5	11.4872
1793	10.2763
1793.5	9.31362
1794	9.38485
1794.5	10.7531
1795	12.7597
1795.5	14.2718
1796	14.7801
1796.5	14.4227
1797	13.6418
1797.5	12.7133
1798	11.5931
1798.5	10.2946
1799	9.19495
1799.5	8.84063
1800	9.2051
1800.5	9.74676
1801	9.78389
1801.5	9.22507
1802	8.67377
1802.5	8.80001
1803	9.79058
1803.5	10.9218
1804	11.2577
1804.5	10.5392
1805	9.22668
1805.5	8.25105
1806	8.17514
1806.5	8.9473
1807	10.0915
1807.5	11.0118
1808	11.4864
1808.5	11.6506
1809	11.6845
1809.5	11.671
1810	11.6222
1810.5	11.5969
1811	11.6877
1811.5	11.8639
1812	11.7504
1812.5	10.9232
1813	9.38358
1813.5	7.70618
1814	6.82472
1814.5	7.11915
1815	8.2772
1815.5	9.58797
1816	10.5244
1816.5	11.2828
1817	12.192
1817.5	13.1108
1818	13.3013
1818.5	12.2947
1819	10.3712
1819.5	8.37923
1820	7.23655
1820.5	7.10246
1821	7.54746
1821.5	8.17552
1822	8.95561
1822.5	9.97256
1823	11.0382
1823.5	11.7685
1824	11.8466
1824.5	11.3404
1825	10.6594
1825.5	10.1442
1826	9.94231
1826.5	10.0688
1827	10.4282
1827.5	10.8695
1828	11.2053
1828.5	11.3664
1829	11.6046
1829.5	12.2128
1830	13.1544
1830.5	13.7866
1831	13.436
1831.5	12.1804
1832	10.7615
1832.5	10.132
1833	10.5898
1833.5	11.5271
1834	12.1842
1834.5	12.1793
1835	11.7788
1835.5	11.3242
1836	10.7413
1836.5	9.76305
1837	8.31619
1837.5	6.83264
1838	5.81042
1838.5	5.52529
1839	5.93627
1839.5	6.74044
1840	7.74248
1840.5	8.8273
1841	9.84261
1841.5	10.612
1842	11.0455
1842.5	11.111
1843	10.7404
1843.5	9.8254
1844	8.42106
1844.5	6.88471
1845	5.83978
1845.5	5.8156
1846	6.73523
1846.5	8.18844
1847	9.66046
1847.5	10.7188
1848	11.1991
1848.5	11.0407
1849	10.3076
1849.5	9.34287
1850	8.73971
1850.5	8.82304
1851	9.46885
1851.5	10.1024
1852	10.0924
1852.5	9.32273
1853	8.14376
1853.5	7.16292
1854	6.87665
1854.5	7.306
1855	8.1526
1855.5	8.99259
1856	9.4135
1856.5	9.34761
1857	9.05954
1857.5	9.02215
1858	9.66225
1858.5	10.7939
1859	11.8558
1859.5	12.2503
1860	11.812
1860.5	11.0295
1861	10.4085
1861.5	10.173
1862	10.211
1862.5	10.2241
1863	10.0495
1863.5	9.67442
1864	9.17156
1864.5	8.71093
1865	8.58184
1865.5	9.07941
1866	10.3119
1866.5	11.9306
1867	13.2173
1867.5	13.638
1868	13.122
1868.5	12.1652
1869	11.5034
1869.5	11.4135
1870	11.6496
1870.5	11.6094
1871	11.0042
1871.5	10.0795
1872	9.34034
1872.5	9.23996
1873	9.76259
1873.5	10.5034
1874	11.0479
1874.5	11.1977
1875	11.1098
1875.5	11.0708
1876	11.1574
1876.5	11.1879
1877	10.8546
1877.5	10.1154
1878	9.21976
1878.5	8.577
1879	8.5535
1879.5	9.06528
1880	9.79944
1880.5	10.4282
1881	10.7918
1881.5	10.9995
1882	11.1669
1882.5	11.2833
1883	11.2164
1883.5	10.8069
1884	9.97134
1884.5	8.70971
1885	7.17469
1885.5	5.79301
1886	5.06629
1886.5	5.27173
1887	6.25657
1887.5	7.39532
1888	8.23242
1888.5	8.8189
1889	9.4738
1889.5	10.3843
1890	11.2574
1890.5	11.7324
1891	11.7549
1891.5	11.6707
1892	11.8276
1892.5	12.0934
1893	12.0745
1893.5	11.6082
1894	11.0623
1894.5	10.7813
1895	10.6604
1895.5	10.2425
1896	9.27309
1896.5	8.21664
1897	7.76186
1897.5	8.25722
1898	9.30174
1898.5	10.042
1899	10.0483
1899.5	9.52075
1900	9.07697
1900.5	9.23893
1901	10.1473
1901.5	11.5632
1902	12.8088
1902.5	13.0111
1903	11.8211
1903.5	9.70694
1904	7.91195
1904.5	7.61773
1905	8.6674
1905.5	9.87378
1906	9.96528
1906.5	8.83703
1907	7.67397
1907.5	7.54844
1908	8.69006
1908.5	10.2594
1909	11.1275
1909.5	10.8602
1910	9.69013
1910.5	8.21719
1911	6.98606
1911.5	6.27542
1912	6.27955
1912.5	7.10584
1913	8.52237
1913.5	10.016
1914	11.0248
1914.5	11.1692
1915	10.5807
1915.5	9.78755
1916	9.26033
1916.5	9.17468
1917	9.27677
1917.5	9.20525
1918	8.93992
1918.5	8.86487
1919	9.53765
1919.5	10.838
1920	12.1178
1920.5	12.6242
1921	12.0123
1921.5	10.8653
1922	9.95132
1922.5	9.69146
1923	9.93646
1923.5	10.1245
1924	9.93926
1924.5	9.42703
1925	8.83373
1925.5	8.37534
1926	8.15578
1926.5	8.31018
1927	9.005
1927.5	10.2222
1928	11.5406
1928.5	12.4533
1929	12.6222
1929.5	12.0358
1930	11.0609
1930.5	9.94276
1931	8.79241
1931.5	7.71048
1932	6.93656
1932.5	6.73352
1933	7.18853
1933.5	8.06625
1934	8.91401
1934.5	9.461
1935	9.6622
1935.5	9.62309
1936	9.5497
1936.5	9.68141
1937	10.2212
1937.5	11.2013
1938	12.2645
1938.5	12.7985
1939	12.4149
1939.5	11.2105
1940	9.80728
1940.5	8.88159
1941	8.61772
1941.5	8.81656
1942	9.23549
1942.5	9.76663
1943	10.3126
1943.5	10.6196
1944	10.364
1944.5	9.60874
1945	8.8869
1945.5	8.73552
1946	9.25252
1946.5	9.81992
1947	9.74083
1947.5	8.87481
1948	7.69085
1948.5	6.93477
1949	6.85049
1949.5	7.19522
1950	7.64211
1950.5	8.04909
1951	8.46292
1951.5	8.89712
1952	9.2898
1952.5	9.55544
1953	9.63317
1953.5	9.4335
1954	8.88569
1954.5	8.12172
1955	7.64434
1955.5	7.88754
1956	8.78163
1956.5	9.63241
1957	9.56066
1957.5	8.58514
1958	7.52782
1958.5	7.26915
1959	7.94818
1959.5	8.76358
1960	9.12535
1960.5	9.11646
1961	9.41828
1961.5	10.3609
1962	11.5249
1962.5	12.2157
1963	12.1024
1963.5	11.7095
1964	11.6489
1964.5	11.9938
1965	12.1807
1965.5	11.5731
1966	10.2813
1966.5	8.94508
1967	8.20173
1967.5	8.025
1968	7.82439
1968.5	7.2385
1969	6.46746
1969.5	6.25138
1970	7.01054
1970.5	8.48613
1971	9.93659
1971.5	10.592
1972	10.4388
1972.5	9.95689
1973	9.62973
1973.5	9.60439
1974	9.64838
1974.5	9.61344
1975	9.6024
1975.5	9.83524
1976	10.3081
1976.5	10.7034
1977	10.6998
1977.5	10.2216
1978	9.56545
1978.5	9.19115
1979	9.41019
1979.5	10.2611
1980	11.3956
1980.5	12.1755
1981	12.1495
1981.5	11.2905
1982	10.1151
1982.5	9.37572
1983	9.34768
1983.5	9.75339
1984	9.98057
1984.5	9.68797
1985	9.11666
1985.5	8.71189
1986	8.72871
1986.5	8.97614
1987	9.22163
1987.5	9.67769
1988	11.0211
1988.5	13.9003
1989	17.9133
1989.5	21.8857
1990	24.364
1990.5	24.2229
1991	21.8932
1991.5	18.3792
1992	14.7982
1992.5	12.0197
1993	10.3289
1993.5	9.6686
1994	9.75957
1994.5	10.0974
1995	10.1251
1995.5	9.73086
1996	9.26415
1996.5	9.25044
1997	9.7651
1997.5	10.2173
1998	10.022
1998.5	9.15536
1999	8.39328
1999.5	8.472
2000	9.33789
2000.5	10.3132
2001	10.682
2001.5	10.4991
2002	10.1475
2002.5	9.82243
2003	9.32921
2003.5	8.54403
2004	7.84449
2004.5	7.84137
2005	8.83763
2005.5	10.2385
2006	11.1695
2006.5	11.2272
2007	10.6967
2007.5	10.2623
2008	10.1851
2008.5	10.2444
2009	10.1055
2009.5	9.69729
2010	9.23707
2010.5	8.8297
2011	8.40242
2011.5	7.8988
2012	7.57185
2012.5	7.78927
2013	8.70093
2013.5	10.0039
2014	11.0084
2014.5	11.2675
2015	10.7428
2015.5	9.79309
2016	9.04344
2016.5	8.94686
2017	9.62974
2017.5	10.8231
2018	11.8688
2018.5	12.2171
2019	11.7548
2019.5	10.8529
2020	10.2109
2020.5	10.2085
2021	10.6813
2021.5	11.102
2022	10.9183
2022.5	10.1877
2023	9.38881
2023.5	9.0181
2024	9.19562
2024.5	9.43247
2025	9.23706
2025.5	8.5485
2026	7.84306
2026.5	7.76706
2027	8.40155
2027.5	9.27676
2028	9.68574
2028.5	9.23514
2029	8.26326
2029.5	7.38255
2030	7.11894
2030.5	7.59715
2031	8.34728
2031.5	8.82336
2032	8.66477
2032.5	7.88031
2033	6.94741
2033.5	6.29638
2034	6.10009
2034.5	6.22762
2035	6.42658
2035.5	6.69938
2036	7.27025
2036.5	8.35231
2037	9.73555
2037.5	10.8226
2038	11.0633
2038.5	10.2853
2039	8.92034
2039.5	7.63676
2040	6.76264
2040.5	6.23939
2041	5.82812
2041.5	5.49816
2042	5.44784
2042.5	5.81895
2043	6.4885
2043.5	7.12849
2044	7.61509
2044.5	8.02509
2045	8.42299
2045.5	8.65102
2046	8.55828
2046.5	8.27245
2047	8.19239
2047.5	8.55439
2048	9.05102
2048.5	9.21886
2049	8.89612
2049.5	8.48476
2050	8.43488
2050.5	8.73814
2051	9.05613
2051.5	9.15366
2052	9.24474
2052.5	9.52156
2053	9.81023
2053.5	9.61063
2054	8.83177
2054.5	7.97886
2055	7.67121
2055.5	8.07461
2056	8.57201
2056.5	8.56702
2057	8.01401
2057.5	7.43283
2058	7.50733
2058.5	8.42824
2059	9.94507
2059.5	11.5117
2060	12.444
2060.5	12.3903
2061	11.4247
2061.5	10.0228
2062	8.83782
2062.5	8.10732
2063	7.63403
2063.5	7.1573
2064	6.73584
2064.5	6.73077
2065	7.25835
2065.5	7.98419
2066	8.31292
2066.5	8.05005
2067	7.64088
2067.5	7.65949
2068	8.34357
2068.5	9.31185
2069	10.0206
2069.5	10.2355
2070	10.0559
2070.5	9.78185
2071	9.68746
2071.5	9.93042
2072	10.5107
2072.5	11.1285
2073	11.2823
2073.5	10.7466
2074	9.79091
2074.5	9.08665
2075	8.98287
2075.5	9.1174
2076	8.87381
2076.5	8.00069
2077	7.09018
2077.5	6.8813
2078	7.58451
2078.5	8.76794
2079	9.69384
2079.5	10.0107
2080	9.7192
2080.5	8.96844
2081	8.0343
2081.5	7.40003
2082	7.53726
2082.5	8.59016
2083	10.0798
2083.5	11.0796
2084	11.0456
2084.5	10.0046
2085	8.46907
2085.5	7.15564
2086	6.5456
2086.5	6.85539
2087	7.93672
2087.5	9.08866
2088	9.57792
2088.5	9.17532
2089	8.38027
2089.5	8.17244
2090	8.91572
2090.5	10.1314
2091	10.8846
2091.5	10.4674
2092	9.21024
2092.5	7.85917
2093	7.06852
2093.5	7.04968
2094	7.38806
2094.5	7.64166
2095	7.58575
2095.5	7.32208
2096	7.18224
2096.5	7.32164
2097	7.59737
2097.5	7.66216
2098	7.3596
2098.5	7.0126
2099	7.12598
2099.5	7.98287
2100	9.22099
2100.5	10.0823
2101	10.1062
2101.5	9.39491
2102	8.57432
2102.5	8.18589
2103	8.26936
2103.5	8.53129
2104	8.65438
2104.5	8.64075
2105	8.66484
2105.5	8.83027
2106	9.07994
2106.5	9.3074
2107	9.52369
2107.5	9.75681
2108	9.86484
2108.5	9.50094
2109	8.53346
2109.5	7.2859
2110	6.49546
2110.5	6.85018
2111	8.1454
2111.5	9.5743
2112	10.2239
2112.5	9.66627
2113	8.47442
2113.5	7.35761
2114	6.71126
2114.5	6.43708
2115	6.22935
2115.5	6.15232
2116	6.55468
2116.5	7.66719
2117	8.97325
2117.5	9.59729
2118	9.06745
2118.5	7.82452
2119	7.1409
2119.5	7.69684
2120	9.01981
2120.5	9.84708
2121	9.22529
2121.5	7.74898
2122	6.62854
2122.5	6.66373
2123	7.52737
2123.5	8.10406
2124	7.90112
2124.5	7.20496
2125	6.70963
2125.5	6.77011
2126	7.33526
2126.5	8.28696
2127	9.48862
2127.5	10.5118
2128	10.7929
2128.5	10.1065
2129	8.9182
2129.5	8.20541
2130	8.33912
2130.5	8.88807
2131	9.13001
2131.5	8.86885
2132	8.69495
2132.5	9.07335
2133	9.86802
2133.5	10.4078
2134	10.3676
2134.5	10.0165
2135	9.75826
2135.5	9.61383
2136	9.1691
2136.5	8.26307
2137	7.23449
2137.5	6.70718
2138	6.89767
2138.5	7.39919
2139	7.71188
2139.5	7.68367
2140	7.72941
2140.5	8.32813
2141	9.56414
2141.5	11.0393
2142	11.9843
2142.5	11.8748
2143	10.6538
2143.5	8.75191
2144	7.00801
2144.5	6.12822
2145	6.27607
2145.5	7.1303
2146	8.13916
2146.5	8.96285
2147	9.60917
2147.5	10.0717
2148	10.0233
2148.5	9.00212
2149	7.07558
2149.5	4.94921
2150	3.69066
2150.5	3.9529
2151	5.30652
2151.5	6.94499
2152	8.2334
2152.5	9.03474
2153	9.50808
2153.5	9.587
2154	9.0862
2154.5	8.05936
2155	7.10021
2155.5	6.69931
2156	6.86436
2156.5	7.11357
2157	7.0849
2157.5	7.03356
2158	7.42899
2158.5	8.36798
2159	9.1975
2159.5	9.29545
2160	8.71626
2160.5	8.18618
2161	8.46036
2161.5	9.35633
2162	10.0845
2162.5	9.85953
2163	8.50436
2163.5	6.75811
2164	5.45379
2164.5	5.16498
2165	6.0032
2165.5	7.35053
2166	8.5374
2166.5	9.11316
2167	9.04603
2167.5	8.77461
2168	8.67883
2168.5	8.8626
2169	9.18998
2169.5	9.46856
2170	9.63668
2170.5	9.70087
2171	9.67723
2171.5	9.61703
2172	9.61682
2172.5	9.71052
2173	9.778
2173.5	9.54809
2174	8.94327
2174.5	8.18078
2175	7.64458
2175.5	7.62099
2176	7.9132
2176.5	8.13863
2177	8.05635
2177.5	7.77365
2178	7.68409
2178.5	8.0246
2179	8.75262
2179.5	9.66243
2180	10.5545
2180.5	11.2835
2181	11.6363
2181.5	11.3456
2182	10.3535
2182.5	9.08991
2183	8.08057
2183.5	7.62166
2184	7.59133
2184.5	7.65922
2185	7.77801
2185.5	8.07641
2186	8.52749
2186.5	8.70573
2187	8.25604
2187.5	7.28367
2188	6.42204
2188.5	6.27999
2189	6.75978
2189.5	7.26513
2190	7.17272
2190.5	6.4799
2191	5.79887
2191.5	5.62407
2192	5.95733
2192.5	6.23945
2193	6.03381
2193.5	5.49726
2194	5.22719
2194.5	5.79216
2195	6.93208
2195.5	8.01666
2196	8.57601
2196.5	8.65821
2197	8.72618
2197.5	8.97906
2198	9.2747
2198.5	9.32936
2199	9.0294
2199.5	8.42911
2200	7.61191
2200.5	6.75119
2201	6.21944
2201.5	6.22869
2202	6.5511
2202.5	6.5735
2203	5.81315
2203.5	4.68604
2204	4.01753
2204.5	4.36914
2205	5.52738
2205.5	6.62734
2206	7.25833
2206.5	7.59832
2207	8.05828
2207.5	8.53289
2208	8.45725
2208.5	7.49871
2209	6.13508
2209.5	5.59586
2210	6.50843
2210.5	8.34032
2211	9.60951
2211.5	9.09064
2212	7.1314
2212.5	4.94379
2213	3.75894
2213.5	4.09739
2214	5.51684
2214.5	7.52535
2215	9.68053
2215.5	11.3628
2216	11.9141
2216.5	11.0923
2217	9.38151
2217.5	7.89132
2218	7.44032
2218.5	7.87859
2219	8.52494
2219.5	8.74735
2220	8.50531
2220.5	8.05714
2221	7.54148
2221.5	7.01171
2222	6.69602
2222.5	6.95444
2223	7.93821
2223.5	9.34169
2224	10.4015
2224.5	10.5681
2225	9.82761
2225.5	8.58326
2226	7.37536
2226.5	6.509
2227	6.07804
2227.5	6.18684
2228	7.01832
2228.5	8.42934
2229	9.86305
2229.5	10.6085
2230	10.244
2230.5	9.21556
2231	8.36409
2231.5	8.10386
2232	8.1486
2232.5	7.83268
2233	7.07678
2233.5	6.36248
2234	6.15712
2234.5	6.37469
2235	6.60083
2235.5	6.9362
2236	7.89765
2236.5	9.65571
2237	11.2013
2237.5	11.4002
2238	9.98138
2238.5	7.88913
2239	6.50182
2239.5	6.1987
2240	6.56812
2240.5	7.05647
2241	7.45297
2241.5	7.65779
2242	7.38195
2242.5	6.40847
2243	5.20921
2243.5	4.74429
2244	5.4832
2244.5	7.09408
2245	8.67774
2245.5	9.67731
2246	10.1089
2246.5	10.1536
2247	9.8211
2247.5	9.09058
2248	8.13236
2248.5	7.27861
2249	6.79951
2249.5	6.63276
2250	6.60355
2250.5	6.68996
2251	7.02944
2251.5	7.62773
2252	8.15409
2252.5	8.19986
2253	7.62634
2253.5	6.88876
2254	6.66563
2254.5	7.1715
2255	7.98677
2255.5	8.32514
2256	8.02427
2256.5	7.60776
2257	7.69553
2257.5	8.27535
2258	8.60382
2258.5	8.23308
2259	7.40017
2259.5	6.83221
2260	6.95198
2260.5	7.49233
2261	7.99018
2261.5	8.16828
2262	8.01187
2262.5	7.50103
2263	6.6087
2263.5	5.65291
2264	5.46707
2264.5	6.47125
2265	8.18491
2265.5	9.47216
2266	9.34417
2266.5	8.2652
2267	7.22729
2267.5	6.78594
2268	6.49039
2268.5	5.50259
2269	3.86185
2269.5	2.44303
2270	2.20454
2270.5	3.09628
2271	4.42338
2271.5	5.69312
2272	6.80628
2272.5	7.73027
2273	8.16679
2273.5	7.82946
2274	6.8494
2274.5	5.92948
2275	5.71544
2275.5	6.31977
2276	7.34189
2276.5	8.11465
2277	8.14873
2277.5	7.32937
2278	5.98139
2278.5	4.89159
2279	4.82201
2279.5	5.87695
2280	7.51216
2280.5	8.8038
2281	9.09669
2281.5	8.479
2282	7.49133
2282.5	6.76964
2283	6.70042
2283.5	7.12014
2284	7.58543
2284.5	7.66274
2285	7.29658
2285.5	6.93698
2286	6.98155
2286.5	7.46176
2287	7.97583
2287.5	8.17295
2288	8.14819
2288.5	8.19976
2289	8.45792
2289.5	8.62335
2290	8.37729
2290.5	7.73107
2291	7.06052
2291.5	6.71098
2292	6.51409
2292.5	6.01353
2293	4.98586
2293.5	3.97086
2294	3.87457
2294.5	5.13324
2295	7.25338
2295.5	8.72605
2296	8.35432
2296.5	6.22921
2297	3.73951
2297.5	3.00289
2298	4.70387
2298.5	7.68692
2299	10.1408
2299.5	10.7404
2300	9.83151
2300.5	8.48578
2301	7.48828
2301.5	7.13242
2302	7.45613
2302.5	8.41693
2303	9.61125
2303.5	10.1006
2304	9.14689
2304.5	7.37556
2305	6.05723
2305.5	6.01881
2306	6.71362
2306.5	6.82997
2307	6.05015
2307.5	5.19968
2308	5.47779
2308.5	6.71366
2309	7.93855
2309.5	8.52812
2310	8.69288
2310.5	9.04561
2311	9.66381
2311.5	10.2496
2312	10.6168
2312.5	10.9207
2313	11.1307
2313.5	10.7917
2314	9.45899
2314.5	7.43417
2315	5.74573
2315.5	5.13404
2316	5.58405
2316.5	6.34542
2317	6.71308
2317.5	6.61574
2318	6.34715
2318.5	6.15691
2319	5.9786
2319.5	5.69859
2320	5.3559
2320.5	5.17018
2321	5.40017
2321.5	6.18585
2322	7.49924
2322.5	8.99461
2323	9.88024
2323.5	9.55965
2324	8.07309
2324.5	6.21388
2325	5.14798
2325.5	5.26389
2326	6.19707
2326.5	7.36809
2327	8.52915
2327.5	9.68865
2328	10.5079
2328.5	10.3591
2329	8.89981
2329.5	6.97798
2330	5.79441
2330.5	6.04437
2331	7.50894
2331.5	9.19173
2332	10.3246
2332.5	10.5847
2333	9.898
2333.5	8.52959
2334	7.10363
2334.5	6.22779
2335	6.15245
2335.5	6.56562
2336	7.02196
2336.5	7.48643
2337	8.12215
2337.5	8.86093
2338	9.32466
2338.5	9.32276
2339	8.9857
2339.5	8.53606
2340	7.96692
2340.5	7.234
2341	6.6126
2341.5	6.59176
2342	7.17583
2342.5	7.73603
2343	7.67549
2343.5	6.96811
2344	6.27914
2344.5	6.13005
2345	6.47971
2345.5	6.92963
2346	7.14337
2346.5	7.02904
2347	6.5713
2347.5	5.86809
2348	5.28427
2348.5	5.2475
2349	5.85232
2349.5	6.77823
2350	7.59245
2350.5	8.14555
2351	8.48775
2351.5	8.64368
2352	8.63212
2352.5	8.63947
2353	8.84174
2353.5	9.10462
2354	9.0267
2354.5	8.47906
2355	7.94307
2355.5	7.91217
2356	8.37676
2356.5	8.72011
2357	8.53592
2357.5	8.03484
2358	7.60633
2358.5	7.23168
2359	6.61684
2359.5	5.89655
2360	5.66641
2360.5	6.47073
2361	7.85879
2361.5	8.83697
2362	8.83459
2362.5	8.08724
2363	7.37513
2363.5	7.08907
2364	7.11559
2364.5	7.16339
2365	7.14557
2365.5	7.1839
2366	7.24283
2366.5	7.06398
2367	6.42025
2367.5	5.61817
2368	5.23022
2368.5	5.64457
2369	6.66192
2369.5	7.53744
2370	7.95554
2370.5	8.11744
2371	8.37398
2371.5	8.61761
2372	8.42103
2372.5	7.63498
2373	6.73411
2373.5	6.48277
2374	6.9321
2374.5	7.51628
2375	7.54212
2375.5	6.86126
2376	6.04106
2376.5	5.6172
2377	5.67006
2377.5	5.76738
2378	5.66554
2378.5	5.62645
2379	6.06162
2379.5	6.96207
2380	7.58399
2380.5	7.33964
2381	6.47453
2381.5	5.91712
2382	6.27231
2382.5	7.23291
2383	8.20908
2383.5	8.95103
2384	9.67136
2384.5	10.2905
2385	10.2971
2385.5	9.35127
2386	7.9885
2386.5	7.18297
2387	7.24922
2387.5	7.65499
2388	7.50031
2388.5	6.74348
2389	5.85866
2389.5	5.24638
2390	5.00009
2390.5	5.07986
2391	5.5547
2391.5	6.33789
2392	6.93582
2392.5	6.88392
2393	6.32807
2393.5	5.79161
2394	5.69425
2394.5	5.93829
2395	6.25187
2395.5	6.6555
2396	7.31469
2396.5	8.11836
2397	8.642
2397.5	8.62528
2398	8.16081
2398.5	7.59671
2399	7.20293
2399.5	7.05829
2400	7.12876
2400.5	7.17816
2401	6.83434
2401.5	6.04687
2402	5.30008
2402.5	5.32874
2403	6.15286
2403.5	6.98994
2404	7.05922
2404.5	6.19548
2405	5.11507
2405.5	4.67541
2406	5.20497
2406.5	6.48292
2407	7.71727
2407.5	8.03825
2408	7.15202
2408.5	5.60996
2409	4.64098
2409.5	4.66329
2410	5.10252
2410.5	5.18096
2411	4.76697
2411.5	4.61752
2412	5.30892
2412.5	6.66112
2413	7.98563
2413.5	8.60669
2414	8.24788
2414.5	6.99144
2415	5.40455
2415.5	4.59376
2416	5.11365
2416.5	6.59028
2417	7.94912
2417.5	8.16529
2418	7.43511
2418.5	6.68948
2419	6.74017
2419.5	7.4058
2420	7.53212
2420.5	6.46017
2421	4.73862
2421.5	4.08359
2422	5.4383
2422.5	7.56511
2423	8.60333
2423.5	7.76342
2424	6.45556
2424.5	6.18971
2425	6.88504
2425.5	7.19653
2426	6.55486
2426.5	5.95288
2427	6.21568
2427.5	7.01131
2428	7.10026
2428.5	6.21687
2429	5.13748
2429.5	4.63323
2430	4.96989
2430.5	5.93875
2431	7.35354
2431.5	8.80504
2432	9.60942
2432.5	9.62607
2433	9.4515
2433.5	9.6526
2434	10.0414
2434.5	9.69469
2435	8.4392
2435.5	6.93328
2436	6.03278
2436.5	6.06244
2437	6.74035
2437.5	7.77461
2438	8.7944
2438.5	9.19386
2439	8.68827
2439.5	7.64758
2440	6.86936
2440.5	6.9259
2441	7.30444
2441.5	7.36273
2442	6.97795
2442.5	6.62217
2443	6.7988
2443.5	7.48872
2444	8.29732
2444.5	8.75761
2445	8.52431
2445.5	7.53891
2446	6.06737
2446.5	4.82122
2447	4.74373
2447.5	6.00632
2448	7.96079
2448.5	9.4062
2449	9.26193
2449.5	7.94156
2450	6.83791
2450.5	7.099
2451	8.64843
2451.5	9.89635
2452	9.62775
2452.5	7.96475
2453	6.4741
2453.5	6.42203
2454	7.50268
2454.5	8.59894
2455	8.83259
2455.5	8.51192
2456	8.45949
2456.5	8.81798
2457	9.0045
2457.5	8.29364
2458	6.83826
2458.5	5.40886
2459	4.69251
2459.5	4.68222
2460	4.62875
2460.5	4.05514
2461	3.23356
2461.5	3.26842
2462	4.75316
2462.5	7.05463
2463	8.78601
2463.5	8.71283
2464	7.11264
2464.5	5.4242
2465	4.67135
2465.5	5.01523
2466	5.81872
2466.5	6.5062
2467	6.91695
2467.5	7.11898
2468	7.17239
2468.5	7.1592
2469	7.22026
2469.5	7.48442
2470	7.82772
2470.5	7.83734
2471	7.23697
2471.5	6.19527
2472	5.45417
2472.5	5.66323
2473	6.47065
2473.5	6.93495
2474	6.28538
2474.5	4.95925
2475	4.07547
2475.5	4.16259
2476	4.76459
2476.5	5.10672
2477	5.17729
2477.5	5.46644
2478	6.23564
2478.5	6.96982
2479	7.0944
2479.5	6.55277
2480	5.676
2480.5	4.84154
2481	4.21652
2481.5	3.9284
2482	4.11136
2482.5	4.75131
2483	5.51907
2483.5	6.13667
2484	6.57005
2484.5	6.90458
2485	7.11976
2485.5	7.09064
2486	6.7907
2486.5	6.4103
2487	6.1949
2487.5	6.17618
2488	6.19358
2488.5	5.9994
2489	5.47233
2489.5	4.85745
2490	4.57236
2490.5	4.96182
2491	5.9946
2491.5	7.0308
2492	7.58453
2492.5	7.58409
2493	7.31241
2493.5	7.13658
2494	7.28688
2494.5	7.90898
2495	8.94038
2495.5	9.71228
2496	9.38319
2496.5	7.77844
2497	5.93493
2497.5	5.24994
2498	5.819
2498.5	6.696
2499	6.91541
2499.5	6.67359
2500	6.84919
2500.5	7.67594
2501	8.67034
2501.5	9.1257
2502	9.03374
2502.5	8.68297
2503	8.24269
2503.5	7.71992
2504	7.16467
2504.5	6.72431
2505	6.52465
2505.5	6.61809
2506	6.89863
2506.5	7.12064
2507	7.08009
2507.5	6.7672
2508	6.33162
2508.5	5.8305
2509	5.23825
2509.5	4.74261
2510	4.84596
2510.5	5.69822
2511	6.92019
2511.5	7.89992
2512	8.31189
2512.5	8.28167
2513	7.79502
2513.5	6.78751
2514	5.60249
2514.5	5.08977
2515	5.5124
2515.5	6.334
2516	6.692
2516.5	6.39444
2517	6.12851
2517.5	6.33716
2518	6.81619
2518.5	6.91625
2519	6.43607
2519.5	5.83904
2520	5.74537
2520.5	6.43299
2521	7.37392
2521.5	7.83871
2522	7.46865
2522.5	6.48372
2523	5.5104
2523.5	5.01426
2524	5.29819
2524.5	6.40045
2525	7.82041
2525.5	8.72633
2526	8.56563
2526.5	7.696
2527	7.21039
2527.5	7.50695
2528	8.18053
2528.5	8.61174
2529	8.6374
2529.5	8.35946
2530	7.62383
2530.5	6.29712
2531	4.71699
2531.5	3.47685
2532	2.71284
2532.5	2.43182
2533	3.09552
2533.5	5.13344
2534	7.81462
2534.5	9.62306
2535	9.29172
2535.5	7.36336
2536	5.45432
2536.5	4.59743
2537	5.00721
2537.5	6.4023
2538	8.26155
2538.5	9.78578
2539	10.2024
2539.5	9.44196
2540	8.39236
2540.5	7.70607
2541	7.27874
2541.5	6.70565
2542	6.2264
2542.5	6.51063
2543	7.70565
2543.5	8.90481
2544	8.90345
2544.5	7.50205
2545	5.66226
2545.5	4.90299
2546	5.67481
2546.5	7.0273
2547	7.7009
2547.5	7.21113
2548	6.40449
2548.5	6.13296
2549	6.45471
2549.5	6.87923
2550	7.09036
2550.5	7.28412
2551	7.5544
2551.5	7.64846
2552	7.10147
2552.5	5.90318
2553	4.37181
2553.5	3.07503
2554	2.84603
2554.5	3.93073
2555	5.74632
2555.5	7.22827
2556	7.45434
2556.5	6.75502
2557	6.20123
2557.5	6.41215
2558	7.22904
2558.5	7.85002
2559	7.85722
2559.5	7.43736
2560	7.10982
2560.5	7.34641
2561	7.89568
2561.5	8.10719
2562	7.45176
2562.5	6.00384
2563	4.67484
2563.5	4.06559
2564	4.0837
2564.5	4.12843
2565	3.85372
2565.5	3.66731
2566	4.07344
2566.5	5.08889
2567	5.9526
2567.5	6.03263
2568	5.50101
2568.5	5.11612
2569	5.55081
2569.5	6.53053
2570	7.36508
2570.5	7.71802
2571	7.9078
2571.5	8.3437
2572	8.72088
2572.5	8.35447
2573	6.88181
2573.5	5.12111
2574	4.15894
2574.5	4.44649
2575	5.67603
2575.5	7.13884
2576	8.44453
2576.5	9.36951
2577	9.55484
2577.5	8.7608
2578	7.44225
2578.5	6.50521
2579	6.60189
2579.5	7.48608
2580	8.13966
2580.5	7.91879
2581	6.92679
2581.5	5.8569
2582	5.2789
2582.5	5.18354
2583	5.37064
2583.5	5.91369
2584	7.07794
2584.5	8.72764
2585	10.1765
2585.5	10.6172
2586	9.94425
2586.5	8.70845
2587	7.42768
2587.5	6.30257
2588	5.46994
2588.5	5.14565
2589	5.34942
2589.5	5.84557
2590	6.3537
2590.5	6.8063
2591	7.11659
2591.5	7.05726
2592	6.53997
2592.5	6.00096
2593	5.7397
2593.5	5.55604
2594	5.05252
2594.5	4.51947
2595	4.65615
2595.5	5.67292
2596	7.02518
2596.5	7.86799
2597	7.93451
2597.5	7.25369
2598	5.97414
2598.5	4.72505
2599	4.37593
2599.5	5.18421
2600	6.5456
2600.5	7.41151
2601	7.64024
2601.5	7.71223
2602	7.96859
2602.5	8.27304
2603	8.29077
2603.5	7.83724
2604	6.83916
2604.5	5.53828
2605	4.75174
2605.5	4.96405
2606	5.81672
2606.5	6.20006
2607	5.60564
2607.5	4.75143
2608	4.48558
2608.5	5.0605
2609	5.85689
2609.5	6.31923
2610	6.28887
2610.5	5.9619
2611	5.98244
2611.5	6.80772
2612	8.15725
2612.5	9.00972
2613	8.53603
2613.5	7.45367
2614	6.74837
2614.5	6.63513
2615	6.3481
2615.5	5.6941
2616	5.51229
2616.5	6.54812
2617	8.2026
2617.5	9.02705
2618	8.48698
2618.5	7.19962
2619	6.28777
2619.5	6.30745
2620	6.95892
2620.5	7.53755
2621	7.31896
2621.5	6.05662
2622	4.47256
2622.5	3.51899
2623	3.57467
2623.5	4.20583
2624	4.60844
2624.5	4.54164
2625	4.20667
2625.5	3.93938
2626	4.79064
2626.5	5.94493
2627	7.07025
2627.5	7.73898
2628	7.42226
2628.5	6.80544
2629	6.39004
2629.5	6.45293
2630	6.21198
2630.5	5.88489
2631	5.44394
2631.5	5.34024
2632	5.44967
2632.5	6.22545
2633	7.04433
2633.5	7.90962
2634	8.19665
2634.5	8.21823
2635	7.74411
2635.5	7.28433
2636	6.87366
2636.5	7.1345
2637	7.70867
2637.5	8.66118
2638	9.52535
2638.5	10.1502
2639	10.0736
2639.5	9.32181
2640	8.17312
2640.5	6.69299
2641	5.50869
2641.5	4.72553
2642	4.92237
2642.5	5.53879
2643	6.90374
2643.5	8.31821
2644	9.76318
2644.5	10.2631
2645	10.3386
2645.5	9.76653
2646	9.08949
2646.5	8.49626
2647	8.39679
2647.5	8.3532
2648	8.35028
2648.5	7.62748
2649	6.78595
2649.5	5.77423
2650	5.33143
2650.5	5.17006
2651	5.56831
2651.5	5.81751
2652	5.94488
2652.5	5.79019
2653	5.71951
2653.5	5.84509
2654	6.09774
2654.5	6.35856
2655	6.35844
2655.5	6.40193
2656	6.48541
2656.5	6.95478
2657	7.2917
2657.5	7.25546
2658	6.37408
2658.5	5.14731
2659	4.00269
2659.5	3.72521
2660	4.33902
2660.5	5.79306
2661	7.10957
2661.5	7.80365
2662	7.8715
2662.5	7.67522
2663	7.95524
2663.5	8.58796
2664	9.62715
2664.5	10.3715
2665	10.8061
2665.5	10.4704
2666	9.73508
2666.5	8.78219
2667	7.83045
2667.5	7.12046
2668	6.72317
2668.5	6.98852
2669	7.46566
2669.5	8.20646
2670	8.62242
2670.5	8.83057
2671	8.45623
2671.5	8.08586
2672	7.72125
2672.5	7.53543
2673	7.40178
2673.5	7.30085
2674	7.33542
2674.5	7.46402
2675	7.8883
2675.5	8.18349
2676	8.25956
2676.5	7.75608
2677	7.11892
2677.5	6.66195
2678	6.84511
2678.5	7.52752
2679	8.63382
2679.5	9.46469
2680	9.74886
2680.5	9.3116
2681	8.64062
2681.5	8.05402
2682	7.83405
2682.5	7.93497
2683	8.24205
2683.5	8.36945
2684	8.08437
2684.5	7.25156
2685	6.22852
2685.5	5.42193
2686	5.18993
2686.5	5.52176
2687	6.35011
2687.5	7.04088
2688	7.26583
2688.5	6.99584
2689	6.51943
2689.5	6.24975
2690	6.21794
2690.5	6.44781
2691	6.65631
2691.5	6.85274
2692	7.02448
2692.5	7.38526
2693	7.83654
2693.5	8.15827
2694	8.08901
2694.5	7.53729
2695	6.57159
2695.5	5.72399
2696	5.50953
2696.5	6.03985
2697	7.00459
2697.5	7.88937
2698	8.27795
2698.5	7.97874
2699	7.2389
2699.5	6.54454
2700	6.40939
2700.5	6.59287
2701	6.98703
2701.5	7.00535
2702	6.9957
2702.5	6.94463
2703	7.40263
2703.5	8.00667
2704	8.64043
2704.5	8.7952
2705	8.59365
2705.5	8.18661
2706	8.04363
2706.5	8.37809
2707	8.99553
2707.5	9.65807
2708	10.0605
2708.5	10.3632
2709	10.5825
2709.5	10.4424
2710	9.92488
2710.5	8.69931
2711	7.22474
2711.5	5.80819
2712	5.47915
2712.5	5.79872
2713	6.72589
2713.5	7.58232
2714	8.22291
2714.5	8.38727
2715	8.27906
2715.5	8.02373
2716	7.47877
2716.5	6.8084
2717	6.00635
2717.5	5.25233
2718	4.56757
2718.5	4.04736
2719	3.87027
2719.5	3.9177
2720	4.77158
2720.5	5.80676
2721	7.05542
2721.5	7.6958
2722	8.02611
2722.5	7.73213
2723	7.36807
2723.5	6.97395
2724	6.8176
2724.5	6.81853
2725	7.02736
2725.5	7.58467
2726	8.16378
2726.5	8.55724
2727	8.26579
2727.5	7.53834
2728	6.22665
2728.5	5.25697
2729	4.79576
2729.5	5.39074
2730	6.34899
2730.5	7.70314
2731	8.51009
2731.5	8.92888
2732	7.96635
2732.5	6.8717
2733	5.60445
2733.5	5.18514
2734	5.1306
2734.5	5.63639
2735	5.83669
2735.5	5.7935
2736	5.38864
2736.5	5.06379
2737	4.92635
2737.5	4.9736
2738	5.12723
2738.5	5.54842
2739	6.09044
2739.5	6.74052
2740	6.50928
2740.5	5.87454
2741	4.52894
2741.5	4.11605
2742	4.28683
2742.5	6.19636
2743	7.73797
2743.5	8.91075
2744	8.10983
2744.5	7.03757
2745	5.87505
2745.5	5.50878
2746	5.51266
2746.5	5.50844
2747	5.27943
2747.5	4.79778
2748	4.54951
2748.5	4.45192
2749	4.68062
2749.5	5.08876
2750	5.601
2750.5	6.2925
2751	6.76421
2751.5	6.95877
2752	6.5712
2752.5	6.164
2753	6.07022
2753.5	6.46715
2754	7.15026
2754.5	7.42856
2755	7.30091
2755.5	6.59805
2756	5.78481
2756.5	5.00174
2757	4.44104
2757.5	4.10844
2758	3.93006
2758.5	4.62187
2759	5.4901
2759.5	6.62716
2760	7.07491
2760.5	7.19824
2761	6.70627
2761.5	6.50359
2762	6.52087
2762.5	6.77148
2763	6.74557
2763.5	6.2044
2764	5.54869
2764.5	4.97009
2765	5.06892
2765.5	5.35617
2766	5.80424
2766.5	6.03444
2767	6.26805
2767.5	6.54026
2768	6.74127
2768.5	6.81896
2769	6.1703
2769.5	5.32117
2770	4.28019
2770.5	4.01438
2771	4.08889
2771.5	4.76948
2772	5.19502
2772.5	5.47634
2773	5.42987
2773.5	5.67237
2774	6.2249
2774.5	6.90077
2775	7.39691
2775.5	7.363
2776	7.28448
2776.5	7.21237
2777	7.59545
2777.5	7.80681
2778	7.81154
2778.5	7.56195
2779	7.43731
2779.5	7.84524
2780	8.39553
2780.5	9.0074
2781	9.0062
2781.5	8.90631
2782	8.67306
2782.5	8.41422
2783	8.01867
2783.5	7.14145
2784	6.04036
2784.5	4.7965
2785	4.12993
2785.5	3.85374
2786	4.17102
2786.5	4.83263
2787	5.50171
2787.5	5.80404
2788	5.91119
2788.5	5.8768
2789	6.57177
2789.5	7.27001
2790	7.94044
2790.5	7.06115
2791	5.56814
2791.5	3.37012
2792	2.56349
2792.5	2.89013
2793	5.06534
2793.5	6.84943
2794	7.66579
2794.5	7.18618
2795	6.3313
2795.5	6.11792
2796	6.39509
2796.5	7.12043
2797	7.10735
2797.5	6.77232
2798	5.87276
2798.5	5.29237
2799	4.90444
2799.5	5.05094
2800	5.24372
2800.5	5.48391
2801	5.90074
2801.5	6.37403
2802	6.93425
2802.5	7.22356
2803	7.35358
2803.5	7.09242
2804	6.7731
2804.5	6.38697
2805	5.9276
2805.5	5.54494
2806	5.42257
2806.5	5.7762
2807	6.37824
2807.5	6.76107
2808	6.66985
2808.5	5.96777
2809	5.27814
2809.5	4.87424
2810	5.44288
2810.5	6.14189
2811	6.90323
2811.5	6.43172
2812	5.59785
2812.5	4.23907
2813	3.0738
2813.5	2.07849
2814	1.58217
2814.5	1.61901
2815	2.02442
2815.5	3.11002
2816	4.03645
2816.5	4.68674
2817	4.86142
2817.5	4.98856
2818	5.5662
2818.5	6.31816
2819	7.20558
2819.5	6.97019
2820	6.29768
2820.5	4.9111
2821	3.83354
2821.5	2.97759
2822	2.83586
2822.5	2.84186
2823	2.97669
2823.5	3.20081
2824	3.54192
2824.5	4.1141
2825	4.70997
2825.5	5.22375
2826	5.00761
2826.5	4.4264
2827	3.48824
2827.5	3.08543
2828	2.94604
2828.5	3.29576
2829	3.43036
2829.5	3.47257
2830	3.56958
2830.5	4.04008
2831	4.91996
2831.5	5.71838
2832	6.27977
2832.5	6.21927
2833	6.0676
2833.5	5.87979
2834	5.88096
2834.5	5.88673
2835	5.89815
2835.5	5.87525
2836	5.76243
2836.5	5.38091
2837	4.83215
2837.5	4.19756
2838	4.0102
2838.5	3.8417
2839	3.69924
2839.5	2.98011
2840	2.18727
2840.5	1.61382
2841	1.77018
2841.5	2.40732
2842	3.44892
2842.5	4.32253
2843	4.93318
2843.5	5.38767
2844	5.79842
2844.5	6.2039
2845	6.62173
2845.5	7.04873
2846	7.28498
2846.5	7.27208
2847	6.83262
2847.5	6.27691
2848	5.84212
2848.5	6.29341
2849	7.00457
2849.5	7.93201
2850	7.7071
2850.5	7.13773
2851	6.02887
2851.5	5.45446
2852	5.14413
2852.5	5.29793
2853	5.04039
2853.5	4.39892
2854	3.38708
2854.5	2.64301
2855	2.58836
2855.5	3.04396
2856	3.67241
2856.5	3.86211
2857	3.7311
2857.5	3.26451
2858	2.9976
2858.5	2.91448
2859	3.24147
2859.5	3.59591
2860	3.92836
2860.5	3.75823
2861	3.42735
2861.5	2.9079
2862	2.97035
2862.5	3.39336
2863	4.60596
2863.5	5.82042
2864	6.99839
2864.5	7.2084
2865	7.08637
2865.5	6.52703
2866	5.68461
2866.5	4.75342
2867	3.71922
2867.5	3.13956
2868	2.85661
2868.5	3.87718
2869	4.96219
2869.5	6.14265
2870	6.4893
2870.5	6.56624
2871	6.39947
2871.5	6.35501
2872	6.39697
2872.5	5.6948
2873	4.76816
2873.5	3.49171
2874	3.37585
2874.5	3.86114
2875	5.6402
2875.5	6.96204
2876	7.92075
2876.5	7.28327
2877	6.57326
2877.5	5.87942
2878	5.83206
2878.5	5.99543
2879	6.05498
2879.5	5.86547
2880	5.45405
2880.5	5.08943
2881	4.68652
2881.5	4.19289
2882	3.34707
2882.5	2.36213
2883	1.40709
2883.5	0.81475
2884	0.58472
2884.5	0.98113
2885	1.55884
2885.5	2.40113
2886	3.10951
2886.5	3.71374
2887	3.81719
2887.5	3.94257
2888	4.09249
2888.5	4.84977
2889	5.72502
2889.5	6.66845
2890	7.07694
2890.5	7.17279
2891	6.67807
2891.5	6.13437
2892	5.52914
2892.5	4.7725
2893	4.01406
2893.5	3.34701
2894	3.15537
2894.5	3.25426
2895	3.67005
2895.5	3.88278
2896	3.80885
2896.5	3.58749
2897	3.40972
2897.5	3.53941
2898	3.70286
2898.5	3.88906
2899	3.86486
2899.5	3.88832
2900	3.99029
2900.5	4.17749
2901	4.35125
2901.5	4.34826
2902	4.39881
2902.5	4.48992
2903	5.03756
2903.5	5.63312
2904	6.2835
2904.5	6.65039
2905	6.90407
2905.5	7.04311
2906	7.25905
2906.5	7.5404
2907	7.56179
2907.5	7.30505
2908	6.51807
2908.5	5.344
2909	4.07936
2909.5	3.24628
2910	3.04766
2910.5	3.45405
2911	4.65804
2911.5	5.86802
2912	6.89966
2912.5	7.22567
2913	7.18493
2913.5	6.56411
2914	6.11744
2914.5	5.85696
2915	6.35523
2915.5	7.02184
2916	7.85589
2916.5	8.17058
2917	8.18369
2917.5	7.55455
2918	7.10087
2918.5	6.85754
2919	7.37227
2919.5	8.09727
2920	9.05713
2920.5	9.53943
2921	9.70688
2921.5	8.55704
2922	7.10099
2922.5	5.23277
2923	4.12868
2923.5	3.56447
2924	4.36265
2924.5	5.22997
2925	6.13653
2925.5	5.54365
2926	4.63976
2926.5	3.26483
2927	2.68564
2927.5	2.54879
2928	3.43121
2928.5	4.28631
2929	5.12167
2929.5	5.1716
2930	4.97859
2930.5	4.40504
2931	3.87441
2931.5	3.45257
2932	3.54065
2932.5	3.95465
2933	4.63313
2933.5	5.26751
2934	5.72568
2934.5	5.84754
2935	5.70075
2935.5	5.43172
2936	4.99193
2936.5	4.4542
2937	3.82731
2937.5	3.32601
2938	2.9962
2938.5	3.01966
2939	3.3122
2939.5	3.71394
2940	4.09174
2940.5	4.46289
2941	4.82724
2941.5	5.34094
2942	5.8651
2942.5	6.36866
2943	6.58902
2943.5	6.63292
2944	6.13834
2944.5	5.51815
2945	4.75422
2945.5	4.22911
2946	3.87216
2946.5	3.89366
2947	3.96707
2947.5	4.05611
2948	3.87214
2948.5	3.73541
2949	3.65932
2949.5	4.02107
2950	4.44414
2950.5	4.77492
2951	4.59935
2951.5	4.10994
2952	3.33039
2952.5	2.85143
2953	2.8063
2953.5	3.21225
2954	3.6972
2954.5	4.05545
2955	4.39623
2955.5	4.72499
2956	5.50741
2956.5	6.25126
2957	6.92224
2957.5	6.7692
2958	6.24048
2958.5	5.04211
2959	4.10132
2959.5	3.35996
2960	3.44044
2960.5	3.63858
2961	3.98671
2961.5	4.18081
2962	4.33786
2962.5	4.58805
2963	5.02611
2963.5	5.62742
2964	6.1853
2964.5	6.52564
2965	6.41827
2965.5	5.78059
2966	4.94015
2966.5	4.14398
2967	3.75861
2967.5	3.77344
2968	4.36474
2968.5	4.9008
2969	5.1533
2969.5	4.72342
2970	3.97297
2970.5	3.07866
2971	2.60562
2971.5	2.59267
2972	3.23791
2972.5	3.91422
2973	4.41084
2973.5	4.4892
2974	4.35831
2974.5	4.32008
2975	4.55118
2975.5	5.11223
2976	5.75488
2976.5	6.2343
2977	6.14276
2977.5	5.52665
2978	4.60759
2978.5	3.76621
2979	3.34013
2979.5	3.4855
2980	4.3826
2980.5	5.42486
2981	6.37173
2981.5	6.59094
2982	6.3326
2982.5	4.85252
2983	3.38106
2983.5	1.92667
2984	1.59589
2984.5	1.84894
2985	3.36527
2985.5	5.05398
2986	6.87
2986.5	7.57198
2987	7.70049
2987.5	6.8874
2988	5.70694
2988.5	4.52196
2989	3.96399
2989.5	3.94587
2990	4.37543
2990.5	5.00632
2991	5.52316
2991.5	5.78881
2992	5.89872
2992.5	5.97015
2993	6.17791
2993.5	6.40526
2994	6.65083
2994.5	6.55574
2995	6.30807
2995.5	5.78938
2996	5.32319
2996.5	4.91587
2997	4.85489
2997.5	4.84217
2998	4.87976
2998.5	4.58835
2999	4.16584
2999.5	3.51524
3000	3.03269
3000.5	2.6741
3001	2.9044
3001.5	3.28866
3002	3.85291
3002.5	4.18095
3003	4.35927
3003.5	4.20762
3004	4.0401
3004.5	3.87584
3005	4.0146
3005.5	4.19597
3006	4.43328
3006.5	4.39895
3007	4.21882
3007.5	3.72548
3008	3.13615
3008.5	2.48729
3009	1.88497
3009.5	1.37077
3010	0.98662
3010.5	1.02774
3011	1.30606
3011.5	2.12843
3012	3.05236
3012.5	4.04781
3013	4.42099
3013.5	4.47888
3014	4.0321
3014.5	3.49539
3015	3.0262
3015.5	3.03846
3016	3.34212
3016.5	3.87635
3017	4.42906
3017.5	4.89618
3018	5.20042
3018.5	5.34626
3019	5.40579
3019.5	5.26745
3020	4.9584
3020.5	4.49779
3021	3.84717
3021.5	3.23195
3022	2.72603
3022.5	2.56456
3023	2.59889
3023.5	3.10842
3024	3.76881
3024.5	4.57932
3025	5.31191
3025.5	5.92223
3026	6.25514
3026.5	6.35111
3027	6.33617
3027.5	6.30399
3028	6.3444
3028.5	6.46579
3029	6.53549
3029.5	6.52134
3030	6.2925
3030.5	5.98016
3031	5.63324
3031.5	5.46356
3032	5.34052
3032.5	5.27585
3033	4.96683
3033.5	4.53544
3034	3.85581
3034.5	3.32274
3035	2.8919
3035.5	3.15359
3036	3.60553
3036.5	4.32507
3037	4.88452
3037.5	5.31149
3038	5.36842
3038.5	5.30621
3039	5.16403
3039.5	5.01075
3040	4.79528
3040.5	4.48145
3041	3.99893
3041.5	3.48541
3042	3.04813
3042.5	2.84081
3043	2.80707
3043.5	3.04477
3044	3.25209
3044.5	3.38698
3045	3.34216
3045.5	3.24842
3046	3.21344
3046.5	3.38124
3047	3.72086
3047.5	4.22783
3048	4.63623
3048.5	4.821
3049	4.58348
3049.5	4.15106
3050	3.46516
3050.5	2.93912
3051	2.56498
3051.5	2.81197
3052	3.26886
3052.5	4.06486
3053	4.76896
3053.5	5.37973
3054	5.4529
3054.5	5.33832
3055	5.02377
3055.5	4.839
3056	4.791
3056.5	5.0597
3057	5.45768
3057.5	5.90068
3058	6.04544
3058.5	5.90697
3059	5.4302
3059.5	4.5732
3060	3.66274
3060.5	2.79449
3061	2.26572
3061.5	1.95445
3062	2.38953
3062.5	3.07562
3063	4.09835
3063.5	5.10027
3064	5.94068
3064.5	6.21033
3065	6.03968
3065.5	5.58716
3066	5.04731
3066.5	4.71078
3067	4.68105
3067.5	5.0043
3068	5.38007
3068.5	5.58341
3069	5.42961
3069.5	5.01874
3070	4.4579
3070.5	4.07994
3071	4.01967
3071.5	4.42907
3072	4.99168
3072.5	5.59881
3073	5.90886
3073.5	5.97867
3074	5.70754
3074.5	5.46902
3075	5.33006
3075.5	5.45332
3076	5.67553
3076.5	5.92963
3077	5.98327
3077.5	5.85507
3078	5.48092
3078.5	5.12585
3079	4.86049
3079.5	4.83462
3080	4.91829
3080.5	5.09388
3081	5.12438
3081.5	5.00737
3082	4.61099
3082.5	4.17579
3083	3.72965
3083.5	3.49171
3084	3.37449
3084.5	3.53865
3085	3.71712
3085.5	3.91191
3086	3.97563
3086.5	3.98947
3087	3.91952
3087.5	3.91281
3088	3.94772
3088.5	4.14549
3089	4.3554
3089.5	4.58082
3090	4.62713
3090.5	4.56708
3091	4.26755
3091.5	3.92982
3092	3.57306
3092.5	3.47728
3093	3.55755
3093.5	3.89098
3094	4.34615
3094.5	4.76919
3095	4.94348
3095.5	4.80613
3096	4.45496
3096.5	3.82515
3097	3.32293
3097.5	3.0332
3098	3.25302
3098.5	3.69793
3099	4.52289
3099.5	5.20106
3100	5.76599
3100.5	5.61126
3101	5.20158
3101.5	4.38147
3102	3.59595
3102.5	2.92891
3103	2.90878
3103.5	3.29262
3104	4.0262
3104.5	4.92009
3105	5.61362
3105.5	5.86514
3106	5.56257
3106.5	5.01147
3107	4.21107
3107.5	3.69347
3108	3.4504
3108.5	3.86681
3109	4.43142
3109.5	5.17753
3110	5.51524
3110.5	5.59612
3111	4.88036
3111.5	3.95841
3112	2.8121
3112.5	2.00871
3113	1.48191
3113.5	1.57622
3114	2.06102
3114.5	2.74433
3115	3.40932
3115.5	3.85399
3116	4.02971
3116.5	3.85778
3117	3.61142
3117.5	3.33171
3118	3.25432
3118.5	3.30421
3119	3.7105
3119.5	4.21995
3120	4.87081
3120.5	5.52628
3121	6.14867
3121.5	6.64304
3122	6.93188
3122.5	7.08633
3123	6.88318
3123.5	6.5864
3124	6.1457
3124.5	5.77106
3125	5.48253
3125.5	5.50136
3126	5.76887
3126.5	6.21936
3127	6.78998
3127.5	7.24615
3128	7.49655
3128.5	7.29104
3129	6.87874
3129.5	6.12398
3130	5.4055
3130.5	4.71702
3131	4.54107
3131.5	4.56864
3132	4.93569
3132.5	5.40699
3133	5.86267
3133.5	5.93872
3134	5.70457
3134.5	5.18295
3135	4.30375
3135.5	3.45747
3136	2.76168
3136.5	2.48221
3137	2.44035
3137.5	2.9698
3138	3.52087
3138.5	4.09441
3139	4.2068
3139.5	4.05153
3140	3.35989
3140.5	2.40589
3141	1.34414
3141.5	0.55144
3142	0.08544
3142.5	0
3143	0.54359
3143.5	1.24716
3144	2.1133
3144.5	2.8007
3145	3.36831
3145.5	3.41183
3146	3.3395
3146.5	3.11569
3147	2.97045
3147.5	2.91049
3148	3.0921
3148.5	3.41569
3149	3.82741
3149.5	4.21276
3150	4.53175
3150.5	4.75318
3151	4.8652
3151.5	4.95347
3152	5.05743
3152.5	5.18984
3153	5.34221
3153.5	5.38879
3154	5.32497
3154.5	5.0814
3155	4.59189
3155.5	4.01459
3156	3.36346
3156.5	2.86811
3157	2.49559
3157.5	2.53866
3158	2.76115
3158.5	3.28214
3159	3.91416
3159.5	4.56865
3160	5.12102
3160.5	5.52751
3161	5.80496
3161.5	5.83455
3162	5.7984
3162.5	5.66494
3163	5.5287
3163.5	5.40114
3164	5.35459
3164.5	5.3444
3165	5.37026
3165.5	5.35987
3166	5.29372
3166.5	5.10172
3167	4.68281
3167.5	4.14107
3168	3.38491
3168.5	2.61197
3169	1.82038
3169.5	1.25851
3170	0.87026
3170.5	0.87232
3171	1.20503
3171.5	1.72828
3172	2.57834
3172.5	3.42638
3173	4.27188
3173.5	4.86052
3174	5.29011
3174.5	5.35918
3175	5.13831
3175.5	4.73981
3176	4.08591
3176.5	3.43316
3177	2.78201
3177.5	2.33686
3178	2.0116
3178.5	1.96473
3179	2.08283
3179.5	2.31123
3180	2.62305
3180.5	2.88967
3181	3.08412
3181.5	3.11837
3182	3.07899
3182.5	2.90413
3183	2.70773
3183.5	2.49513
3184	2.39953
3184.5	2.39822
3185	2.55744
3185.5	2.95693
3186	3.47867
3186.5	4.25219
3187	5.07991
3187.5	5.95342
3188	6.63143
3188.5	7.13063
3189	7.29492
3189.5	6.96665
3190	6.39862
3190.5	5.43967
3191	4.44287
3191.5	3.41023
3192	2.66179
3192.5	2.10658
3193	1.93097
3193.5	1.97202
3194	2.11093
3194.5	2.28447
3195	2.38021
3195.5	2.3934
3196	2.2892
3196.5	2.19176
3197	2.15494
3197.5	2.29961
3198	2.54893
3198.5	3.01588
3199	3.49335
3199.5	3.98334
3200	4.30612
3200.5	4.53956
3201	4.58814
3201.5	4.54172
3202	4.44261
3202.5	4.36858
3203	4.33587
3203.5	4.35836
3204	4.37675
3204.5	4.3584
3205	4.21043
3205.5	3.93215
3206	3.57013
3206.5	3.06617
3207	2.57354
3207.5	2.09794
3208	1.75701
3208.5	1.49751
3209	1.4385
3209.5	1.48892
3210	1.61782
3210.5	1.92688
3211	2.29082
3211.5	2.74052
3212	3.27948
3212.5	3.84821
3213	4.42958
3213.5	4.93343
3214	5.37481
3214.5	5.5279
3215	5.5721
3215.5	5.43747
3216	5.20076
3216.5	4.9437
3217	4.79364
3217.5	4.80698
3218	4.96801
3218.5	5.39578
3219	5.86554
3219.5	6.37612
3220	6.69278
3220.5	6.88651
3221	6.70338
3221.5	6.29505
3222	5.65854
3222.5	4.83824
3223	4.02338
3223.5	3.2785
3224	2.79972
3224.5	2.47724
3225	2.5416
3225.5	2.77989
3226	3.21576
3226.5	3.76143
3227	4.30151
3227.5	4.77468
3228	5.09074
3228.5	5.31427
3229	5.36269
3229.5	5.38644
3230	5.37875
3230.5	5.45478
3231	5.57966
3231.5	5.81339
3232	6.07516
3232.5	6.35153
3233	6.48574
3233.5	6.49925
3234	6.33982
3234.5	5.96758
3235	5.53037
3235.5	5.03889
3236	4.64914
3236.5	4.32893
3237	4.24812
3237.5	4.22901
3238	4.3049
3238.5	4.3383
3239	4.32886
3239.5	4.17108
3240	3.93854
3240.5	3.64854
3241	3.45868
3241.5	3.38051
3242	3.49847
3242.5	3.91329
3243	4.44905
3243.5	5.11156
3244	5.69853
3244.5	6.22033
3245	6.36749
3245.5	6.38934
3246	6.20887
3246.5	5.98363
3247	5.76944
3247.5	5.77657
3248	5.94995
3248.5	6.28414
3249	6.79212
3249.5	7.27461
3250	7.65234
3250.5	7.75778
3251	7.69951
3251.5	7.19126
3252	6.57511
3252.5	5.84195
3253	5.21214
3253.5	4.72628
3254	4.59231
3254.5	4.79393
3255	5.18604
3255.5	5.90348
3256	6.63748
3256.5	7.3916
3257	7.90577
3257.5	8.27022
3258	8.29907
3258.5	7.99153
3259	7.48167
3259.5	6.69093
3260	5.86342
3260.5	4.98571
3261	4.24337
3261.5	3.59289
3262	3.17217
3262.5	2.951
3263	2.85983
3263.5	3.08168
3264	3.3465
3264.5	3.67731
3265	3.96985
3265.5	4.21135
3266	4.27048
3266.5	4.19377
3267	4.01748
3267.5	3.67395
3268	3.31485
3268.5	2.93733
3269	2.66587
3269.5	2.46355
3270	2.45658
3270.5	2.60037
3271	2.86826
3271.5	3.30681
3272	3.77757
3272.5	4.2913
3273	4.77223
3273.5	5.22454
3274	5.56152
3274.5	5.81219
3275	5.98317
3275.5	5.97768
3276	5.89557
3276.5	5.67884
3277	5.379
3277.5	5.0407
3278	4.67166
3278.5	4.34952
3279	4.07592
3279.5	3.94685
3280	3.88345
3280.5	3.94101
3281	4.07019
3281.5	4.23268
3282	4.37748
3282.5	4.47869
3283	4.5293
3283.5	4.49853
3284	4.45366
3284.5	4.40717
3285	4.43349
3285.5	4.50665
3286	4.74542
3286.5	5.05502
3287	5.45688
3287.5	5.87826
3288	6.2795
3288.5	6.59639
3289	6.77915
3289.5	6.87581
3290	6.72356
3290.5	6.50007
3291	6.17223
3291.5	5.76475
3292	5.33316
3292.5	4.88418
3293	4.45768
3293.5	4.04688
3294	3.69776
3294.5	3.37699
3295	3.10123
3295.5	2.88056
3296	2.68425
3296.5	2.52837
3297	2.39617
3297.5	2.28257
3298	2.22938
3298.5	2.2171
3299	2.27582
3299.5	2.44331
3300	2.66986
3300.5	3.03102
3301	3.44528
3301.5	3.90633
3302	4.30789
3302.5	4.6318
3303	4.8009
3303.5	4.72505
3304	4.50781
3304.5	3.93412
3305	3.26315
3305.5	2.49603
3306	1.74605
3306.5	1.06506
3307	0.54696
3307.5	0.30687
3308	0.22093
3308.5	0.44283
3309	0.76622
3309.5	1.20203
3310	1.68056
3310.5	2.13184
3311	2.48867
3311.5	2.71289
3312	2.85737
3312.5	2.80678
3313	2.68922
3313.5	2.48842
3314	2.25633
3314.5	2.04083
3315	1.89893
3315.5	1.87325
3316	1.9212
3316.5	2.18103
3317	2.51649
3317.5	2.95757
3318	3.40924
3318.5	3.8352
3319	4.15251
3319.5	4.32058
3320	4.38924
3320.5	4.15376
3321	3.84412
3321.5	3.42053
3322	2.96874
3322.5	2.52668
3323	2.16597
3323.5	1.91703
3324	1.75186
3324.5	1.77361
3325	1.84497
3325.5	1.99272
3326	2.1788
3326.5	2.37733
3327	2.57574
3327.5	2.75881
3328	2.92897
3328.5	3.06883
3329	3.19328
3329.5	3.29077
3330	3.34898
3330.5	3.38365
3331	3.3546
3331.5	3.2917
3332	3.19687
3332.5	3.06622
3333	2.92929
3333.5	2.78614
3334	2.6565
3334.5	2.53725
3335	2.46293
3335.5	2.42045
3336	2.41164
3336.5	2.48394
3337	2.60057
3337.5	2.80521
3338	3.10309
3338.5	3.45372
3339	3.90228
3339.5	4.34531
3340	4.78179
3340.5	5.08905
3341	5.30425
3341.5	5.30625
3342	5.07221
3342.5	4.69494
3343	4.02055
3343.5	3.30211
3344	2.52501
3344.5	1.84609
3345	1.25675
3345.5	0.91384
3346	0.8428
3346.5	0.94674
3347	1.45382
3347.5	2.04602
3348	2.76571
3348.5	3.49315
3349	4.1894
3349.5	4.74325
3350	5.11624
3350.5	5.36002
3351	5.26032
3351.5	5.05917
3352	4.69999
3352.5	4.23673
3353	3.74072
3353.5	3.23963
3354	2.79986
3354.5	2.40931
3355	2.23072
3355.5	2.1427
3356	2.20615
3356.5	2.42809
3357	2.72858
3357.5	3.17499
3358	3.67611
3358.5	4.22648
3359	4.80718
3359.5	5.37735
3360	5.91886
3360.5	6.38923
3361	6.81452
3361.5	7.10196
3362	7.28891
3362.5	7.37442
3363	7.24919
3363.5	7.02241
3364	6.60608
3364.5	6.06439
3365	5.45796
3365.5	4.7786
3366	4.1242
3366.5	3.49806
3367	3.02622
3367.5	2.64557
3368	2.45724
3368.5	2.44827
3369	2.54162
3369.5	2.77002
3370	2.99821
3370.5	3.22613
3371	3.34652
3371.5	3.40127
3372	3.30674
3372.5	3.1065
3373	2.84137
3373.5	2.51977
3374	2.23894
3374.5	2.01629
3375	1.9533
3375.5	1.97314
3376	2.17028
3376.5	2.46608
3377	2.82908
3377.5	3.24992
3378	3.64644
3378.5	4.00286
3379	4.25256
3379.5	4.44809
3380	4.52965
3380.5	4.55454
3381	4.53604
3381.5	4.46791
3382	4.39158
3382.5	4.30404
3383	4.21316
3383.5	4.12121
3384	4.02959
3384.5	3.94839
3385	3.87614
3385.5	3.85755
3386	3.87532
3386.5	3.96005
3387	4.12825
3387.5	4.33824
3388	4.6208
3388.5	4.89937
3389	5.17407
3389.5	5.32234
3390	5.39374
3390.5	5.31574
3391	5.09227
3391.5	4.79344
3392	4.38211
3392.5	3.9789
3393	3.58446
3393.5	3.324
3394	3.14459
3394.5	3.13319
3395	3.27623
3395.5	3.50412
3396	3.83864
3396.5	4.17518
3397	4.51417
3397.5	4.79662
3398	5.04933
3398.5	5.24057
3399	5.39816
3399.5	5.53577
3400	5.65224
3400.5	5.75725
3401	5.84666
3401.5	5.86387
3402	5.83196
3402.5	5.67731
3403	5.40744
3403.5	5.06268
3404	4.56182
3404.5	4.03874
3405	3.48162
3405.5	2.98093
3406	2.52661
3406.5	2.21154
3407	2.01109
3407.5	1.89435
3408	1.91281
3408.5	1.94161
3409	1.98158
3409.5	1.97471
3410	1.94197
3410.5	1.84857
3411	1.7497
3411.5	1.64635
3412	1.6248
3412.5	1.66248
3413	1.80661
3413.5	2.07246
3414	2.39446
3414.5	2.79684
3415	3.17846
3415.5	3.54098
3416	3.77809
3416.5	3.9543
3417	4.02053
3417.5	4.01317
3418	3.97417
3418.5	3.9292
3419	3.92406
3419.5	3.96
3420	4.09562
3420.5	4.26466
3421	4.48662
3421.5	4.69897
3422	4.89869
3422.5	4.99114
3423	5.01377
3423.5	4.95563
3424	4.78491
3424.5	4.57665
3425	4.31238
3425.5	4.03816
3426	3.75936
3426.5	3.50055
3427	3.25448
3427.5	3.02494
3428	2.81814
3428.5	2.62519
3429	2.46408
3429.5	2.35547
3430	2.28134
3430.5	2.36998
3431	2.54413
3431.5	2.84308
3432	3.30682
3432.5	3.83814
3433	4.47925
3433.5	5.13036
3434	5.78843
3434.5	6.33568
3435	6.80281
3435.5	7.14113
3436	7.29608
3436.5	7.3631
3437	7.26063
3437.5	7.08434
3438	6.85026
3438.5	6.55915
3439	6.25957
3439.5	5.94917
3440	5.63223
3440.5	5.31071
3441	4.97471
3441.5	4.63188
3442	4.28306
3442.5	3.94903
3443	3.63584
3443.5	3.36429
3444	3.16389
3444.5	3.00346
3445	2.93768
3445.5	2.90906
3446	2.91701
3446.5	2.94062
3447	2.95753
3447.5	2.95392
3448	2.92866
3448.5	2.89549
3449	2.88482
3449.5	2.93692
3450	3.05829
3450.5	3.37899
3451	3.79703
3451.5	4.40327
3452	5.13688
3452.5	5.93911
3453	6.78591
3453.5	7.56957
3454	8.27505
3454.5	8.71985
3455	9.02061
3455.5	9.01344
3456	8.76049
3456.5	8.35623
3457	7.67791
3457.5	6.95214
3458	6.16036
3458.5	5.41498
3459	4.7179
3459.5	4.16509
3460	3.75237
3460.5	3.43262
3461	3.32164
3461.5	3.26378
3462	3.28757
3462.5	3.33459
3463	3.37761
3463.5	3.37272
3464	3.30522
3464.5	3.19098
3465	2.96024
3465.5	2.69115
3466	2.36133
3466.5	1.9988
3467	1.6288
3467.5	1.27652
3468	0.9687
3468.5	0.69815
3469	0.54485
3469.5	0.44578
3470	0.44011
3470.5	0.52393
3471	0.65105
3471.5	0.84828
3472	1.05738
3472.5	1.27763
3473	1.47054
3473.5	1.6412
3474	1.76713
3474.5	1.84299
3475	1.89214
3475.5	1.89169
3476	1.87963
3476.5	1.85534
3477	1.83693
3477.5	1.82662
3478	1.83553
3478.5	1.86342
3479	1.90204
3479.5	1.96053
3480	2.02581
3480.5	2.09911
3481	2.18718
3481.5	2.28542
3482	2.40687
3482.5	2.56012
3483	2.7334
3483.5	2.96723
3484	3.22668
3484.5	3.52012
3485	3.8423
3485.5	4.16889
3486	4.4893
3486.5	4.77482
3487	5.03763
3487.5	5.20467
3488	5.32647
3488.5	5.38078
3489	5.35575
3489.5	5.29865
3490	5.19162
3490.5	5.07777
3491	4.95906
3491.5	4.87221
3492	4.80693
3492.5	4.77674
3493	4.78586
3493.5	4.81046
3494	4.85345
3494.5	4.88576
3495	4.90954
3495.5	4.88092
3496	4.82495
3496.5	4.72211
3497	4.57348
3497.5	4.40448
3498	4.20824
3498.5	4.0157
3499	3.8265
3499.5	3.67156
3500	3.53444
