#Imported=	16.12.2021 13:56:06
50	0
50.5	0.12105
51	0.26674
51.5	0.42066
52	0.58314
52.5	0.78267
53	1.06319
53.5	1.49443
54	2.18526
54.5	3.06613
55	4.04685
55.5	4.96043
56	5.64985
56.5	6.01554
57	5.98405
57.5	5.78545
58	5.58138
58.5	5.52797
59	5.65914
59.5	5.93553
60	6.27637
60.5	6.61715
61	7.003
61.5	7.57234
62	8.42173
62.5	9.57678
63	10.9761
63.5	12.3295
64	13.4101
64.5	14.0521
65	14.3559
65.5	14.5476
66	14.995
66.5	16.0606
67	17.7691
67.5	20.0474
68	22.5495
68.5	24.9293
69	26.8241
69.5	28.0429
70	28.7003
70.5	28.9802
71	29.1625
71.5	29.4612
72	30.0366
72.5	30.9246
73	32.0363
73.5	33.2579
74	34.4959
74.5	35.7061
75	36.8803
75.5	38.0349
76	39.1766
76.5	40.2741
77	41.272
77.5	42.1301
78	42.7975
78.5	43.2508
79	43.4839
79.5	43.453
80	43.123
80.5	42.5187
81	41.6887
81.5	40.8105
82	40.1531
82.5	40.0683
83	40.7104
83.5	41.8953
84	43.3492
84.5	44.6177
85	45.3355
85.5	45.201
86	44.2849
86.5	42.9974
87	41.6111
87.5	40.3325
88	39.1775
88.5	38.0536
89	36.8368
89.5	35.6006
90	34.5504
90.5	34.0056
91	34.0773
91.5	34.7835
92	35.9381
92.5	37.0622
93	37.8647
93.5	38.1803
94	38.1641
94.5	38.0021
95	37.9399
95.5	38.0984
96	38.43
96.5	38.8177
97	39.1507
97.5	39.3984
98	39.6014
98.5	39.8775
99	40.3263
99.5	41.0348
100	41.9664
100.5	43.1024
101	44.4339
101.5	45.8657
102	47.3053
102.5	48.5938
103	49.6579
103.5	50.4851
104	51.1475
104.5	51.8775
105	52.9233
105.5	54.6512
106	56.9667
106.5	59.708
107	62.5979
107.5	65.279
108	67.5285
108.5	69.1582
109	70.4118
109.5	71.5785
110	72.946
110.5	74.6607
111	76.7345
111.5	79.1089
112	81.572
112.5	83.9636
113	86.1767
113.5	88.1818
114	89.9519
114.5	91.3804
115	92.391
115.5	92.9352
116	93.0636
116.5	93.0384
117	93.1521
117.5	93.7587
118	95.0483
118.5	97.0368
119	99.6202
119.5	102.488
120	105.464
120.5	108.524
121	111.753
121.5	115.281
122	119.36
122.5	124.149
123	129.766
123.5	136.659
124	145.327
124.5	156.116
125	169.648
125.5	185.957
126	203.82
126.5	221.61
127	237.136
127.5	248.656
128	254.121
128.5	252.307
129	243.792
129.5	229.747
130	212.241
130.5	193.605
131	175.589
131.5	159.706
132	146.482
132.5	136.296
133	128.661
133.5	122.746
134	118.22
134.5	114.834
135	112.288
135.5	110.543
136	109.515
136.5	108.809
137	108.15
137.5	107.236
138	105.933
138.5	104.211
139	102.207
139.5	100.291
140	98.8246
140.5	98.1992
141	98.4494
141.5	99.5542
142	101.304
142.5	103.129
143	104.482
143.5	104.879
144	104.415
144.5	103.306
145	101.975
145.5	100.927
146	100.462
146.5	100.694
147	101.202
147.5	101.712
148	101.981
148.5	102.008
149	101.877
149.5	101.714
150	101.578
150.5	101.415
151	101.149
151.5	100.806
152	100.471
152.5	100.27
153	100.192
153.5	100.051
154	99.4541
154.5	98.2635
155	96.5542
155.5	94.7035
156	93.3537
156.5	93.0426
157	94.3304
157.5	96.5937
158	99.2066
158.5	101.433
159	102.849
159.5	103.402
160	103.247
160.5	102.889
161	102.63
161.5	102.538
162	102.519
162.5	102.509
163	102.57
163.5	102.869
164	103.575
164.5	104.673
165	105.816
165.5	106.625
166	106.688
166.5	105.937
167	104.593
167.5	103.057
168	101.855
168.5	101.183
169	101.082
169.5	101.341
170	101.727
170.5	102.101
171	102.449
171.5	102.867
172	103.461
172.5	104.248
173	105.157
173.5	106.089
174	106.916
174.5	107.55
175	107.902
175.5	107.991
176	107.897
176.5	107.71
177	107.56
177.5	107.551
178	107.76
178.5	108.218
179	108.883
179.5	109.802
180	111.093
180.5	112.819
181	115.027
181.5	117.562
182	119.985
182.5	121.725
183	122.355
183.5	122.014
184	121.039
184.5	120.108
185	119.845
185.5	120.646
186	122.544
186.5	124.813
187	126.948
187.5	128.563
188	129.7
188.5	130.538
189	131.358
189.5	132.326
190	133.42
190.5	134.568
191	135.806
191.5	137.304
192	139.346
192.5	141.937
193	144.928
193.5	147.814
194	150.161
194.5	151.865
195	153.155
195.5	154.635
196	156.794
196.5	160.06
197	164.083
197.5	168.338
198	172.27
198.5	175.788
199	179.057
199.5	182.429
200	186.096
200.5	189.945
201	193.35
201.5	195.83
202	197.221
202.5	197.622
203	197.771
203.5	198.246
204	199.579
204.5	201.63
205	203.936
205.5	205.865
206	207.124
206.5	207.684
207	207.611
207.5	207.188
208	206.523
208.5	205.472
209	203.957
209.5	201.973
210	199.605
210.5	197.146
211	194.833
211.5	192.846
212	191.13
212.5	189.496
213	187.706
213.5	185.63
214	183.241
214.5	180.504
215	177.461
215.5	174.138
216	170.507
216.5	166.689
217	162.897
217.5	159.445
218	156.614
218.5	154.531
219	153.279
219.5	152.594
220	152.016
220.5	150.967
221	149.017
221.5	146.054
222	142.069
222.5	137.472
223	132.87
223.5	128.99
224	126.578
224.5	125.734
225	126.403
225.5	128.03
226	129.82
226.5	131.04
227	131.137
227.5	130.11
228	128.232
228.5	126.23
229	124.635
229.5	123.694
230	123.285
230.5	122.973
231	122.342
231.5	121.126
232	119.532
232.5	117.998
233	116.973
233.5	116.55
234	116.614
234.5	116.817
235	116.816
235.5	116.496
236	116.089
236.5	115.981
237	116.368
237.5	117.144
238	117.825
238.5	117.895
239	116.865
239.5	114.909
240	112.509
240.5	110.47
241	109.215
241.5	108.806
242	108.944
242.5	108.99
243	108.517
243.5	107.315
244	105.875
244.5	104.82
245	104.826
245.5	105.875
246	107.716
246.5	109.754
247	111.253
247.5	111.759
248	110.891
248.5	109.358
249	107.701
249.5	106.582
250	106.256
250.5	106.733
251	107.842
251.5	109.046
252	109.934
252.5	110.162
253	109.802
253.5	108.968
254	107.788
254.5	106.505
255	105.281
255.5	104.332
256	103.824
256.5	103.865
257	104.545
257.5	105.655
258	106.954
258.5	108.127
259	108.95
259.5	109.371
260	109.479
260.5	109.604
261	109.972
261.5	110.675
262	111.533
262.5	112.271
263	112.537
263.5	112.172
264	111.214
264.5	109.815
265	108.343
265.5	107.009
266	105.937
266.5	105.11
267	104.473
267.5	104.038
268	103.85
268.5	103.979
269	104.433
269.5	105.01
270	105.416
270.5	105.295
271	104.449
271.5	102.975
272	101.128
272.5	99.4342
273	98.3448
273.5	98.0809
274	98.4902
274.5	99.1836
275	99.811
275.5	100.142
276	100.235
276.5	100.32
277	100.734
277.5	101.547
278	102.584
278.5	103.443
279	103.781
279.5	103.387
280	102.36
280.5	101.158
281	100.299
281.5	100.277
282	100.968
282.5	102.064
283	103.021
283.5	103.412
284	103.026
284.5	101.965
285	100.732
285.5	99.8636
286	99.8312
286.5	100.543
287	101.789
287.5	103.191
288	104.37
288.5	105.099
289	105.231
289.5	104.872
290	104.05
290.5	102.826
291	101.398
291.5	99.9812
292	98.9555
292.5	98.5618
293	98.928
293.5	99.9814
294	101.134
294.5	101.776
295	101.31
295.5	99.9332
296	98.0502
296.5	96.4251
297	95.6936
297.5	96.1636
298	97.9324
298.5	100.245
299	102.438
299.5	103.859
300	104.478
300.5	104.446
301	104.019
301.5	103.569
302	103.251
302.5	103.112
303	103.043
303.5	102.954
304	102.805
304.5	102.631
305	102.467
305.5	102.331
306	102.19
306.5	101.99
307	101.658
307.5	101.184
308	100.632
308.5	100.142
309	99.8663
309.5	99.9022
310	100.332
310.5	101.047
311	101.892
311.5	102.688
312	103.303
312.5	103.726
313	104.003
313.5	104.19
314	104.263
314.5	104.091
315	103.569
315.5	102.705
316	101.635
316.5	100.737
317	100.37
317.5	100.753
318	101.698
318.5	102.778
319	103.491
319.5	103.479
320	102.76
320.5	101.567
321	100.425
321.5	99.7595
322	99.7293
322.5	100.142
323	100.659
323.5	101.012
324	101.095
324.5	101.022
325	100.972
325.5	101.113
326	101.433
326.5	101.791
327	102.017
327.5	102.055
328	101.935
328.5	101.761
329	101.613
329.5	101.487
330	101.292
330.5	100.961
331	100.551
331.5	100.305
332	100.464
332.5	101.205
333	102.495
333.5	103.947
334	105.11
334.5	105.476
335	104.965
335.5	103.751
336	102.373
336.5	101.341
337	100.895
337.5	101.004
338	101.25
338.5	101.269
339	100.788
339.5	99.9933
340	99.2825
340.5	99.2381
341	99.9605
341.5	101.304
342	102.826
342.5	103.987
343	104.487
343.5	104.227
344	103.645
344.5	103.142
345	103.179
345.5	103.701
346	104.565
346.5	105.606
347	106.709
347.5	107.915
348	109.346
348.5	110.952
349	112.566
349.5	113.791
350	114.417
350.5	114.531
351	114.526
351.5	115.018
352	116.461
352.5	119.272
353	123.077
353.5	127.382
354	131.468
354.5	134.664
355	136.585
355.5	136.826
356	135.546
356.5	132.91
357	129.044
357.5	124.548
358	119.957
358.5	115.87
359	112.608
359.5	110.224
360	108.561
360.5	107.261
361	106.178
361.5	105.41
362	105.117
362.5	105.389
363	106.214
363.5	107.235
364	108.049
364.5	108.244
365	107.846
365.5	107.13
366	106.401
366.5	105.85
367	105.418
367.5	104.861
368	103.916
368.5	102.531
369	100.877
369.5	99.4432
370	98.6581
370.5	98.7863
371	99.676
371.5	100.882
372	101.928
372.5	102.43
373	102.36
373.5	101.897
374	101.475
374.5	101.473
375	102.041
375.5	102.932
376	103.709
376.5	103.98
377	103.593
377.5	102.839
378	102.2
378.5	102.29
379	103.336
379.5	105.287
380	107.566
380.5	109.435
381	110.426
381.5	110.42
382	109.869
382.5	109.253
383	109.068
383.5	109.414
384	110.138
384.5	110.805
385	110.972
385.5	110.411
386	109.132
386.5	107.524
387	105.962
387.5	104.93
388	104.658
388.5	105.293
389	106.887
389.5	109.083
390	111.639
390.5	114.373
391	117.256
391.5	120.44
392	124.147
392.5	128.229
393	132.328
393.5	135.611
394	137.431
394.5	137.312
395	134.858
395.5	130.997
396	126.611
396.5	122.655
397	119.523
397.5	117.219
398	115.543
398.5	114.03
399	112.485
399.5	110.9
400	109.437
400.5	108.238
401	107.425
401.5	106.848
402	106.404
402.5	106.055
403	105.821
403.5	105.76
404	105.949
404.5	106.335
405	106.829
405.5	107.304
406	107.644
406.5	107.782
407	107.686
407.5	107.44
408	107.153
408.5	106.989
409	107.071
409.5	107.422
410	107.957
410.5	108.412
411	108.53
411.5	108.055
412	107.041
412.5	105.788
413	104.639
413.5	103.859
414	103.504
414.5	103.535
415	103.766
415.5	104.05
416	104.304
416.5	104.48
417	104.521
417.5	104.302
418	103.813
418.5	103.22
419	102.86
419.5	103.128
420	104.167
420.5	105.91
421	107.851
421.5	109.382
422	109.982
422.5	109.553
423	108.542
423.5	107.561
424	107.129
424.5	107.295
425	107.868
425.5	108.448
426	108.745
426.5	108.649
427	108.252
427.5	107.755
428	107.284
428.5	106.917
429	106.7
429.5	106.734
430	107.143
430.5	107.87
431	108.743
431.5	109.393
432	109.523
432.5	108.983
433	107.896
433.5	106.718
434	105.841
434.5	105.539
435	105.606
435.5	105.74
436	105.676
436.5	105.438
437	105.241
437.5	105.437
438	106.141
438.5	107.298
439	108.646
439.5	109.832
440	110.673
440.5	111.122
441	111.421
441.5	111.725
442	112.142
442.5	112.674
443	113.337
443.5	114.232
444	115.405
444.5	116.878
445	118.573
445.5	120.202
446	121.522
446.5	122.302
447	122.809
447.5	123.387
448	124.536
448.5	126.394
449	128.88
449.5	131.695
450	134.333
450.5	136.491
451	137.977
451.5	139.054
452	140.032
452.5	141.32
453	143.148
453.5	145.636
454	149.045
454.5	153.417
455	158.83
455.5	165.487
456	173.178
456.5	181.733
457	191.244
457.5	201.868
458	214.08
458.5	229.093
459	247.506
459.5	269.317
460	294.658
460.5	322.538
461	352.059
461.5	382.714
462	413.962
462.5	445.335
463	475.877
463.5	503.931
464	527.486
464.5	543.037
465	548.08
465.5	542.51
466	525.829
466.5	500.425
467	469.633
467.5	436.094
468	402.665
468.5	371.064
469	342.404
469.5	316.803
470	293.667
470.5	272.753
471	253.78
471.5	236.615
472	221.631
472.5	209.109
473	198.823
473.5	190.648
474	184.048
474.5	178.288
475	172.984
475.5	167.934
476	163.126
476.5	158.686
477	154.712
477.5	151.153
478	148.009
478.5	145.313
479	143.07
479.5	141.321
480	139.961
480.5	138.675
481	137.147
481.5	135.108
482	132.637
482.5	129.976
483	127.568
483.5	125.749
484	124.729
484.5	124.6
485	125.018
485.5	125.76
486	126.534
486.5	127.034
487	126.982
487.5	126.058
488	124.348
488.5	122.003
489	119.355
489.5	116.868
490	114.837
490.5	113.503
491	112.748
491.5	112.488
492	112.713
492.5	113.271
493	114.029
493.5	114.685
494	114.919
494.5	114.528
495	113.439
495.5	112.11
496	110.987
496.5	110.596
497	110.907
497.5	111.658
498	112.325
498.5	112.533
499	112.253
499.5	111.689
500	111.217
500.5	111.006
501	111.043
501.5	111.08
502	110.932
502.5	110.517
503	109.988
503.5	109.502
504	109.129
504.5	108.729
505	108.102
505.5	107.127
506	106.036
506.5	105.208
507	105.163
507.5	106.038
508	107.633
508.5	109.471
509	110.851
509.5	111.303
510	110.481
510.5	108.665
511	106.367
511.5	104.197
512	102.724
512.5	102.166
513	102.597
513.5	103.699
514	105.063
514.5	106.297
515	107.123
515.5	107.505
516	107.545
516.5	107.527
517	107.693
517.5	108.182
518	108.902
518.5	109.608
519	110.004
519.5	109.884
520	109.311
520.5	108.399
521	107.361
521.5	106.377
522	105.578
522.5	105.084
523	104.972
523.5	105.379
524	106.354
524.5	107.711
525	109.156
525.5	110.222
526	110.607
526.5	110.162
527	109.116
527.5	108.01
528	107.245
528.5	107.01
529	107.069
529.5	107.074
530	106.66
530.5	105.823
531	104.804
531.5	104.116
532	104.127
532.5	104.998
533	106.564
533.5	108.24
534	109.498
534.5	109.811
535	109.288
535.5	108.161
536	106.867
536.5	105.879
537	105.472
537.5	105.782
538	106.488
538.5	107.24
539	107.554
539.5	107.227
540	106.247
540.5	104.822
541	103.455
541.5	102.508
542	102.324
542.5	102.717
543	103.429
543.5	104.125
544	104.544
544.5	104.568
545	104.083
545.5	103.218
546	102.069
546.5	100.806
547	99.7211
547.5	99.0888
548	99.2988
548.5	100.324
549	102.015
549.5	104.041
550	105.856
550.5	107.089
551	107.461
551.5	107.199
552	106.61
552.5	106.088
553	105.933
553.5	106.224
554	106.873
554.5	107.528
555	107.881
555.5	107.664
556	106.991
556.5	106.164
557	105.634
557.5	105.705
558	106.375
558.5	107.393
559	108.236
559.5	108.597
560	108.389
560.5	107.93
561	107.596
561.5	107.664
562	108.054
562.5	108.432
563	108.343
563.5	107.522
564	106.046
564.5	104.185
565	102.436
565.5	101.185
566	100.752
566.5	101.204
567	102.414
567.5	104.249
568	106.391
568.5	108.451
569	109.974
569.5	110.555
570	110.105
570.5	108.623
571	106.448
571.5	104.084
572	101.963
572.5	100.432
573	99.5718
573.5	99.4386
574	99.9667
574.5	100.939
575	102.176
575.5	103.396
576	104.337
576.5	104.825
577	104.845
577.5	104.623
578	104.386
578.5	104.33
579	104.438
579.5	104.552
580	104.419
580.5	103.953
581	103.252
581.5	102.674
582	102.606
582.5	103.324
583	104.873
583.5	106.8
584	108.65
584.5	109.955
585	110.678
585.5	111.007
586	111.25
586.5	111.59
587	111.952
587.5	112.01
588	111.534
588.5	110.448
589	108.891
589.5	107.305
590	105.99
590.5	105.151
591	104.622
591.5	104.233
592	103.871
592.5	103.568
593	103.443
593.5	103.596
594	103.836
594.5	103.878
595	103.346
595.5	102.31
596	101.04
596.5	100.089
597	99.8587
597.5	100.486
598	101.898
598.5	103.543
599	104.992
599.5	105.829
600	106.022
600.5	105.658
601	104.844
601.5	103.827
602	102.776
602.5	101.882
603	101.287
603.5	101.066
604	101.273
604.5	101.741
605	102.288
605.5	102.754
606	103.087
606.5	103.341
607	103.65
607.5	104.156
608	104.923
608.5	105.945
609	107.022
609.5	107.878
610	108.114
610.5	107.49
611	106.017
611.5	103.853
612	101.538
612.5	99.6065
613	98.5465
613.5	98.4391
614	99.0073
614.5	99.8929
615	100.702
615.5	101.309
616	101.768
616.5	102.233
617	102.775
617.5	103.342
618	103.793
618.5	104.049
619	104.106
619.5	104.065
620	104.007
620.5	103.895
621	103.569
621.5	102.903
622	101.855
622.5	100.631
623	99.5989
623.5	99.1333
624	99.4515
624.5	100.366
625	101.582
625.5	102.666
626	103.377
626.5	103.656
627	103.633
627.5	103.548
628	103.552
628.5	103.702
629	103.916
629.5	104.075
630	104.038
630.5	103.769
631	103.283
631.5	102.694
632	102.216
632.5	102.086
633	102.586
633.5	103.715
634	105.377
634.5	107.237
635	108.767
635.5	109.5
636	108.966
636.5	107.377
637	105.09
637.5	102.714
638	100.811
638.5	99.6526
639	99.3116
639.5	99.3636
640	99.4938
640.5	99.4517
641	99.2626
641.5	99.0694
642	99.0853
642.5	99.3441
643	99.787
643.5	100.315
644	100.877
644.5	101.552
645	102.546
645.5	103.89
646	105.471
646.5	106.954
647	107.963
647.5	108.287
648	107.837
648.5	106.997
649	106.112
649.5	105.471
650	105.081
650.5	104.815
651	104.485
651.5	103.988
652	103.328
652.5	102.569
653	101.818
653.5	101.142
654	100.614
654.5	100.258
655	100.071
655.5	100.023
656	99.991
656.5	99.8735
657	99.6279
657.5	99.3789
658	99.3295
658.5	99.7271
659	100.579
659.5	101.672
660	102.634
660.5	103.118
661	103.032
661.5	102.47
662	101.795
662.5	101.283
663	101.059
663.5	101.034
664	101.059
664.5	101.049
665	101.026
665.5	101.067
666	101.245
666.5	101.571
667	102.029
667.5	102.665
668	103.551
668.5	104.674
669	105.895
669.5	106.85
670	107.185
670.5	106.626
671	105.304
671.5	103.78
672	102.685
672.5	102.504
673	103.097
673.5	104.001
674	104.466
674.5	104.079
675	102.819
675.5	101.211
676	99.9867
676.5	99.6069
677	100.098
677.5	100.9
678	101.455
678.5	101.332
679	100.71
679.5	100.05
680	100.067
680.5	101.063
681	102.993
681.5	105.315
682	107.192
682.5	107.994
683	107.337
683.5	105.728
684	103.742
684.5	102.089
685	101.081
685.5	100.684
686	100.616
686.5	100.511
687	100.298
687.5	100.196
688	100.503
688.5	101.361
689	102.644
689.5	103.795
690	104.33
690.5	103.781
691	102.46
691.5	100.828
692	99.5661
692.5	99.0653
693	99.437
693.5	100.654
694	102.266
694.5	103.985
695	105.56
695.5	106.899
696	107.999
696.5	108.877
697	109.621
697.5	110.232
698	110.55
698.5	110.391
699	109.583
699.5	107.997
700	106.014
700.5	104.144
701	103.071
701.5	103.007
702	103.718
702.5	104.557
703	104.704
703.5	103.765
704	101.745
704.5	99.4187
705	97.523
705.5	96.6075
706	96.4584
706.5	96.5025
707	96.0977
707.5	95.0429
708	93.6631
708.5	92.6281
709	92.4924
709.5	93.33
710	94.9225
710.5	96.6851
711	98.1929
711.5	99.2383
712	99.9147
712.5	100.393
713	100.718
713.5	100.829
714	100.647
714.5	100.13
715	99.4273
715.5	98.7709
716	98.3719
716.5	98.2957
717	98.423
717.5	98.589
718	98.6437
718.5	98.5816
719	98.5148
719.5	98.6405
720	99.0799
720.5	99.8916
721	100.991
721.5	102.192
722	103.341
722.5	104.318
723	105.087
723.5	105.581
724	105.671
724.5	105.27
725	104.258
725.5	102.685
726	100.918
726.5	99.4052
727	98.6616
727.5	98.7702
728	99.5848
728.5	100.622
729	101.346
729.5	101.501
730	101.142
730.5	100.7
731	100.542
731.5	100.915
732	101.638
732.5	102.422
733	102.867
733.5	102.796
734	102.157
734.5	101.011
735	99.6528
735.5	98.3186
736	97.3023
736.5	96.7078
737	96.5242
737.5	96.5762
738	96.5263
738.5	96.1934
739	95.6301
739.5	95.286
740	95.6455
740.5	97.2704
741	99.8254
741.5	102.755
742	105.089
742.5	106.23
743	106.037
743.5	104.708
744	103.078
744.5	101.641
745	100.654
745.5	99.8904
746	99.0898
746.5	98.0733
747	96.9657
747.5	95.9883
748	95.388
748.5	95.129
749	95.0565
749.5	94.979
750	94.8095
750.5	94.6093
751	94.5384
751.5	94.6978
752	95.0874
752.5	95.646
753	96.2328
753.5	96.7392
754	97.0351
754.5	97.0316
755	96.6692
755.5	95.8925
756	94.8542
756.5	93.7907
757	93.0221
757.5	92.7826
758	93.136
758.5	94.0879
759	95.4033
759.5	96.7996
760	97.9576
760.5	98.6031
761	98.6322
761.5	98.0367
762	97.1357
762.5	96.3518
763	96.0803
763.5	96.4064
764	97.0243
764.5	97.4275
765	97.1439
765.5	96.1553
766	94.8042
766.5	93.8109
767	93.7049
767.5	94.7405
768	96.5928
768.5	98.5901
769	100.15
769.5	100.937
770	101.059
770.5	100.675
771	99.9669
771.5	99.044
772	97.9205
772.5	96.6942
773	95.5685
773.5	94.7541
774	94.3506
774.5	94.1927
775	94.0804
775.5	93.8817
776	93.7093
776.5	93.8434
777	94.5903
777.5	95.8588
778	97.343
778.5	98.4988
779	99.006
779.5	98.8111
780	98.149
780.5	97.4316
781	96.8164
781.5	96.205
782	95.378
782.5	94.2507
783	93.038
783.5	92.2021
784	92.1301
784.5	93.0366
785	94.4475
785.5	95.8564
786	96.7019
786.5	96.9344
787	96.7387
787.5	96.428
788	96.1842
788.5	95.8953
789	95.2112
789.5	94.0349
790	92.5311
790.5	91.2711
791	90.8128
791.5	91.4131
792	93.0045
792.5	94.7802
793	96.111
793.5	96.5058
794	96.3239
794.5	96.1575
795	96.798
795.5	98.4031
796	100.664
796.5	102.829
797	104.143
797.5	104.29
798	103.258
798.5	101.706
799	100.14
799.5	98.8846
800	97.909
800.5	97.0992
801	96.4886
801.5	96.2612
802	96.6218
802.5	97.6741
803	98.9843
803.5	99.9513
804	99.8688
804.5	98.6194
805	96.5873
805.5	94.4588
806	92.957
806.5	92.3431
807	92.5759
807.5	93.2017
808	93.8845
808.5	94.5433
809	95.2844
809.5	96.1578
810	96.9882
810.5	97.3855
811	97.0793
811.5	96.0037
812	94.6067
812.5	93.4773
813	93.0878
813.5	93.4257
814	94.0496
814.5	94.4684
815	94.4302
815.5	94.1478
816	94.0668
816.5	94.5872
817	95.6557
817.5	96.9047
818	97.7316
818.5	97.807
819	97.0688
819.5	95.8421
820	94.5933
820.5	93.6225
821	93.0327
821.5	92.7041
822	92.5381
822.5	92.4674
823	92.4614
823.5	92.5148
824	92.616
824.5	92.7628
825	92.9945
825.5	93.3493
826	93.7467
826.5	93.9801
827	93.6967
827.5	92.7666
828	91.2499
828.5	89.5728
829	88.3508
829.5	88.0452
830	88.86
830.5	90.2879
831	91.7883
831.5	92.7749
832	93.1417
832.5	93.0538
833	92.8954
833.5	92.9974
834	93.434
834.5	94.0461
835	94.4962
835.5	94.5376
836	93.9704
836.5	92.9716
837	91.7364
837.5	90.5475
838	89.6288
838.5	89.0869
839	88.988
839.5	89.1531
840	89.4621
840.5	89.8173
841	90.1606
841.5	90.4704
842	90.6819
842.5	90.7283
843	90.5626
843.5	90.2207
844	89.9444
844.5	89.9884
845	90.6202
845.5	91.6803
846	92.8313
846.5	93.5256
847	93.4702
847.5	92.6871
848	91.4568
848.5	90.3243
849	89.6104
849.5	89.4603
850	89.649
850.5	89.9671
851	90.3333
851.5	90.7977
852	91.4177
852.5	92.1168
853	92.5974
853.5	92.555
854	91.724
854.5	90.3089
855	88.7415
855.5	87.5722
856	87.1458
856.5	87.4528
857	88.3015
857.5	89.2473
858	89.9453
858.5	90.1392
859	89.8124
859.5	89.1135
860	88.2425
860.5	87.4889
861	87.0572
861.5	87.0753
862	87.4495
862.5	87.9673
863	88.468
863.5	88.9296
864	89.4768
864.5	90.2516
865	91.1842
865.5	91.9419
866	92.0376
866.5	91.1739
867	89.6265
867.5	88.0132
868	87.1994
868.5	87.5571
869	88.9922
869.5	90.7348
870	91.895
870.5	91.924
871	90.9065
871.5	89.592
872	88.7081
872.5	88.7566
873	89.5484
873.5	90.6728
874	91.5717
874.5	91.9561
875	91.7482
875.5	91.0156
876	89.9595
876.5	88.6745
877	87.2885
877.5	86.0038
878	85.0354
878.5	84.5874
879	84.5636
879.5	84.7868
880	84.9825
880.5	84.9838
881	84.7997
881.5	84.597
882	84.5654
882.5	84.7782
883	85.1719
883.5	85.5335
884	85.7154
884.5	85.6541
885	85.5117
885.5	85.4648
886	85.6902
886.5	86.1094
887	86.5382
887.5	86.6601
888	86.381
888.5	85.7941
889	85.2488
889.5	85.1351
890	85.6287
890.5	86.6635
891	87.7
891.5	88.29
892	88.0427
892.5	87.2178
893	86.2278
893.5	85.6383
894	85.6911
894.5	86.3375
895	87.3357
895.5	88.2639
896	88.8519
896.5	88.8192
897	88.1278
897.5	86.7838
898	84.8449
898.5	82.7372
899	80.9429
899.5	80.0888
900	80.3437
900.5	81.5131
901	83.1405
901.5	84.5303
902	85.2902
902.5	85.2473
903	84.6929
903.5	83.9623
904	83.303
904.5	82.7981
905	82.4114
905.5	82.1279
906	81.9962
906.5	82.1242
907	82.6831
907.5	83.6955
908	85.0306
908.5	86.4602
909	87.6564
909.5	88.4008
910	88.5515
910.5	88.2326
911	87.7027
911.5	87.1806
912	86.7797
912.5	86.4542
913	86.1226
913.5	85.7968
914	85.6388
914.5	85.9238
915	86.7982
915.5	88.0547
916	89.2476
916.5	89.7556
917	89.2849
917.5	87.8125
918	85.8319
918.5	84.0752
919	83.1609
919.5	83.394
920	84.4532
920.5	85.8644
921	86.975
921.5	87.4035
922	87.0237
922.5	86.0418
923	84.9311
923.5	84.0515
924	83.6458
924.5	83.6628
925	84.0488
925.5	84.7919
926	85.8426
926.5	87.1132
927	88.2159
927.5	88.6081
928	87.7871
928.5	85.5571
929	82.7244
929.5	80.2811
930	79.4046
930.5	80.1413
931	81.9353
931.5	83.5546
932	84.0123
932.5	83.0718
933	81.2435
933.5	79.6827
934	79.0703
934.5	79.6603
935	80.7627
935.5	81.8241
936	82.4641
936.5	82.839
937	83.1592
937.5	83.479
938	83.5844
938.5	83.2392
939	82.3613
939.5	81.4254
940	80.9317
940.5	81.3708
941	82.4498
941.5	83.625
942	84.0718
942.5	83.4628
943	81.8928
943.5	79.8194
944	78.0391
944.5	77.0943
945	77.4811
945.5	78.9715
946	81.1666
946.5	83.4457
947	85.1546
947.5	85.9519
948	85.6669
948.5	84.7144
949	83.4994
949.5	82.2982
950	81.1595
950.5	80.0138
951	78.9132
951.5	78.1588
952	78.1256
952.5	79.1779
953	81.0086
953.5	82.933
954	84.0307
954.5	83.7967
955	82.4086
955.5	80.5011
956	79.0765
956.5	78.7281
957	79.6638
957.5	81.3133
958	82.8857
958.5	83.6242
959	83.2
959.5	81.8225
960	79.9047
960.5	78.1001
961	76.8573
961.5	76.4336
962	76.7104
962.5	77.3512
963	78.0956
963.5	78.7986
964	79.4771
964.5	80.1626
965	80.761
965.5	81.0656
966	80.8111
966.5	79.9199
967	78.6703
967.5	77.4557
968	76.686
968.5	76.4177
969	76.4722
969.5	76.4714
970	76.19
970.5	75.6815
971	75.3116
971.5	75.4503
972	76.3109
972.5	77.7925
973	79.4362
973.5	80.8295
974	81.6312
974.5	81.8511
975	81.5333
975.5	80.7206
976	79.5265
976.5	78.0086
977	76.3882
977.5	75.0851
978	74.5477
978.5	75.1481
979	76.5502
979.5	78.2293
980	79.3667
980.5	79.5385
981	78.731
981.5	77.3986
982	76.3654
982.5	76.1716
983	77.147
983.5	78.8101
984	80.6502
984.5	81.9962
985	82.5294
985.5	82.1495
986	80.8915
986.5	79.31
987	77.8724
987.5	77.1804
988	77.3116
988.5	78.0661
989	78.8691
989.5	79.072
990	78.4123
990.5	77.0438
991	75.7986
991.5	75.3675
992	76.2919
992.5	78.1454
993	80.3449
993.5	82.1961
994	83.3525
994.5	83.7678
995	83.4174
995.5	82.4828
996	81.058
996.5	79.267
997	77.4802
997.5	76.0419
998	75.272
998.5	75.0682
999	75.1754
999.5	75.3672
1000	75.597
1000.5	76.0119
1001	76.8033
1001.5	77.8448
1002	78.7803
1002.5	79.1261
1003	78.7551
1003.5	77.9514
1004	77.2458
1004.5	77.0448
1005	77.2774
1005.5	77.501
1006	77.1622
1006.5	76.1101
1007	74.6102
1007.5	73.3844
1008	72.9946
1008.5	73.7205
1009	75.1544
1009.5	76.5878
1010	77.3731
1010.5	77.2972
1011	76.7008
1011.5	76.115
1012	76.0219
1012.5	76.4273
1013	76.9787
1013.5	77.0969
1014	76.5321
1014.5	75.4454
1015	74.5479
1015.5	74.5555
1016	75.8721
1016.5	78.1895
1017	80.6009
1017.5	82.1913
1018	82.3187
1018.5	81.1989
1019	79.3266
1019.5	77.5135
1020	76.357
1020.5	76.1492
1021	76.835
1021.5	77.9468
1022	79.0503
1022.5	79.6755
1023	79.651
1023.5	78.9712
1024	77.8768
1024.5	76.8053
1025	76.0715
1025.5	75.8538
1026	75.9798
1026.5	76.2433
1027	76.4393
1027.5	76.5106
1028	76.4696
1028.5	76.3077
1029	75.9941
1029.5	75.4713
1030	74.7372
1030.5	73.9668
1031	73.3456
1031.5	73.0647
1032	73.067
1032.5	73.2347
1033	73.417
1033.5	73.5586
1034	73.7355
1034.5	74.1509
1035	74.9016
1035.5	75.9994
1036	77.3383
1036.5	78.597
1037	79.4819
1037.5	79.6044
1038	78.9836
1038.5	77.725
1039	76.0539
1039.5	74.3727
1040	72.8948
1040.5	71.7508
1041	70.8728
1041.5	70.2581
1042	70.0864
1042.5	70.4759
1043	71.4854
1043.5	73.048
1044	74.7351
1044.5	76.1792
1045	77.0361
1045.5	77.3051
1046	77.0629
1046.5	76.2896
1047	75.0862
1047.5	73.5866
1048	72.1062
1048.5	71.0964
1049	70.8332
1049.5	71.3772
1050	72.2287
1050.5	72.8641
1051	72.9102
1051.5	72.5282
1052	72.1267
1052.5	72.0989
1053	72.4562
1053.5	72.9133
1054	73.1457
1054.5	73.1076
1055	73.0287
1055.5	73.1652
1056	73.4479
1056.5	73.4842
1057	72.8124
1057.5	71.452
1058	69.9682
1058.5	69.2152
1059	69.7889
1059.5	71.5221
1060	73.8024
1060.5	75.6554
1061	76.5179
1061.5	76.2282
1062	75.2083
1062.5	74.071
1063	73.2628
1063.5	73.0095
1064	73.2498
1064.5	73.8901
1065	74.7228
1065.5	75.4892
1066	75.9644
1066.5	76.0216
1067	75.7707
1067.5	75.387
1068	75.0654
1068.5	74.8307
1069	74.5415
1069.5	73.9661
1070	73.0549
1070.5	71.9384
1071	70.9878
1071.5	70.5464
1072	70.8358
1072.5	71.8435
1073	73.171
1073.5	74.4223
1074	75.1886
1074.5	75.4166
1075	75.2149
1075.5	74.8804
1076	74.7303
1076.5	74.8878
1077	75.2378
1077.5	75.4309
1078	75.1646
1078.5	74.2504
1079	72.9786
1079.5	71.7158
1080	70.9265
1080.5	70.7181
1081	71.0102
1081.5	71.5764
1082	72.1234
1082.5	72.5493
1083	72.83
1083.5	72.9913
1084	72.9797
1084.5	72.6517
1085	72.0349
1085.5	71.2334
1086	70.5059
1086.5	70.1039
1087	70.1609
1087.5	70.7468
1088	71.6264
1088.5	72.6059
1089	73.4394
1089.5	73.9332
1090	73.908
1090.5	73.1289
1091	71.7359
1091.5	69.9657
1092	68.2741
1092.5	67.1608
1093	66.9269
1093.5	67.7597
1094	69.2175
1094.5	70.776
1095	71.7622
1095.5	71.8013
1096	70.8604
1096.5	69.1735
1097	67.4762
1097.5	66.415
1098	66.5954
1098.5	67.7354
1099	69.1534
1099.5	69.8927
1100	69.3969
1100.5	67.8381
1101	66.0046
1101.5	65.069
1102	65.6551
1102.5	67.8062
1103	70.46
1103.5	72.4585
1104	72.8854
1104.5	71.8632
1105	70.2119
1105.5	68.8998
1106	68.4731
1106.5	68.7145
1107	69.0502
1107.5	68.8277
1108	67.8388
1108.5	66.2131
1109	64.5148
1109.5	63.3338
1110	63.2176
1110.5	64.3477
1111	66.3789
1111.5	68.7226
1112	70.468
1112.5	71.0037
1113	70.0215
1113.5	68.0644
1114	66.0911
1114.5	64.9107
1115	64.9038
1115.5	65.718
1116	66.8731
1116.5	67.9032
1117	68.7201
1117.5	69.4883
1118	70.4214
1118.5	71.4904
1119	72.4554
1119.5	72.9461
1120	72.8135
1120.5	72.0616
1121	70.8854
1121.5	69.6018
1122	68.4482
1122.5	67.661
1123	67.2887
1123.5	67.2996
1124	67.511
1124.5	67.6594
1125	67.6317
1125.5	67.5267
1126	67.6053
1126.5	68.0341
1127	68.7102
1127.5	69.1598
1128	68.9692
1128.5	67.9306
1129	66.5334
1129.5	65.3549
1130	65.0506
1130.5	65.5975
1131	66.6942
1131.5	67.7561
1132	68.287
1132.5	68.0714
1133	67.0201
1133.5	65.5293
1134	63.9726
1134.5	62.9707
1135	62.8812
1135.5	63.851
1136	65.76
1136.5	67.8128
1137	69.387
1137.5	69.9433
1138	69.7564
1138.5	69.2499
1139	68.8513
1139.5	68.6015
1140	68.2419
1140.5	67.4149
1141	66.274
1141.5	65.325
1142	65.3524
1142.5	66.5684
1143	68.7218
1143.5	71.1603
1144	73.0359
1144.5	73.8778
1145	73.4014
1145.5	72.0214
1146	70.2441
1146.5	68.6812
1147	67.856
1147.5	67.9806
1148	68.9807
1148.5	70.2282
1149	71.1013
1149.5	71.0826
1150	70.298
1150.5	69.2618
1151	68.6358
1151.5	68.7746
1152	69.5431
1152.5	70.5651
1153	71.4238
1153.5	72.055
1154	72.6995
1154.5	73.6267
1155	74.789
1155.5	75.8175
1156	76.2271
1156.5	75.8729
1157	74.9763
1157.5	74.2565
1158	74.3581
1158.5	75.6777
1159	77.899
1159.5	80.2244
1160	81.7672
1160.5	82.0803
1161	81.4506
1161.5	80.3903
1162	79.5031
1162.5	78.968
1163	78.5568
1163.5	77.7678
1164	76.3304
1164.5	74.2708
1165	72.0292
1165.5	70.1319
1166	68.9567
1166.5	68.5737
1167	68.6885
1167.5	69.0707
1168	69.4428
1168.5	69.5412
1169	69.0912
1169.5	67.8939
1170	66.1933
1170.5	64.4737
1171	63.5463
1171.5	63.8534
1172	65.5001
1172.5	67.9595
1173	70.2463
1173.5	71.6859
1174	71.8538
1174.5	71.046
1175	69.5274
1175.5	67.5473
1176	65.3902
1176.5	63.2678
1177	61.5718
1177.5	60.598
1178	60.5641
1178.5	61.434
1179	62.6262
1179.5	63.7135
1180	64.3355
1180.5	64.5355
1181	64.417
1181.5	64.0193
1182	63.3585
1182.5	62.3944
1183	61.2174
1183.5	60.2276
1184	59.8604
1184.5	60.5408
1185	61.9361
1185.5	63.5919
1186	64.86
1186.5	65.4619
1187	65.4653
1187.5	65.1857
1188	65.0396
1188.5	65.1508
1189	65.4064
1189.5	65.5311
1190	65.4104
1190.5	65.1302
1191	64.9271
1191.5	64.9081
1192	64.987
1192.5	64.8866
1193	64.4084
1193.5	63.5003
1194	62.4858
1194.5	61.7251
1195	61.5702
1195.5	61.9649
1196	62.6128
1196.5	63.18
1197	63.4777
1197.5	63.5379
1198	63.4947
1198.5	63.4858
1199	63.5129
1199.5	63.475
1200	63.2991
1200.5	63.0426
1201	62.9109
1201.5	63.0953
1202	63.6064
1202.5	64.2899
1203	64.8179
1203.5	64.9432
1204	64.5001
1204.5	63.5892
1205	62.4394
1205.5	61.2739
1206	60.3064
1206.5	59.6553
1207	59.4055
1207.5	59.5064
1208	59.7822
1208.5	60.0079
1209	59.9693
1209.5	59.654
1210	59.2356
1210.5	59.0755
1211	59.4204
1211.5	60.3365
1212	61.4843
1212.5	62.3578
1213	62.5791
1213.5	62.1276
1214	61.4451
1214.5	61.0873
1215	61.5494
1215.5	62.7939
1216	64.5029
1216.5	66.0458
1217	66.9189
1217.5	66.9059
1218	66.1066
1218.5	64.8849
1219	63.4485
1219.5	61.9556
1220	60.5657
1220.5	59.5287
1221	59.2437
1221.5	59.8161
1222	61.1644
1222.5	62.7624
1223	63.9011
1223.5	64.1609
1224	63.456
1224.5	62.3259
1225	61.2518
1225.5	60.6717
1226	60.6275
1226.5	61.0822
1227	62.0191
1227.5	63.2807
1228	64.669
1228.5	65.7469
1229	66.1493
1229.5	65.7108
1230	64.5725
1230.5	63.3977
1231	62.6481
1231.5	62.5691
1232	62.7475
1232.5	62.7512
1233	62.3073
1233.5	61.7427
1234	61.4721
1234.5	61.9075
1235	62.8202
1235.5	63.805
1236	64.311
1236.5	64.1926
1237	63.548
1237.5	62.5601
1238	61.4649
1238.5	60.335
1239	59.3179
1239.5	58.6823
1240	58.7194
1240.5	59.7059
1241	61.2858
1241.5	62.9253
1242	63.9286
1242.5	64.0428
1243	63.4915
1243.5	62.7001
1244	62.0546
1244.5	61.5825
1245	61.0683
1245.5	60.3335
1246	59.4929
1246.5	59.012
1247	59.3559
1247.5	60.6032
1248	62.3279
1248.5	63.6442
1249	63.908
1249.5	62.7515
1250	60.6825
1250.5	58.5111
1251	57.0887
1251.5	56.8166
1252	57.5456
1252.5	58.8579
1253	60.1557
1253.5	61.1338
1254	61.7095
1254.5	62.0583
1255	62.3964
1255.5	62.8368
1256	63.29
1256.5	63.5066
1257	63.1019
1257.5	61.9597
1258	60.3639
1258.5	58.8483
1259	58.0855
1259.5	58.3351
1260	59.4964
1260.5	60.9087
1261	61.8711
1261.5	62.0101
1262	61.6527
1262.5	61.5555
1263	62.3104
1263.5	63.9631
1264	65.8234
1264.5	66.9962
1265	66.6846
1265.5	64.9645
1266	62.2839
1266.5	59.5749
1267	57.585
1267.5	56.6579
1268	56.768
1268.5	57.4492
1269	58.3538
1269.5	59.1683
1270	59.7458
1270.5	60.0171
1271	59.9147
1271.5	59.4973
1272	58.7886
1272.5	57.8762
1273	56.9594
1273.5	56.2094
1274	55.7666
1274.5	55.5587
1275	55.4791
1275.5	55.4503
1276	55.5398
1276.5	55.94
1277	56.898
1277.5	58.2977
1278	59.9006
1278.5	61.3047
1279	62.281
1279.5	62.8009
1280	62.978
1280.5	63.1441
1281	63.578
1281.5	64.8783
1282	67.4886
1282.5	71.808
1283	77.9756
1283.5	84.5638
1284	89.8821
1284.5	91.1505
1285	88.2108
1285.5	81.8788
1286	73.9702
1286.5	66.9559
1287	62.0095
1287.5	59.5699
1288	58.5055
1288.5	58.0333
1289	57.9178
1289.5	58.301
1290	59.3191
1290.5	60.7803
1291	62.0178
1291.5	62.5286
1292	62.0277
1292.5	60.9374
1293	59.7592
1293.5	58.9475
1294	58.5784
1294.5	58.5554
1295	58.7697
1295.5	59.0387
1296	59.1797
1296.5	58.9195
1297	58.1271
1297.5	56.8834
1298	55.5406
1298.5	54.603
1299	54.3573
1299.5	54.9095
1300	55.9091
1300.5	56.9088
1301	57.5034
1301.5	57.566
1302	57.2771
1302.5	56.9684
1303	56.9462
1303.5	57.2781
1304	57.8683
1304.5	58.4714
1305	58.9315
1305.5	59.2249
1306	59.4219
1306.5	59.4928
1307	59.1733
1307.5	58.162
1308	56.5007
1308.5	54.6048
1309	53.3487
1309.5	53.3744
1310	54.9341
1310.5	57.3222
1311	59.2564
1311.5	59.7306
1312	58.4255
1312.5	56.0631
1313	53.5602
1313.5	51.8661
1314	51.243
1314.5	51.5992
1315	52.4424
1315.5	53.3654
1316	54.2573
1316.5	55.1229
1317	55.9239
1317.5	56.4717
1318	56.4618
1318.5	55.8432
1319	54.828
1319.5	53.9824
1320	53.8033
1320.5	54.5492
1321	56.124
1321.5	57.9386
1322	59.4999
1322.5	60.3552
1323	60.4749
1323.5	59.88
1324	58.5188
1324.5	56.6184
1325	54.4738
1325.5	52.7367
1326	51.9812
1326.5	52.5446
1327	54.3328
1327.5	56.3534
1328	57.9036
1328.5	58.4085
1329	58.1039
1329.5	57.312
1330	56.3701
1330.5	55.5031
1331	54.8028
1331.5	54.4737
1332	54.6158
1332.5	55.2387
1333	56.1227
1333.5	56.8018
1334	57.0167
1334.5	56.7677
1335	56.5233
1335.5	56.5813
1336	56.9147
1336.5	57.0779
1337	56.7283
1337.5	55.7885
1338	54.7986
1338.5	54.308
1339	54.6757
1339.5	55.447
1340	56.0927
1340.5	56.2003
1341	55.9744
1341.5	55.8825
1342	56.4521
1342.5	57.6455
1343	58.9941
1343.5	59.8249
1344	59.84
1344.5	59.151
1345	58.0664
1345.5	57.0003
1346	56.1079
1346.5	55.3564
1347	54.612
1347.5	53.8743
1348	53.3135
1348.5	53.1311
1349	53.4017
1349.5	54.0838
1350	54.884
1350.5	55.4981
1351	55.7263
1351.5	55.6478
1352	55.5109
1352.5	55.619
1353	56.1584
1353.5	57.0681
1354	58.1122
1354.5	58.8545
1355	58.9902
1355.5	58.2953
1356	56.8901
1356.5	55.1916
1357	53.7114
1357.5	52.9305
1358	52.912
1358.5	53.3245
1359	53.4935
1359.5	52.9787
1360	51.7462
1360.5	50.4202
1361	49.854
1361.5	50.7594
1362	53.1217
1362.5	55.9135
1363	58.1085
1363.5	58.8893
1364	58.382
1364.5	57.0725
1365	55.7815
1365.5	55.1005
1366	55.1871
1366.5	55.8454
1367	56.6439
1367.5	57.2258
1368	57.2272
1368.5	56.5731
1369	55.326
1369.5	53.9249
1370	52.9931
1370.5	52.9874
1371	54.0908
1371.5	55.7468
1372	57.3156
1372.5	58.0359
1373	57.7426
1373.5	56.6658
1374	55.2982
1374.5	54.181
1375	53.5911
1375.5	53.6505
1376	54.0687
1376.5	54.5444
1377	54.6878
1377.5	54.393
1378	53.7388
1378.5	53.0238
1379	52.6041
1379.5	52.6298
1380	53.0446
1380.5	53.4672
1381	53.7174
1381.5	53.8525
1382	54.1278
1382.5	54.6478
1383	55.2514
1383.5	55.6488
1384	56.0063
1384.5	57.621
1385	61.9896
1385.5	70.1748
1386	82.419
1386.5	95.6861
1387	106.416
1387.5	109.525
1388	104.863
1388.5	94.1456
1389	80.6016
1389.5	68.5059
1390	60.02
1390.5	56.1116
1391	55.0506
1391.5	55.0351
1392	55.0199
1392.5	54.7404
1393	54.3776
1393.5	54.1362
1394	54.037
1394.5	54.0325
1395	54.1726
1395.5	54.5522
1396	55.1902
1396.5	55.976
1397	56.6507
1397.5	57.0391
1398	57.0682
1398.5	56.9195
1399	56.7381
1399.5	56.5438
1400	56.2353
1400.5	55.7059
1401	54.8963
1401.5	53.9271
1402	52.9987
1402.5	52.2753
1403	51.8107
1403.5	51.5665
1404	51.5567
1404.5	51.8523
1405	52.5427
1405.5	53.6712
1406	55.04
1406.5	56.293
1407	57.0502
1407.5	57.1242
1408	56.678
1408.5	55.9479
1409	55.1255
1409.5	54.1622
1410	52.8784
1410.5	51.2581
1411	49.651
1411.5	48.6567
1412	48.8375
1412.5	49.9761
1413	51.5653
1413.5	52.7819
1414	53.1266
1414.5	52.4669
1415	51.124
1415.5	49.7638
1416	48.8728
1416.5	48.8186
1417	49.5777
1417.5	51.0725
1418	53.008
1418.5	54.8222
1419	55.9959
1419.5	56.0698
1420	55.1525
1420.5	53.4679
1421	51.4811
1421.5	49.7876
1422	48.8504
1422.5	48.9872
1423	49.9226
1423.5	51.3027
1424	52.5587
1424.5	53.2702
1425	53.2911
1425.5	52.7783
1426	52.1736
1426.5	51.658
1427	51.2456
1427.5	50.85
1428	50.5252
1428.5	50.6164
1429	51.2728
1429.5	52.3941
1430	53.4917
1430.5	53.9837
1431	53.6267
1431.5	52.5822
1432	51.6643
1432.5	51.3836
1433	51.897
1433.5	52.6144
1434	52.9744
1434.5	52.4882
1435	51.3825
1435.5	50.1192
1436	49.2078
1436.5	48.7933
1437	48.7942
1437.5	49.0623
1438	49.415
1438.5	49.7947
1439	50.163
1439.5	50.4404
1440	50.5285
1440.5	50.3244
1441	49.9214
1441.5	49.5261
1442	49.4277
1442.5	49.703
1443	50.1929
1443.5	50.5028
1444	50.2349
1444.5	49.2693
1445	47.8584
1445.5	46.6594
1446	46.0845
1446.5	46.2226
1447	46.57
1447.5	46.577
1448	45.9219
1448.5	45.0463
1449	44.5675
1449.5	44.9855
1450	46.1707
1450.5	47.5834
1451	48.6492
1451.5	49.1874
1452	49.4352
1452.5	49.6046
1453	49.7066
1453.5	49.5677
1454	49.0141
1454.5	48.1958
1455	47.4864
1455.5	47.1774
1456	47.3237
1456.5	47.788
1457	48.5532
1457.5	49.7165
1458	51.1975
1458.5	52.648
1459	53.3839
1459.5	52.9802
1460	51.3691
1460.5	49.211
1461	47.4651
1461.5	46.642
1462	46.652
1462.5	46.9098
1463	47.0091
1463.5	46.8903
1464	46.8737
1464.5	47.2253
1465	47.9565
1465.5	48.7596
1466	49.3202
1466.5	49.3786
1467	49.0136
1467.5	48.4568
1468	48.0835
1468.5	48.1931
1469	48.9197
1469.5	50.063
1470	50.992
1470.5	51.2079
1471	50.5345
1471.5	49.5213
1472	48.7294
1472.5	48.5438
1473	48.5874
1473.5	48.3018
1474	47.3769
1474.5	46.3576
1475	46.0333
1475.5	47.2646
1476	49.5826
1476.5	51.9198
1477	52.7948
1477.5	51.8506
1478	49.4244
1478.5	46.6025
1479	44.8021
1479.5	44.6402
1480	46.2345
1480.5	48.48
1481	50.4403
1481.5	51.0896
1482	50.4227
1482.5	49.0119
1483	47.7522
1483.5	47.2361
1484	47.4895
1484.5	48.1216
1485	48.5286
1485.5	48.5769
1486	48.5073
1486.5	48.6398
1487	48.965
1487.5	49.0719
1488	48.4958
1488.5	47.2201
1489	45.641
1489.5	44.4352
1490	43.9864
1490.5	44.432
1491	45.3567
1491.5	46.3342
1492	47.0878
1492.5	47.5384
1493	47.7008
1493.5	47.6106
1494	47.4638
1494.5	47.5016
1495	47.9483
1495.5	48.7424
1496	49.5874
1496.5	50.0027
1497	49.6553
1497.5	48.6632
1498	47.3092
1498.5	46.0442
1499	45.1408
1499.5	44.7518
1500	44.7956
1500.5	45.1149
1501	45.6313
1501.5	46.2293
1502	46.7928
1502.5	47.2136
1503	47.4822
1503.5	47.6811
1504	47.8721
1504.5	48.0314
1505	48.048
1505.5	47.7534
1506	47.1454
1506.5	46.3829
1507	45.6235
1507.5	44.9664
1508	44.4008
1508.5	43.9595
1509	43.8213
1509.5	44.1938
1510	45.2459
1510.5	46.8156
1511	48.3386
1511.5	49.1616
1512	48.8427
1512.5	47.5482
1513	45.569
1513.5	43.4036
1514	41.5812
1514.5	40.5327
1515	40.6075
1515.5	41.6804
1516	43.4988
1516.5	45.5036
1517	47.1284
1517.5	48.2067
1518	48.908
1518.5	49.5179
1519	49.9859
1519.5	49.837
1520	48.7492
1520.5	46.8758
1521	44.9269
1521.5	43.7572
1522	43.782
1522.5	44.8493
1523	45.9379
1523.5	46.4059
1524	46.0022
1524.5	45.264
1525	44.7219
1525.5	44.902
1526	45.6483
1526.5	46.5618
1527	47.1549
1527.5	47.2795
1528	47.0108
1528.5	46.5926
1529	46.2129
1529.5	45.8566
1530	45.4909
1530.5	45.1045
1531	44.8979
1531.5	45.038
1532	45.6309
1532.5	46.3394
1533	46.728
1533.5	46.4739
1534	45.6568
1534.5	44.7061
1535	43.2456
1535.5	41.8616
1536	40.9704
1536.5	41.0872
1537	42.149
1537.5	43.8205
1538	45.1752
1538.5	45.5128
1539	44.652
1539.5	43.1843
1540	41.9553
1540.5	41.8505
1541	42.828
1541.5	44.2526
1542	45.3498
1542.5	45.7855
1543	45.6463
1543.5	45.4516
1544	45.4664
1544.5	45.5199
1545	45.1585
1545.5	44.132
1546	42.5124
1546.5	41.0605
1547	40.3007
1547.5	40.4528
1548	41.1045
1548.5	41.7336
1549	41.9233
1549.5	41.829
1550	41.8151
1550.5	42.2054
1551	43.0368
1551.5	44.072
1552	44.9058
1552.5	45.363
1553	45.4471
1553.5	45.3296
1554	45.1399
1554.5	44.9271
1555	44.6503
1555.5	44.2581
1556	43.8037
1556.5	43.4162
1557	43.3825
1557.5	43.7994
1558	44.6643
1558.5	45.7423
1559	46.7141
1559.5	47.2704
1560	47.4445
1560.5	47.4952
1561	47.7011
1561.5	48.0846
1562	48.4216
1562.5	48.2056
1563	47.3638
1563.5	46.1383
1564	45.1588
1564.5	44.8883
1565	45.5451
1565.5	46.4355
1566	46.8083
1566.5	46.0421
1567	44.3803
1567.5	42.4136
1568	41.2269
1568.5	41.2017
1569	42.2514
1569.5	43.6219
1570	44.6201
1570.5	44.64
1571	43.907
1571.5	42.9211
1572	42.2135
1572.5	41.9832
1573	42.218
1573.5	42.6989
1574	43.2654
1574.5	43.9388
1575	44.7584
1575.5	45.6758
1576	46.4775
1576.5	46.9313
1577	47.0106
1577.5	46.946
1578	47.0442
1578.5	47.5047
1579	48.1664
1579.5	48.5909
1580	48.287
1580.5	47.2295
1581	45.6446
1581.5	44.0461
1582	42.9776
1582.5	42.7238
1583	43.2611
1583.5	44.3441
1584	45.717
1584.5	46.984
1585	47.7849
1585.5	47.7866
1586	47.1193
1586.5	46.034
1587	45.0213
1587.5	44.4593
1588	44.418
1588.5	44.4898
1589	44.3247
1589.5	43.7687
1590	43.1478
1590.5	42.9626
1591	43.609
1591.5	44.7367
1592	45.8164
1592.5	46.2341
1593	45.8737
1593.5	44.9855
1594	44.2459
1594.5	43.9599
1595	44.2063
1595.5	44.7234
1596	45.3567
1596.5	46.0792
1597	46.8505
1597.5	47.459
1598	47.5021
1598.5	46.7593
1599	45.2369
1599.5	43.6799
1600	42.7876
1600.5	43.0347
1601	44.0325
1601.5	45.1927
1602	45.7397
1602.5	45.4614
1603	44.5899
1603.5	43.6155
1604	42.8611
1604.5	42.5517
1605	42.704
1605.5	43.3294
1606	44.3792
1606.5	45.6081
1607	46.7113
1607.5	47.3507
1608	47.441
1608.5	47.1304
1609	46.7335
1609.5	46.3541
1610	45.916
1610.5	45.3029
1611	44.5236
1611.5	43.8511
1612	43.5053
1612.5	43.5478
1613	43.7735
1613.5	43.9608
1614	44.0351
1614.5	44.2159
1615	44.6839
1615.5	45.443
1616	46.2032
1616.5	46.6473
1617	46.5442
1617.5	46.0152
1618	45.2055
1618.5	44.2657
1619	43.3162
1619.5	42.6355
1620	42.6191
1620.5	43.5072
1621	44.9808
1621.5	46.1753
1622	46.1619
1622.5	44.5508
1623	41.9976
1623.5	40.0003
1624	39.6699
1624.5	41.055
1625	43.3181
1625.5	45.0506
1626	45.3507
1626.5	44.3854
1627	43.1864
1627.5	42.5333
1628	42.5896
1628.5	42.9859
1629	43.198
1629.5	43.0903
1630	42.9011
1630.5	42.8758
1631	42.9351
1631.5	42.8058
1632	42.2586
1632.5	41.5148
1633	41.1615
1633.5	41.6037
1634	42.7881
1634.5	44.2442
1635	45.2503
1635.5	45.3163
1636	44.4954
1636.5	43.2515
1637	41.9742
1637.5	40.99
1638	40.4533
1638.5	40.6287
1639	41.5429
1639.5	43.0919
1640	44.9241
1640.5	46.488
1641	47.3237
1641.5	47.2318
1642	46.5159
1642.5	45.5562
1643	44.6296
1643.5	43.7971
1644	43.083
1644.5	42.5792
1645	42.516
1645.5	43.0018
1646	43.7632
1646.5	44.3727
1647	44.4136
1647.5	43.9081
1648	43.334
1648.5	43.4476
1649	44.5322
1649.5	46.4177
1650	48.3362
1650.5	49.6032
1651	49.7511
1651.5	48.9945
1652	47.6944
1652.5	46.1823
1653	44.5861
1653.5	43.0273
1654	41.8129
1654.5	41.4709
1655	42.4758
1655.5	44.5115
1656	46.9179
1656.5	48.5807
1657	48.846
1657.5	47.4781
1658	45.5344
1658.5	44.0531
1659	43.8351
1659.5	44.6011
1660	45.7262
1660.5	46.2894
1661	45.9247
1661.5	44.8477
1662	43.672
1662.5	42.7752
1663	42.2994
1663.5	42.0397
1664	41.8484
1664.5	41.7674
1665	41.9417
1665.5	42.4683
1666	43.2542
1666.5	44.0885
1667	44.782
1667.5	45.2646
1668	45.5508
1668.5	45.5264
1669	45.0787
1669.5	44.1071
1670	42.7285
1670.5	41.3913
1671	40.6857
1671.5	40.9291
1672	41.9926
1672.5	43.5485
1673	45.0224
1673.5	46.039
1674	46.2892
1674.5	45.9364
1675	45.1876
1675.5	44.401
1676	43.9064
1676.5	43.9853
1677	44.6061
1677.5	45.4553
1678	45.9937
1678.5	45.9412
1679	45.2872
1679.5	44.2849
1680	43.2778
1680.5	42.4349
1681	41.7534
1681.5	41.2683
1682	41.3135
1682.5	42.255
1683	44.209
1683.5	46.8449
1684	49.0894
1684.5	49.9188
1685	48.9797
1685.5	46.9805
1686	44.8952
1686.5	43.6746
1687	43.5005
1687.5	44.0273
1688	44.4188
1688.5	44.335
1689	43.8358
1689.5	43.3118
1690	43.0857
1690.5	43.3082
1691	43.8704
1691.5	44.5206
1692	44.8883
1692.5	44.6768
1693	43.5923
1693.5	41.9322
1694	40.2344
1694.5	39.4957
1695	40.0692
1695.5	41.792
1696	43.7137
1696.5	44.9443
1697	44.7989
1697.5	43.5901
1698	41.9915
1698.5	40.8351
1699	40.3159
1699.5	40.301
1700	40.4282
1700.5	40.4771
1701	40.4409
1701.5	40.4823
1702	40.6578
1702.5	40.87
1703	40.942
1703.5	40.793
1704	40.5165
1704.5	40.3573
1705	40.5477
1705.5	41.0256
1706	41.488
1706.5	41.5718
1707	41.2095
1707.5	40.6456
1708	40.4444
1708.5	41.0295
1709	42.4058
1709.5	44.0669
1710	45.4612
1710.5	46.2355
1711	46.4611
1711.5	46.3765
1712	46.0669
1712.5	45.3762
1713	44.1148
1713.5	42.3629
1714	40.7056
1714.5	39.875
1715	40.4189
1715.5	42.1427
1716	44.3215
1716.5	45.866
1717	46.2647
1717.5	45.3521
1718	43.7986
1718.5	42.222
1719	41.2375
1719.5	40.9814
1720	41.3013
1720.5	41.8209
1721	42.264
1721.5	42.4252
1722	42.2782
1722.5	41.8541
1723	41.2472
1723.5	40.6913
1724	40.459
1724.5	40.8364
1725	41.8627
1725.5	43.4362
1726	45.1049
1726.5	46.4398
1727	47.024
1727.5	47.0179
1728	46.6304
1728.5	46.1126
1729	45.5718
1729.5	44.9623
1730	44.2171
1730.5	43.4171
1731	42.8606
1731.5	42.8584
1732	43.5578
1732.5	44.9037
1733	46.3806
1733.5	47.3934
1734	47.271
1734.5	45.9188
1735	43.721
1735.5	41.5905
1736	40.2184
1736.5	40.042
1737	40.5276
1737.5	40.9341
1738	40.4105
1738.5	39.0716
1739	37.5455
1739.5	36.6863
1740	36.7519
1740.5	37.5192
1741	38.2331
1741.5	38.4537
1742	38.2282
1742.5	38.2022
1743	38.7486
1743.5	39.758
1744	40.6978
1744.5	41.1003
1745	41.0168
1745.5	40.9663
1746	41.6332
1746.5	42.9428
1747	44.389
1747.5	45.1951
1748	45.1195
1748.5	44.3409
1749	43.4809
1749.5	42.9577
1750	42.7305
1750.5	42.3545
1751	41.6014
1751.5	40.556
1752	39.675
1752.5	39.3053
1753	39.5224
1753.5	39.9702
1754	40.2943
1754.5	40.4165
1755	40.5191
1755.5	40.8266
1756	41.3087
1756.5	41.7177
1757	41.6166
1757.5	40.8336
1758	39.5057
1758.5	38.1312
1759	37.2152
1759.5	37.2149
1760	38.1796
1760.5	39.8297
1761	41.6627
1761.5	43.0443
1762	43.6821
1762.5	43.6197
1763	43.2475
1763.5	42.8462
1764	42.5069
1764.5	42.1101
1765	41.5165
1765.5	40.8671
1766	40.4874
1766.5	40.7101
1767	41.3667
1767.5	42.092
1768	42.4012
1768.5	42.2024
1769	41.7178
1769.5	41.4647
1770	41.673
1770.5	42.2132
1771	42.6317
1771.5	42.6072
1772	41.9789
1772.5	40.9543
1773	39.7617
1773.5	38.6985
1774	37.9963
1774.5	37.8922
1775	38.4054
1775.5	39.3657
1776	40.4137
1776.5	41.1594
1777	41.4484
1777.5	41.4424
1778	41.5063
1778.5	41.8312
1779	42.2573
1779.5	42.5164
1780	42.4182
1780.5	42.1354
1781	41.9394
1781.5	42.0378
1782	42.215
1782.5	42.0392
1783	41.1745
1783.5	39.7843
1784	38.3159
1784.5	37.3732
1785	37.2214
1785.5	37.8674
1786	38.758
1786.5	39.3859
1787	39.3968
1787.5	38.9427
1788	38.3689
1788.5	38.1792
1789	38.6001
1789.5	39.6101
1790	40.7111
1790.5	41.4225
1791	41.4456
1791.5	41.1469
1792	40.986
1792.5	41.3549
1793	42.143
1793.5	42.9527
1794	43.2693
1794.5	42.9267
1795	42.0159
1795.5	41.0095
1796	40.1741
1796.5	39.6675
1797	39.477
1797.5	39.6156
1798	40.0187
1798.5	40.5065
1799	40.7958
1799.5	40.658
1800	40.1418
1800.5	39.4932
1801	39.0266
1801.5	38.902
1802	39.1308
1802.5	39.5892
1803	40.1882
1803.5	40.7645
1804	41.0761
1804.5	40.7935
1805	39.9614
1805.5	38.93
1806	38.4081
1806.5	38.7851
1807	39.9888
1807.5	41.1795
1808	41.4251
1808.5	40.0572
1809	37.7322
1809.5	35.4753
1810	34.4995
1810.5	35.0299
1811	36.7221
1811.5	38.6182
1812	39.883
1812.5	40.1617
1813	39.8937
1813.5	39.7709
1814	40.1909
1814.5	40.7954
1815	40.9356
1815.5	39.926
1816	38.071
1816.5	36.1867
1817	35.4742
1817.5	36.2599
1818	37.9491
1818.5	39.2474
1819	39.526
1819.5	38.8814
1820	38.3146
1820.5	38.5062
1821	39.4899
1821.5	40.4361
1822	40.5014
1822.5	39.5467
1823	38.2536
1823.5	37.3824
1824	37.1827
1824.5	37.3695
1825	37.4101
1825.5	37.0655
1826	36.4697
1826.5	36.0612
1827	36.1383
1827.5	36.7668
1828	37.7211
1828.5	38.7167
1829	39.3893
1829.5	39.4581
1830	38.7803
1830.5	37.4509
1831	36.0227
1831.5	35.1335
1832	35.287
1832.5	36.3411
1833	37.9441
1833.5	39.5116
1834	40.7014
1834.5	41.2301
1835	41.103
1835.5	40.286
1836	38.8936
1836.5	37.3961
1837	36.4445
1837.5	36.5391
1838	37.5674
1838.5	38.9627
1839	39.7982
1839.5	39.5654
1840	38.2428
1840.5	36.6522
1841	35.6034
1841.5	35.7058
1842	36.6782
1842.5	37.9705
1843	38.8783
1843.5	39.0807
1844	38.497
1844.5	37.5811
1845	36.7693
1845.5	36.4794
1846	36.6955
1846.5	37.1657
1847	37.4584
1847.5	37.4732
1848	37.43
1848.5	37.7246
1849	38.474
1849.5	39.3734
1850	39.7914
1850.5	39.2745
1851	37.8725
1851.5	36.2608
1852	35.1624
1852.5	34.8512
1853	35.0921
1853.5	35.4874
1854	35.6908
1854.5	35.5935
1855	35.164
1855.5	34.4569
1856	33.5199
1856.5	32.5933
1857	32.0174
1857.5	32.099
1858	32.7507
1858.5	33.6881
1859	34.5878
1859.5	35.3465
1860	36.0537
1860.5	36.8368
1861	37.6276
1861.5	38.1855
1862	38.2748
1862.5	37.9816
1863	37.5823
1863.5	37.406
1864	37.5749
1864.5	38.0696
1865	38.7536
1865.5	39.6252
1866	40.7646
1866.5	42.1425
1867	43.517
1867.5	44.3245
1868	44.1596
1868.5	42.7464
1869	40.6001
1869.5	38.2865
1870	36.4179
1870.5	35.1235
1871	34.2799
1871.5	33.6186
1872	33.1061
1872.5	33.0306
1873	33.6241
1873.5	34.7633
1874	35.9769
1874.5	36.7719
1875	37.0006
1875.5	36.9833
1876	37.1895
1876.5	37.873
1877	38.7709
1877.5	39.4376
1878	39.4908
1878.5	39.1691
1879	38.9075
1879.5	39.0238
1880	39.2757
1880.5	39.1542
1881	38.2192
1881.5	36.6412
1882	35.0114
1882.5	34.0777
1883	34.0793
1883.5	34.7928
1884	35.5077
1884.5	35.9042
1885	36.1729
1885.5	36.7246
1886	37.763
1886.5	38.9563
1887	39.7934
1887.5	39.8232
1888	39.2309
1888.5	38.4166
1889	37.824
1889.5	37.5299
1890	37.4014
1890.5	37.2449
1891	36.9817
1891.5	36.5106
1892	35.7065
1892.5	34.5534
1893	33.3139
1893.5	32.5836
1894	32.8709
1894.5	34.3014
1895	36.1996
1895.5	37.7405
1896	38.3786
1896.5	38.3307
1897	38.0611
1897.5	37.9756
1898	38.1041
1898.5	38.318
1899	38.5803
1899.5	39.0298
1900	39.792
1900.5	40.691
1901	41.3354
1901.5	41.3744
1902	40.8677
1902.5	40.1789
1903	39.7418
1903.5	39.7118
1904	39.9769
1904.5	40.2144
1905	40.1366
1905.5	39.5767
1906	38.6272
1906.5	37.5615
1907	36.8715
1907.5	36.9159
1908	37.8805
1908.5	39.1967
1909	40.2574
1909.5	40.4844
1910	39.8841
1910.5	38.6957
1911	37.4012
1911.5	36.3021
1912	35.6327
1912.5	35.4962
1913	36.009
1913.5	37.21
1914	38.6984
1914.5	39.9385
1915	40.4859
1915.5	40.4731
1916	40.3856
1916.5	40.8182
1917	41.8972
1917.5	43.282
1918	44.2546
1918.5	44.3167
1919	43.3009
1919.5	41.6138
1920	39.6874
1920.5	38.0146
1921	36.8599
1921.5	36.4111
1922	36.4811
1922.5	36.7375
1923	36.6638
1923.5	36.0073
1924	34.8259
1924.5	33.6151
1925	32.8905
1925.5	33.0056
1926	33.7995
1926.5	34.881
1927	35.7791
1927.5	36.1883
1928	35.9969
1928.5	35.2523
1929	34.3098
1929.5	33.6154
1930	33.6177
1930.5	34.3467
1931	35.5216
1931.5	36.5142
1932	36.9611
1932.5	36.81
1933	36.5172
1933.5	36.4556
1934	36.7711
1934.5	37.2227
1935	37.5098
1935.5	37.4472
1936	37.0504
1936.5	36.4143
1937	35.7924
1937.5	35.4495
1938	35.7184
1938.5	36.5964
1939	37.8692
1939.5	38.9653
1940	39.4294
1940.5	38.9976
1941	37.971
1941.5	36.7789
1942	35.7709
1942.5	34.9493
1943	34.1836
1943.5	33.3839
1944	32.7134
1944.5	32.5818
1945	33.4094
1945.5	35.1967
1946	37.5253
1946.5	39.3705
1947	39.9316
1947.5	38.804
1948	36.8835
1948.5	35.3299
1949	35.1135
1949.5	35.9886
1950	37.1304
1950.5	37.6162
1951	37.3636
1951.5	37.0027
1952	37.3593
1952.5	38.6783
1953	40.4459
1953.5	41.7425
1954	41.8705
1954.5	40.775
1955	38.9892
1955.5	37.2068
1956	36.1022
1956.5	35.9414
1957	36.7199
1957.5	37.8184
1958	38.6094
1958.5	38.5364
1959	37.6748
1959.5	36.4145
1960	35.3994
1960.5	34.9463
1961	35.1523
1961.5	35.7429
1962	36.5292
1962.5	37.3446
1963	38.0348
1963.5	38.4368
1964	38.4901
1964.5	38.3396
1965	38.1437
1965.5	37.9258
1966	37.5504
1966.5	36.8571
1967	36.0166
1967.5	35.3175
1968	34.979
1968.5	34.7944
1969	34.3731
1969.5	33.5437
1970	32.6632
1970.5	32.4789
1971	33.3259
1971.5	34.9097
1972	36.314
1972.5	36.8828
1973	36.5686
1973.5	35.9434
1974	35.5289
1974.5	35.4841
1975	35.5484
1975.5	35.4988
1976	35.2865
1976.5	35.0695
1977	34.9557
1977.5	35.0096
1978	35.2873
1978.5	35.9309
1979	36.9426
1979.5	38.0206
1980	38.5913
1980.5	38.3092
1981	37.3715
1981.5	36.4224
1982	35.998
1982.5	36.1488
1983	36.4011
1983.5	36.3032
1984	35.7293
1984.5	35.0272
1985	34.5342
1985.5	34.4201
1986	34.5177
1986.5	34.6957
1987	34.9223
1987.5	35.1939
1988	35.4147
1988.5	35.407
1989	35.1771
1989.5	34.9786
1990	35.131
1990.5	35.6091
1991	35.963
1991.5	35.7157
1992	34.7804
1992.5	33.7016
1993	33.1934
1993.5	33.6861
1994	34.858
1994.5	36.0889
1995	36.8674
1995.5	37.2494
1996	37.4838
1996.5	37.6756
1997	37.603
1997.5	37.0055
1998	36.0741
1998.5	35.4652
1999	35.9013
1999.5	37.221
2000	38.6408
2000.5	39.0818
2001	38.4047
2001.5	37.1255
2002	36.2111
2002.5	36.0032
2003	36.1694
2003.5	35.9075
2004	34.9361
2004.5	33.6128
2005	32.8268
2005.5	33.0713
2006	34.3055
2006.5	35.7353
2007	36.7107
2007.5	36.9015
2008	36.5467
2008.5	36.0313
2009	35.8024
2009.5	36.0348
2010	36.6973
2010.5	37.339
2011	37.4841
2011.5	36.7561
2012	35.4619
2012.5	34.2205
2013	33.7743
2013.5	34.2383
2014	35.2281
2014.5	35.9016
2015	35.7983
2015.5	34.8791
2016	33.7766
2016.5	33.0387
2017	33.027
2017.5	33.6221
2018	34.6055
2018.5	35.6302
2019	36.4373
2019.5	36.7065
2020	36.3198
2020.5	35.3029
2021	33.9581
2021.5	32.8528
2022	32.505
2022.5	33.1245
2023	34.3489
2023.5	35.554
2024	36.0957
2024.5	35.8068
2025	34.8692
2025.5	33.871
2026	33.1603
2026.5	32.8563
2027	32.8195
2027.5	32.9765
2028	33.3029
2028.5	33.7427
2029	34.1123
2029.5	34.1913
2030	33.9497
2030.5	33.6546
2031	33.7193
2031.5	34.3748
2032	35.4337
2032.5	36.4172
2033	36.8155
2033.5	36.4135
2034	35.355
2034.5	34.0317
2035	33.0488
2035.5	32.8152
2036	33.434
2036.5	34.389
2037	35.0424
2037.5	34.9211
2038	34.1785
2038.5	33.321
2039	32.8968
2039.5	33.0056
2040	33.413
2040.5	33.7585
2041	33.9232
2041.5	33.9395
2042	33.8215
2042.5	33.4897
2043	33.0338
2043.5	32.7867
2044	33.2753
2044.5	34.4476
2045	35.8119
2045.5	36.5396
2046	36.3842
2046.5	35.625
2047	35.0119
2047.5	34.9484
2048	35.434
2048.5	36.0734
2049	36.6499
2049.5	37.1106
2050	37.3996
2050.5	37.2547
2051	36.338
2051.5	34.8317
2052	33.313
2052.5	32.5741
2053	32.79
2053.5	33.5499
2054	33.951
2054.5	33.5668
2055	32.6152
2055.5	31.934
2056	32.2093
2056.5	33.6254
2057	35.6806
2057.5	37.6888
2058	38.9382
2058.5	39.0693
2059	37.8289
2059.5	35.705
2060	33.2827
2060.5	31.459
2061	30.7606
2061.5	31.3822
2062	32.8069
2062.5	34.2606
2063	35.002
2063.5	34.862
2064	34.1241
2064.5	33.3627
2065	33.0018
2065.5	33.0944
2066	33.3402
2066.5	33.4554
2067	33.4112
2067.5	33.4625
2068	33.7693
2068.5	34.2282
2069	34.4509
2069.5	34.1956
2070	33.5358
2070.5	32.8782
2071	32.5203
2071.5	32.4833
2072	32.6175
2072.5	32.9351
2073	33.6132
2073.5	34.7127
2074	35.9007
2074.5	36.4943
2075	36.0142
2075.5	34.5989
2076	33.0822
2076.5	32.2437
2077	32.3103
2077.5	32.9167
2078	33.5976
2078.5	34.1621
2079	34.7485
2079.5	35.5439
2080	36.4095
2080.5	37.0154
2081	37.0778
2081.5	36.7427
2082	36.4121
2082.5	36.4949
2083	36.9757
2083.5	37.3864
2084	37.1178
2084.5	35.8755
2085	33.9155
2085.5	31.9922
2086	30.7723
2086.5	30.479
2087	30.8299
2087.5	31.4964
2088	32.2525
2088.5	33.0798
2089	33.886
2089.5	34.4079
2090	34.4029
2090.5	33.9641
2091	33.5435
2091.5	33.5389
2092	33.8232
2092.5	33.9105
2093	33.3091
2093.5	32.3233
2094	31.6307
2094.5	31.9768
2095	33.1869
2095.5	34.606
2096	35.3606
2096.5	35.2451
2097	34.5285
2097.5	33.8747
2098	33.6208
2098.5	33.8504
2099	34.2984
2099.5	34.7414
2100	34.9617
2100.5	34.8937
2101	34.5539
2101.5	34.1126
2102	33.7052
2102.5	33.3582
2103	32.9783
2103.5	32.5419
2104	32.2179
2104.5	32.2256
2105	32.6624
2105.5	33.3142
2106	33.8774
2106.5	34.2277
2107	34.6079
2107.5	35.2919
2108	36.3515
2108.5	37.3246
2109	37.6851
2109.5	37.0808
2110	35.8352
2110.5	34.4728
2111	33.5372
2111.5	33.1139
2112	33.0039
2112.5	32.8249
2113	32.4361
2113.5	31.974
2114	31.7746
2114.5	32.1236
2115	33.0735
2115.5	34.3287
2116	35.4923
2116.5	36.2216
2117	36.4665
2117.5	36.3384
2118	36.12
2118.5	35.9361
2119	35.7784
2119.5	35.5513
2120	35.1618
2120.5	34.5636
2121	33.7797
2121.5	32.8911
2122	32.1377
2122.5	31.7722
2123	32.0205
2123.5	32.6392
2124	33.2443
2124.5	33.4413
2125	33.3158
2125.5	33.2667
2126	33.6742
2126.5	34.4046
2127	34.8899
2127.5	34.7426
2128	34.1818
2128.5	34.0535
2129	34.8566
2129.5	36.3491
2130	37.3749
2130.5	37.1356
2131	35.6089
2131.5	34.0425
2132	33.4671
2132.5	34.292
2133	35.5115
2133.5	36.1696
2134	35.7896
2134.5	34.8633
2135	33.9499
2135.5	33.2178
2136	32.4069
2136.5	31.325
2137	30.3491
2137.5	30.0207
2138	30.6774
2138.5	31.7429
2139	32.456
2139.5	32.2972
2140	31.5949
2140.5	31.0319
2141	31.0966
2141.5	31.6193
2142	32.0184
2142.5	31.9277
2143	31.5066
2143.5	31.3749
2144	31.8921
2144.5	32.942
2145	33.8096
2145.5	33.935
2146	33.1195
2146.5	31.9675
2147	31.1203
2147.5	31.0558
2148	31.4915
2148.5	31.9561
2149	32.0154
2149.5	31.7722
2150	31.6574
2150.5	32.1141
2151	33.1122
2151.5	34.1813
2152	34.662
2152.5	34.2511
2153	33.1144
2153.5	31.8916
2154	31.0761
2154.5	30.815
2155	30.871
2155.5	30.9844
2156	31.0199
2156.5	30.9636
2157	30.6907
2157.5	30.0176
2158	28.837
2158.5	27.4498
2159	26.5059
2159.5	26.6836
2160	28.0921
2160.5	30.2079
2161	32.2238
2161.5	33.4831
2162	33.7871
2162.5	33.2281
2163	32.2843
2163.5	31.3777
2164	30.9582
2164.5	31.143
2165	31.7913
2165.5	32.4264
2166	32.8045
2166.5	33.0616
2167	33.577
2167.5	34.3613
2168	34.7228
2168.5	33.951
2169	31.912
2169.5	29.8038
2170	29.007
2170.5	30.3888
2171	32.8577
2171.5	34.8932
2172	35.2021
2172.5	34.3185
2173	33.3399
2173.5	33.3023
2174	34.0766
2174.5	35.0105
2175	35.4978
2175.5	35.5572
2176	35.4708
2176.5	35.4008
2177	35.2218
2177.5	34.7288
2178	33.9595
2178.5	33.0342
2179	32.1043
2179.5	31.2843
2180	30.796
2180.5	30.8556
2181	31.4968
2181.5	32.4729
2182	33.254
2182.5	33.4874
2183	33.0891
2183.5	32.289
2184	31.2656
2184.5	30.2285
2185	29.4113
2185.5	29.2073
2186	29.7278
2186.5	30.7779
2187	31.8021
2187.5	32.37
2188	32.463
2188.5	32.5467
2189	33.0205
2189.5	33.9549
2190	34.9001
2190.5	35.4258
2191	35.205
2191.5	34.4241
2192	33.2848
2192.5	32.0831
2193	31.1663
2193.5	30.9882
2194	31.8379
2194.5	33.4631
2195	35.1157
2195.5	35.8389
2196	35.2796
2196.5	33.8326
2197	32.6001
2197.5	32.3154
2198	32.9572
2198.5	33.783
2199	34.0402
2199.5	33.4633
2200	32.2613
2200.5	30.7656
2201	29.4043
2201.5	28.581
2202	28.8242
2202.5	30.1044
2203	31.9544
2203.5	33.2916
2204	33.4837
2204.5	32.532
2205	31.4201
2205.5	30.8742
2206	31.083
2206.5	31.4274
2207	31.4476
2207.5	31.1211
2208	30.782
2208.5	30.6004
2209	30.397
2209.5	30.0032
2210	29.555
2210.5	29.5025
2211	30.1358
2211.5	31.3995
2212	32.7892
2212.5	33.8543
2213	34.2585
2213.5	33.9337
2214	32.8462
2214.5	31.3433
2215	29.9078
2215.5	29.1785
2216	29.2649
2216.5	29.936
2217	30.6241
2217.5	30.9698
2218	30.9661
2218.5	30.956
2219	31.1854
2219.5	31.6586
2220	32.032
2220.5	32.0054
2221	31.4703
2221.5	30.8043
2222	30.4567
2222.5	30.6877
2223	31.1947
2223.5	31.3715
2224	30.7453
2224.5	29.4138
2225	27.9061
2225.5	26.844
2226	26.4442
2226.5	26.5696
2227	26.9132
2227.5	27.3898
2228	28.0446
2228.5	28.8673
2229	29.7369
2229.5	30.4744
2230	31.0145
2230.5	31.3571
2231	31.5513
2231.5	31.5701
2232	31.3825
2232.5	31.0305
2233	30.5471
2233.5	29.9632
2234	29.316
2234.5	28.7635
2235	28.5773
2235.5	28.971
2236	29.9433
2236.5	31.0505
2237	31.7908
2237.5	31.8273
2238	31.3305
2238.5	30.7283
2239	30.48
2239.5	30.6409
2240	30.8992
2240.5	30.847
2241	30.4158
2241.5	30.0181
2242	30.1369
2242.5	30.9663
2243	32.0539
2243.5	32.8211
2244	32.8782
2244.5	32.5005
2245	32.054
2245.5	31.7207
2246	31.3248
2246.5	30.6989
2247	29.9828
2247.5	29.4918
2248	29.4019
2248.5	29.455
2249	29.3608
2249.5	29.0862
2250	28.984
2250.5	29.284
2251	29.8159
2251.5	30.1755
2252	30.2958
2252.5	30.7074
2253	31.882
2253.5	33.8022
2254	35.5045
2254.5	36.1349
2255	35.2904
2255.5	33.7644
2256	32.3332
2256.5	31.4685
2257	31.0334
2257.5	30.895
2258	31.1062
2258.5	31.7341
2259	32.5388
2259.5	32.8789
2260	32.3431
2260.5	31.0855
2261	29.914
2261.5	29.5355
2262	30.1485
2262.5	31.3592
2263	32.6528
2263.5	33.4995
2264	33.5399
2264.5	32.368
2265	30.3113
2265.5	28.0587
2266	26.7735
2266.5	26.9513
2267	28.4684
2267.5	30.2897
2268	31.5548
2268.5	31.7425
2269	31.1367
2269.5	30.1061
2270	29.0375
2270.5	28.2072
2271	27.8261
2271.5	27.9976
2272	28.6148
2272.5	29.5505
2273	30.6211
2273.5	31.705
2274	32.5919
2274.5	33.0698
2275	33.001
2275.5	32.4749
2276	31.8092
2276.5	31.2182
2277	30.759
2277.5	30.4512
2278	30.5166
2278.5	31.1402
2279	32.2198
2279.5	33.1608
2280	33.3193
2280.5	32.4644
2281	31.144
2281.5	30.245
2282	30.4837
2282.5	31.788
2283	33.5713
2283.5	35.0076
2284	35.5742
2284.5	35.169
2285	34.1207
2285.5	33.0298
2286	32.2418
2286.5	31.6661
2287	30.9739
2287.5	30.0074
2288	29.1705
2288.5	29.0004
2289	29.8789
2289.5	31.2105
2290	32.268
2290.5	32.4545
2291	31.9007
2291.5	30.9748
2292	30.1436
2292.5	29.611
2293	29.4835
2293.5	29.6342
2294	29.8825
2294.5	30.0363
2295	30.1947
2295.5	30.7158
2296	31.8759
2296.5	33.3158
2297	34.1859
2297.5	33.8959
2298	32.744
2298.5	31.7267
2299	31.4946
2299.5	31.7591
2300	31.5505
2300.5	30.6371
2301	29.6796
2301.5	29.7138
2302	30.7619
2302.5	31.8864
2303	31.9764
2303.5	30.9427
2304	29.6923
2304.5	29.2103
2305	29.7236
2305.5	30.6488
2306	31.3868
2306.5	31.746
2307	31.9083
2307.5	31.9617
2308	31.7917
2308.5	31.3588
2309	30.7412
2309.5	30.0902
2310	29.4895
2310.5	29.0602
2311	29.086
2311.5	29.7567
2312	31.026
2312.5	32.2625
2313	32.9043
2313.5	32.6489
2314	31.9574
2314.5	31.3063
2315	31.004
2315.5	30.9559
2316	30.995
2316.5	30.9837
2317	30.8489
2317.5	30.456
2318	29.7975
2318.5	29.0399
2319	28.5323
2319.5	28.3976
2320	28.4649
2320.5	28.2613
2321	27.5273
2321.5	26.3243
2322	25.2485
2322.5	24.8979
2323	25.8802
2323.5	27.9016
2324	30.3259
2324.5	32.0219
2325	32.3919
2325.5	31.507
2326	30.6035
2326.5	30.9574
2327	33.4094
2327.5	36.997
2328	40.2288
2328.5	41.253
2329	39.7504
2329.5	36.2505
2330	32.4399
2330.5	29.775
2331	29.0963
2331.5	29.8071
2332	30.8107
2332.5	30.9621
2333	30.1342
2333.5	28.8315
2334	27.9841
2334.5	28.0403
2335	28.9682
2335.5	30.1582
2336	31.0454
2336.5	31.179
2337	30.6356
2337.5	29.8266
2338	29.5672
2338.5	30.3793
2339	32.2567
2339.5	34.2495
2340	35.2132
2340.5	34.4269
2341	32.5928
2341.5	31.0094
2342	30.9174
2342.5	31.953
2343	32.9354
2343.5	32.5442
2344	30.9193
2344.5	29.0166
2345	28.0922
2345.5	28.3265
2346	29.129
2346.5	29.5504
2347	29.3507
2347.5	28.8933
2348	28.7128
2348.5	28.9097
2349	29.2038
2349.5	29.388
2350	29.5642
2350.5	29.9657
2351	30.5251
2351.5	30.8403
2352	30.5529
2352.5	29.6524
2353	28.5242
2353.5	27.7082
2354	27.5488
2354.5	28.0579
2355	28.9205
2355.5	29.7621
2356	30.2772
2356.5	30.4473
2357	30.476
2357.5	30.6441
2358	30.9664
2358.5	31.1709
2359	31.0482
2359.5	30.6616
2360	30.4267
2360.5	30.5983
2361	31.0878
2361.5	31.4172
2362	31.3417
2362.5	31.0422
2363	31.0086
2363.5	31.4727
2364	32.1519
2364.5	32.5624
2365	32.4401
2365.5	31.9402
2366	31.2467
2366.5	30.3517
2367	29.2648
2367.5	28.2011
2368	27.6931
2368.5	27.9524
2369	28.7618
2369.5	29.3546
2370	29.2468
2370.5	28.4834
2371	27.9349
2371.5	28.3698
2372	30.3288
2372.5	33.1997
2373	36.0142
2373.5	37.3252
2374	36.4857
2374.5	33.5246
2375	29.9198
2375.5	27.1903
2376	26.4461
2376.5	27.0375
2377	27.8554
2377.5	27.8726
2378	27.3151
2378.5	26.9244
2379	27.4174
2379.5	28.7127
2380	30.2985
2380.5	31.4452
2381	31.8016
2381.5	31.2258
2382	30.1689
2382.5	29.076
2383	28.4296
2383.5	28.3397
2384	28.7195
2384.5	29.3559
2385	30.1295
2385.5	30.9074
2386	31.373
2386.5	31.1833
2387	30.1053
2387.5	28.5655
2388	27.141
2388.5	26.4318
2389	26.5352
2389.5	27.3438
2390	28.393
2390.5	29.2443
2391	29.3895
2391.5	28.7826
2392	27.719
2392.5	26.936
2393	26.953
2393.5	27.8932
2394	29.305
2394.5	30.7056
2395	31.8149
2395.5	32.5732
2396	32.8818
2396.5	32.4773
2397	31.4416
2397.5	30.0483
2398	28.8357
2398.5	28.1216
2399	28.0072
2399.5	28.3179
2400	28.9042
2400.5	29.7147
2401	30.6066
2401.5	31.3485
2402	31.5914
2402.5	31.3059
2403	30.7421
2403.5	30.5224
2404	31.0037
2404.5	32.0474
2405	32.7082
2405.5	32.1963
2406	30.2426
2406.5	28.0648
2407	27.0129
2407.5	27.857
2408	29.733
2408.5	31.3657
2409	31.7757
2409.5	31.0914
2410	29.9346
2410.5	28.9787
2411	28.3711
2411.5	28.0342
2412	27.9058
2412.5	28.1187
2413	28.7318
2413.5	29.4862
2414	29.9011
2414.5	29.5372
2415	28.3691
2415.5	26.8042
2416	25.7005
2416.5	25.6724
2417	26.8701
2417.5	28.61
2418	30.1163
2418.5	30.8464
2419	30.8497
2419.5	30.3253
2420	29.615
2420.5	28.9194
2421	28.4167
2421.5	28.1251
2422	27.9761
2422.5	27.8739
2423	27.8727
2423.5	28.1453
2424	28.6218
2424.5	28.963
2425	28.7306
2425.5	28.0555
2426	27.4069
2426.5	27.3428
2427	27.7747
2427.5	28.2808
2428	28.4449
2428.5	28.3752
2429	28.4667
2429.5	28.9355
2430	29.6673
2430.5	30.3824
2431	30.8428
2431.5	30.8768
2432	30.3569
2432.5	29.4392
2433	28.482
2433.5	28.0091
2434	28.1406
2434.5	28.65
2435	29.0604
2435.5	29.1525
2436	28.9075
2436.5	28.4896
2437	28.0456
2437.5	27.8429
2438	28.0992
2438.5	28.8635
2439	29.6318
2439.5	29.9263
2440	29.554
2440.5	29.0464
2441	28.8908
2441.5	29.2338
2442	29.6988
2442.5	29.9438
2443	29.9277
2443.5	29.7831
2444	29.4565
2444.5	28.7854
2445	27.8189
2445.5	27.0431
2446	26.9983
2446.5	27.8996
2447	29.3093
2447.5	30.4475
2448	30.6101
2448.5	29.7728
2449	28.5433
2449.5	27.9094
2450	28.4746
2450.5	30.1765
2451	32.1022
2451.5	33.1343
2452	32.6307
2452.5	30.9697
2453	29.1367
2453.5	28.0586
2454	27.9801
2454.5	28.6987
2455	29.8323
2455.5	30.8558
2456	31.3773
2456.5	31.1569
2457	30.4112
2457.5	29.4953
2458	28.7297
2458.5	28.0833
2459	27.4364
2459.5	26.9198
2460	26.8781
2460.5	27.5831
2461	28.5526
2461.5	28.9557
2462	28.0436
2462.5	26.1381
2463	24.2659
2463.5	23.5651
2464	24.3629
2464.5	26.4207
2465	28.7323
2465.5	30.6102
2466	31.5628
2466.5	31.6245
2467	30.9627
2467.5	30.0338
2468	29.1843
2468.5	28.5988
2469	28.1799
2469.5	27.819
2470	27.5443
2470.5	27.4708
2471	27.6443
2471.5	27.9033
2472	28.1098
2472.5	28.3186
2473	28.6851
2473.5	29.1679
2474	29.4583
2474.5	29.3522
2475	28.9789
2475.5	28.7847
2476	28.8832
2476.5	28.9404
2477	28.4831
2477.5	27.6087
2478	26.9388
2478.5	27.0475
2479	27.8049
2479.5	28.3802
2480	28.0872
2480.5	27.0348
2481	26.1033
2481.5	25.9605
2482	26.6799
2482.5	27.5346
2483	27.9365
2483.5	27.7473
2484	27.4994
2484.5	27.5066
2485	27.557
2485.5	27.2542
2486	26.6597
2486.5	26.5943
2487	27.6461
2487.5	29.5611
2488	30.7315
2488.5	30.0017
2489	27.6197
2489.5	25.7167
2490	25.8827
2490.5	28.182
2491	30.766
2491.5	31.8345
2492	30.9745
2492.5	29.278
2493	28.1707
2493.5	28.1656
2494	29.0042
2494.5	30.0181
2495	30.5259
2495.5	30.0852
2496	28.7784
2496.5	27.3867
2497	26.8629
2497.5	27.3451
2498	28.0963
2498.5	27.9981
2499	26.9309
2499.5	25.573
2500	24.9878
2500.5	25.3714
2501	26.3456
2501.5	27.5237
2502	28.9724
2502.5	30.7885
2503	32.3901
2503.5	32.9509
2504	31.7981
2504.5	29.7522
2505	28.0757
2505.5	27.8911
2506	29.0626
2506.5	30.8144
2507	31.8803
2507.5	31.5996
2508	29.8534
2508.5	27.7906
2509	26.5615
2509.5	26.9366
2510	28.3139
2510.5	29.7135
2511	30.2424
2511.5	29.9486
2512	29.2773
2512.5	28.6266
2513	27.9557
2513.5	27.2642
2514	26.9498
2514.5	27.4636
2515	28.7077
2515.5	29.7469
2516	29.4816
2516.5	27.7769
2517	25.6238
2517.5	24.4498
2518	24.9406
2518.5	26.8797
2519	29.2967
2519.5	31.0348
2520	31.321
2520.5	30.1618
2521	28.2678
2521.5	26.5226
2522	25.7268
2522.5	26.0943
2523	27.4909
2523.5	29.155
2524	30.4744
2524.5	30.9511
2525	30.5918
2525.5	29.5778
2526	28.4366
2526.5	27.6139
2527	27.3819
2527.5	27.501
2528	27.6058
2528.5	27.4396
2529	27.1414
2529.5	26.9688
2530	27.0918
2530.5	27.3535
2531	27.451
2531.5	27.2356
2532	26.9001
2532.5	26.8854
2533	27.4603
2533.5	28.5624
2534	29.6747
2534.5	30.156
2535	29.6028
2535.5	28.2956
2536	26.8577
2536.5	25.8669
2537	25.4533
2537.5	25.4475
2538	25.7094
2538.5	26.2296
2539	27.0121
2539.5	27.7146
2540	27.8346
2540.5	27.0384
2541	25.7826
2541.5	24.9217
2542	25.4119
2542.5	26.9829
2543	28.868
2543.5	29.9363
2544	29.7079
2544.5	28.1908
2545	26.0901
2545.5	24.298
2546	23.5558
2546.5	23.909
2547	24.9444
2547.5	26.0746
2548	26.9508
2548.5	27.6028
2549	28.1193
2549.5	28.3095
2550	27.7896
2550.5	26.6414
2551	25.5784
2551.5	25.6173
2552	26.8334
2552.5	28.3177
2553	28.5244
2553.5	27.2093
2554	25.1711
2554.5	24.0376
2555	24.4953
2555.5	26.2182
2556	27.723
2556.5	28.1217
2557	27.2552
2557.5	26.0598
2558	25.3102
2558.5	25.4354
2559	26.0378
2559.5	26.5089
2560	26.4623
2560.5	26.1163
2561	25.9472
2561.5	26.1578
2562	26.461
2562.5	26.3012
2563	25.7808
2563.5	25.524
2564	26.2545
2564.5	27.7898
2565	29.3431
2565.5	29.9583
2566	29.4901
2566.5	28.4866
2567	27.7622
2567.5	27.644
2568	28.0683
2568.5	28.6159
2569	28.9333
2569.5	28.8514
2570	28.555
2570.5	28.339
2571	28.3676
2571.5	28.5453
2572	28.7324
2572.5	29.0918
2573	29.9684
2573.5	31.4108
2574	32.7519
2574.5	33.0392
2575	31.763
2575.5	29.3419
2576	26.7384
2576.5	24.9859
2577	24.596
2577.5	25.8255
2578	28.0093
2578.5	30.242
2579	31.3129
2579.5	31.1131
2580	30.2876
2580.5	29.8461
2581	29.9212
2581.5	29.7969
2582	28.84
2582.5	27.3723
2583	26.5553
2583.5	26.8513
2584	27.8438
2584.5	28.4182
2585	28.1045
2585.5	27.1123
2586	26.1053
2586.5	25.2162
2587	24.3305
2587.5	23.583
2588	23.4437
2588.5	24.3604
2589	25.909
2589.5	27.3795
2590	28.2248
2590.5	28.4737
2591	28.2968
2591.5	27.7952
2592	26.939
2592.5	26.0095
2593	25.5375
2593.5	25.8204
2594	26.4201
2594.5	26.6163
2595	26.1412
2595.5	25.7912
2596	26.2742
2596.5	27.6749
2597	28.9629
2597.5	29.2964
2598	28.5968
2598.5	27.6284
2599	26.7725
2599.5	25.7941
2600	24.425
2600.5	22.9275
2601	22.19
2601.5	22.6738
2602	24.1749
2602.5	25.8289
2603	27.0859
2603.5	27.8062
2604	28.1356
2604.5	28.0909
2605	27.7111
2605.5	27.1965
2606	26.979
2606.5	27.2855
2607	27.9794
2607.5	28.4934
2608	28.4898
2608.5	28.0174
2609	27.5683
2609.5	27.4525
2610	27.5273
2610.5	27.2241
2611	26.3602
2611.5	25.3657
2612	24.9616
2612.5	25.4145
2613	26.1446
2613.5	26.4558
2614	26.2872
2614.5	26.2906
2615	26.7814
2615.5	27.2134
2616	26.5114
2616.5	24.4276
2617	21.8997
2617.5	20.2974
2618	20.3587
2618.5	21.6773
2619	23.3497
2619.5	24.8542
2620	26.1942
2620.5	27.4652
2621	28.6328
2621.5	29.6103
2622	30.2833
2622.5	30.3878
2623	29.7301
2623.5	28.3279
2624	26.9313
2624.5	26.3529
2625	26.8361
2625.5	27.4016
2626	27.211
2626.5	26.2022
2627	25.468
2627.5	25.961
2628	27.2869
2628.5	28.2763
2629	28.1305
2629.5	27.4344
2630	27.1889
2630.5	27.8682
2631	28.487
2631.5	28.1691
2632	26.8304
2632.5	25.4072
2633	24.6779
2633.5	24.4619
2634	24.1711
2634.5	23.6407
2635	23.3659
2635.5	23.6508
2636	24.0769
2636.5	23.9464
2637	23.3272
2637.5	23.2875
2638	24.5252
2638.5	26.6306
2639	27.778
2639.5	27.1089
2640	25.1972
2640.5	23.998
2641	24.5006
2641.5	26.0777
2642	27.049
2642.5	26.7757
2643	26.0925
2643.5	25.9709
2644	26.4831
2644.5	26.4999
2645	25.4808
2645.5	23.9921
2646	23.2627
2646.5	23.7738
2647	24.8151
2647.5	25.4186
2648	25.4348
2648.5	25.5041
2649	25.94
2649.5	26.3351
2650	26.0788
2650.5	25.3174
2651	24.9285
2651.5	25.4493
2652	26.6882
2652.5	27.7501
2653	28.2708
2653.5	28.5248
2654	29.0556
2654.5	29.9282
2655	30.7139
2655.5	30.9489
2656	30.4403
2656.5	29.1519
2657	27.2863
2657.5	25.1555
2658	23.4704
2658.5	22.725
2659	23.1598
2659.5	24.2415
2660	25.4332
2660.5	26.2962
2661	26.8567
2661.5	27.2558
2662	27.7229
2662.5	28.4153
2663	29.3678
2663.5	30.2164
2664	30.485
2664.5	29.6043
2665	27.7457
2665.5	25.4569
2666	23.9084
2666.5	23.8681
2667	25.5866
2667.5	28.0628
2668	29.7733
2668.5	29.3606
2669	27.5363
2669.5	25.788
2670	25.7198
2670.5	27.0371
2671	28.4291
2671.5	28.4379
2672	27.191
2672.5	25.5606
2673	24.6028
2673.5	24.6497
2674	25.6882
2674.5	27.3158
2675	29.0677
2675.5	30.0438
2676	29.6997
2676.5	28.2969
2677	26.9831
2677.5	26.4831
2678	26.749
2678.5	26.9477
2679	26.7979
2679.5	26.8033
2680	27.443
2680.5	28.4964
2681	28.8945
2681.5	28.0271
2682	26.0861
2682.5	24.1263
2683	22.9936
2683.5	23.2876
2684	24.6188
2684.5	26.348
2685	27.6194
2685.5	27.9763
2686	27.4243
2686.5	26.7127
2687	26.5422
2687.5	27.2352
2688	28.4143
2688.5	29.4905
2689	29.7482
2689.5	29.0495
2690	27.6114
2690.5	26.2669
2691	25.9022
2691.5	26.8041
2692	28.0205
2692.5	28.4421
2693	27.4308
2693.5	25.8646
2694	24.9655
2694.5	25.5352
2695	26.8992
2695.5	28.0652
2696	28.0357
2696.5	26.8737
2697	25.1225
2697.5	23.6978
2698	23.1842
2698.5	23.9625
2699	25.3835
2699.5	26.7118
2700	27.2135
2700.5	26.8797
2701	26.0888
2701.5	25.526
2702	25.3968
2702.5	25.4554
2703	25.1047
2703.5	24.0669
2704	22.7319
2704.5	21.9603
2705	22.2744
2705.5	23.4544
2706	24.6479
2706.5	25.3863
2707	26.0219
2707.5	27.0189
2708	28.2735
2708.5	28.8578
2709	28.2985
2709.5	27.0884
2710	26.4061
2710.5	26.8766
2711	27.8936
2711.5	28.5719
2712	28.6122
2712.5	28.417
2713	28.1484
2713.5	27.383
2714	26.018
2714.5	24.6394
2715	24.4845
2715.5	25.8108
2716	27.5579
2716.5	28.2457
2717	27.4656
2717.5	25.7876
2718	24.5628
2718.5	24.3728
2719	25.0748
2719.5	25.9338
2720	26.2832
2720.5	25.9462
2721	25.1823
2721.5	24.4493
2722	24.2165
2722.5	24.7097
2723	25.7855
2723.5	27.0996
2724	27.9693
2724.5	28.0526
2725	27.3955
2725.5	26.7386
2726	26.484
2726.5	26.5469
2727	26.6118
2727.5	26.4465
2728	25.9884
2728.5	25.3322
2729	24.6659
2729.5	24.1771
2730	24.0552
2730.5	24.4744
2731	25.4021
2731.5	26.5719
2732	27.5909
2732.5	28.1279
2733	28.1773
2733.5	28.1247
2734	28.3238
2734.5	28.8483
2735	29.418
2735.5	29.6654
2736	29.5009
2736.5	29.0736
2737	28.5892
2737.5	28.1401
2738	27.7056
2738.5	27.2715
2739	26.8346
2739.5	26.3389
2740	25.6925
2740.5	24.9055
2741	24.1374
2741.5	23.6196
2742	23.4769
2742.5	23.5701
2743	23.6846
2743.5	23.6723
2744	23.5515
2744.5	23.5057
2745	23.6693
2745.5	23.9721
2746	24.1091
2746.5	23.7179
2747	22.9048
2747.5	22.2097
2748	22.217
2748.5	23.0138
2749	23.8666
2749.5	24.029
2750	23.5138
2750.5	23.1263
2751	23.8353
2751.5	25.4501
2752	26.84
2752.5	26.8828
2753	25.3894
2753.5	23.5129
2754	22.7311
2754.5	23.6454
2755	25.7587
2755.5	27.8444
2756	28.9241
2756.5	29.0078
2757	28.7169
2757.5	28.6421
2758	28.7622
2758.5	28.5116
2759	27.5902
2759.5	26.3374
2760	25.4932
2760.5	25.4701
2761	25.8533
2761.5	26.0972
2762	26.1171
2762.5	26.376
2763	27.1916
2763.5	28.1539
2764	28.5775
2764.5	28.1816
2765	27.409
2765.5	26.9491
2766	26.9622
2766.5	27.1614
2767	27.2276
2767.5	27.0955
2768	26.8728
2768.5	26.6556
2769	26.6419
2769.5	27.1691
2770	28.3085
2770.5	29.3587
2771	29.3704
2771.5	27.9991
2772	26.0459
2772.5	24.9153
2773	25.0121
2773.5	25.6023
2774	25.7498
2774.5	25.3953
2775	25.4893
2775.5	26.6052
2776	28.3155
2776.5	29.6492
2777	29.9902
2777.5	29.6893
2778	29.2621
2778.5	28.834
2779	28.2179
2779.5	27.3019
2780	26.2822
2780.5	25.338
2781	24.5693
2781.5	24.1629
2782	24.5059
2782.5	25.6517
2783	27.0929
2783.5	27.9903
2784	27.773
2784.5	26.6434
2785	25.3958
2785.5	24.5854
2786	24.348
2786.5	24.5641
2787	25.1015
2787.5	25.8244
2788	26.5326
2788.5	26.9954
2789	27.0937
2789.5	26.8967
2790	26.5494
2790.5	26.1236
2791	25.6561
2791.5	25.1897
2792	24.7523
2792.5	24.3551
2793	24.1143
2793.5	24.2948
2794	25.1164
2794.5	26.3309
2795	27.1785
2795.5	27.0812
2796	26.1699
2796.5	25.2724
2797	25.1908
2797.5	25.7629
2798	26.2673
2798.5	26.2735
2799	26.1155
2799.5	26.4431
2800	27.068
2800.5	27.0078
2801	25.5688
2801.5	23.3818
2802	22.4008
2802.5	23.9165
2803	27.231
2803.5	30.2705
2804	31.2176
2804.5	29.9251
2805	27.9872
2805.5	26.7699
2806	26.6409
2806.5	27.2646
2807	28.2453
2807.5	29.2136
2808	29.5348
2808.5	28.5215
2809	26.1949
2809.5	23.7502
2810	22.704
2810.5	23.173
2811	23.9625
2811.5	23.8642
2812	22.9687
2812.5	22.6957
2813	23.9312
2813.5	26.1653
2814	28.1636
2814.5	29.1068
2815	29.104
2815.5	28.7132
2816	28.1945
2816.5	27.73
2817	27.6383
2817.5	28.142
2818	28.7763
2818.5	28.8078
2819	27.968
2819.5	26.7101
2820	25.7104
2820.5	25.0614
2821	24.3803
2821.5	23.5362
2822	22.8289
2822.5	22.5679
2823	22.6001
2823.5	22.601
2824	22.6575
2824.5	23.1298
2825	24.0837
2825.5	24.9569
2826	25.1589
2826.5	24.808
2827	24.5596
2827.5	24.964
2828	26.0134
2828.5	27.2255
2829	28.151
2829.5	28.5154
2830	28.1625
2830.5	27.1528
2831	25.9621
2831.5	25.2665
2832	25.3427
2832.5	25.8731
2833	26.2268
2833.5	25.9688
2834	25.2592
2834.5	24.6544
2835	24.7316
2835.5	25.8143
2836	27.71
2836.5	29.5439
2837	30.235
2837.5	29.3185
2838	27.233
2838.5	24.9863
2839	23.4966
2839.5	23.0773
2840	23.6003
2840.5	24.8077
2841	26.2356
2841.5	27.2162
2842	27.2918
2842.5	26.9163
2843	27.0149
2843.5	28.043
2844	29.4407
2844.5	30.0693
2845	29.4375
2845.5	28.2758
2846	27.5288
2846.5	27.5125
2847	27.8449
2847.5	28.0617
2848	28.1341
2848.5	28.167
2849	28.0254
2849.5	27.4823
2850	26.5743
2850.5	25.6218
2851	24.7565
2851.5	23.8265
2852	22.8906
2852.5	22.5029
2853	23.2544
2853.5	24.7201
2854	25.5085
2854.5	24.8
2855	23.2872
2855.5	22.6456
2856	23.8497
2856.5	25.7515
2857	26.5238
2857.5	25.6882
2858	24.4722
2858.5	24.4221
2859	25.6981
2859.5	26.8732
2860	27.0082
2860.5	26.5592
2861	26.6431
2861.5	27.6816
2862	28.8842
2862.5	29.3055
2863	28.9026
2863.5	28.2074
2864	27.5523
2864.5	26.7783
2865	25.6659
2865.5	24.4157
2866	23.3626
2866.5	22.6489
2867	22.299
2867.5	22.4891
2868	23.4603
2868.5	24.948
2869	26.2257
2869.5	26.6969
2870	26.4733
2870.5	26.2928
2871	26.7755
2871.5	27.7304
2872	28.5528
2872.5	28.8452
2873	28.6773
2873.5	28.3339
2874	27.8704
2874.5	27.0303
2875	25.6447
2875.5	24.0043
2876	22.821
2876.5	22.725
2877	23.6123
2877.5	24.5567
2878	24.851
2878.5	24.6715
2879	24.8724
2879.5	25.9956
2880	27.4339
2880.5	27.9295
2881	27.0042
2881.5	25.312
2882	23.9102
2882.5	23.2817
2883	23.1046
2883.5	22.9021
2884	22.6532
2884.5	22.5401
2885	22.5835
2885.5	22.6318
2886	22.6138
2886.5	22.6443
2887	22.8406
2887.5	23.2523
2888	23.8953
2888.5	24.6569
2889	25.1112
2889.5	24.6955
2890	23.4758
2890.5	22.3289
2891	22.304
2891.5	23.661
2892	25.5507
2892.5	26.6307
2893	26.2954
2893.5	24.8069
2894	22.8628
2894.5	21.2423
2895	20.6348
2895.5	21.4252
2896	23.1587
2896.5	24.8115
2897	25.5614
2897.5	25.3709
2898	24.8476
2898.5	24.5302
2899	24.3579
2899.5	23.995
2900	23.455
2900.5	23.1513
2901	23.4856
2901.5	24.4361
2902	25.4939
2902.5	26.0452
2903	25.8895
2903.5	25.3628
2904	25.0599
2904.5	25.2857
2905	25.6997
2905.5	25.6344
2906	25.0291
2906.5	24.6003
2907	25.1066
2907.5	26.4972
2908	27.863
2908.5	28.2407
2909	27.5603
2909.5	26.4042
2910	25.249
2910.5	24.2101
2911	23.2607
2911.5	22.458
2912	21.8991
2912.5	21.6298
2913	21.7801
2913.5	22.5031
2914	23.6236
2914.5	24.4786
2915	24.396
2915.5	23.5398
2916	22.9371
2916.5	23.3479
2917	24.6354
2917.5	26.1043
2918	27.2661
2918.5	28.0038
2919	28.058
2919.5	26.9981
2920	25.0137
2920.5	23.3103
2921	23.2297
2921.5	24.8555
2922	26.6588
2922.5	26.9392
2923	25.5422
2923.5	23.5033
2924	21.8727
2924.5	21.0888
2925	21.2698
2925.5	22.5626
2926	24.6217
2926.5	26.3491
2927	26.6826
2927.5	25.6479
2928	24.3464
2928.5	23.7192
2929	23.4772
2929.5	22.6321
2930	21.1932
2930.5	20.3995
2931	21.4282
2931.5	24.0197
2932	26.4872
2932.5	27.0677
2933	25.5596
2933.5	23.2343
2934	21.5137
2934.5	21.054
2935	21.6128
2935.5	22.5348
2936	23.285
2936.5	23.6709
2937	23.7363
2937.5	23.5724
2938	23.305
2938.5	23.1317
2939	23.2889
2939.5	23.9365
2940	25.021
2940.5	26.2111
2941	27.0174
2941.5	26.9775
2942	25.9748
2942.5	24.4868
2943	23.417
2943.5	23.4435
2944	24.2527
2944.5	24.9618
2945	25.0965
2945.5	25.0491
2946	25.4962
2946.5	26.4408
2947	27.0657
2947.5	26.7613
2948	25.9673
2948.5	25.4078
2949	25.0387
2949.5	24.112
2950	22.3971
2950.5	21.0229
2951	21.6381
2951.5	24.2527
2952	27.021
2952.5	28.0094
2953	26.9183
2953.5	25.0808
2954	23.927
2954.5	23.6531
2955	23.4026
2955.5	22.6561
2956	21.8325
2956.5	21.6718
2957	22.3945
2957.5	23.4742
2958	24.1189
2958.5	23.9139
2959	23.1512
2959.5	22.4392
2960	22.1362
2960.5	22.089
2961	21.8143
2961.5	21.0081
2962	19.9679
2962.5	19.5525
2963	20.4287
2963.5	22.3691
2964	24.3047
2964.5	25.0755
2965	24.3776
2965.5	23.0783
2966	22.5456
2966.5	23.4748
2967	25.0712
2967.5	26.0121
2968	25.6669
2968.5	24.5598
2969	23.7367
2969.5	23.7834
2970	24.4754
2970.5	25.2302
2971	25.7038
2971.5	25.8147
2972	25.5077
2972.5	24.828
2973	24.1352
2973.5	23.9684
2974	24.5098
2974.5	25.2118
2975	25.2295
2975.5	24.3335
2976	23.0895
2976.5	22.2562
2977	22.0657
2977.5	22.1201
2978	21.932
2978.5	21.4667
2979	21.1165
2979.5	21.1688
2980	21.5667
2980.5	22.1171
2981	22.7507
2981.5	23.5012
2982	24.3059
2982.5	24.9651
2983	25.3525
2983.5	25.5532
2984	25.6196
2984.5	25.3981
2985	24.7547
2985.5	23.9619
2986	23.6577
2986.5	24.23
2987	25.2448
2987.5	25.6946
2988	25.0363
2988.5	23.6264
2989	22.2785
2989.5	21.5616
2990	21.5462
2990.5	22.0336
2991	22.7924
2991.5	23.5523
2992	24.0186
2992.5	24.0404
2993	23.6158
2993.5	22.7253
2994	21.3565
2994.5	19.8701
2995	19.1964
2995.5	20.2732
2996	23.0118
2996.5	25.8945
2997	27.3337
2997.5	26.8461
2998	25.1971
2998.5	23.548
2999	22.615
2999.5	22.4818
3000	22.8284
3000.5	23.1302
3001	22.9701
3001.5	22.4394
3002	22.0888
3002.5	22.2784
3003	22.6071
3003.5	22.2714
3004	21.1007
3004.5	19.9906
3005	20.049
3005.5	21.1886
3006	22.3745
3006.5	22.8316
3007	22.7024
3007.5	22.5055
3008	22.3062
3008.5	21.763
3009	20.9359
3009.5	20.6989
3010	21.8987
3010.5	24.2084
3011	26.1823
3011.5	26.3861
3012	24.6311
3012.5	22.2168
3013	20.9122
3013.5	21.4519
3014	22.839
3014.5	23.2241
3015	21.9267
3015.5	20.1443
3016	19.7234
3016.5	21.3203
3017	23.8015
3017.5	25.4021
3018	25.3161
3018.5	24.1152
3019	22.8751
3019.5	22.2078
3020	22.1694
3020.5	22.6889
3021	23.6083
3021.5	24.5401
3022	25.0546
3022.5	25.1089
3023	25.0932
3023.5	25.2725
3024	25.2651
3024.5	24.3799
3025	22.5916
3025.5	20.7901
3026	20.0116
3026.5	20.4394
3027	21.2669
3027.5	21.5792
3028	21.2988
3028.5	21.1579
3029	21.7337
3029.5	22.6155
3030	22.8597
3030.5	22.1786
3031	21.3581
3031.5	21.4953
3032	22.868
3032.5	24.6323
3033	25.6282
3033.5	25.4326
3034	24.6273
3034.5	24.1285
3035	24.2152
3035.5	24.3454
3036	23.7473
3036.5	22.1672
3037	20.1744
3037.5	18.7845
3038	18.7169
3038.5	19.8994
3039	21.621
3039.5	23.0425
3040	23.5876
3040.5	23.1044
3041	21.9004
3041.5	20.8088
3042	20.8385
3042.5	22.3808
3043	24.6802
3043.5	26.2914
3044	26.2528
3044.5	24.8228
3045	23.0538
3045.5	21.754
3046	20.9905
3046.5	20.5292
3047	20.2453
3047.5	20.1041
3048	20.0516
3048.5	20.137
3049	20.5926
3049.5	21.5172
3050	22.4728
3050.5	22.6684
3051	21.7754
3051.5	20.4688
3052	19.7873
3052.5	20.2148
3053	21.3911
3053.5	22.6049
3054	23.4205
3054.5	23.8793
3055	24.3051
3055.5	24.9803
3056	25.8429
3056.5	26.3569
3057	25.8959
3057.5	24.5075
3058	23.0899
3058.5	22.6113
3059	23.0864
3059.5	23.5508
3060	23.1902
3060.5	22.3321
3061	22.0642
3061.5	22.8737
3062	23.9163
3062.5	23.7949
3063	22.103
3063.5	19.894
3064	18.6622
3064.5	19.138
3065	20.8588
3065.5	22.6759
3066	23.6139
3066.5	23.4156
3067	22.4898
3067.5	21.4651
3068	20.79
3068.5	20.623
3069	20.858
3069.5	21.0905
3070	20.7845
3070.5	19.7591
3071	18.6342
3071.5	18.5037
3072	19.8787
3072.5	21.9908
3073	23.4002
3073.5	23.3963
3074	22.6513
3074.5	22.3843
3075	23.0205
3075.5	23.8604
3076	24.0845
3076.5	23.6075
3077	22.8985
3077.5	22.3576
3078	22.0898
3078.5	22.1626
3079	22.7407
3079.5	23.7588
3080	24.5789
3080.5	24.3072
3081	22.7146
3081.5	20.7956
3082	20.114
3082.5	21.1561
3083	22.771
3083.5	23.3529
3084	22.5253
3084.5	21.4369
3085	21.3501
3085.5	22.2335
3086	22.9964
3086.5	22.9118
3087	22.3599
3087.5	22.0786
3088	22.1301
3088.5	22.0237
3089	21.685
3089.5	21.7272
3090	22.5591
3090.5	23.7576
3091	24.5309
3091.5	24.5636
3092	24.1476
3092.5	23.6183
3093	22.9907
3093.5	22.2053
3094	21.4673
3094.5	21.1374
3095	21.3611
3095.5	21.9345
3096	22.4811
3096.5	22.655
3097	22.2855
3097.5	21.4983
3098	20.7415
3098.5	20.5018
3099	20.9003
3099.5	21.6403
3100	22.393
3100.5	23.1071
3101	23.8151
3101.5	24.2427
3102	23.9025
3102.5	22.7336
3103	21.4986
3103.5	21.2422
3104	22.2117
3104.5	23.4047
3105	23.5604
3105.5	22.3862
3106	20.7682
3106.5	19.8373
3107	20.0225
3107.5	21.0693
3108	22.6716
3108.5	24.6668
3109	26.6009
3109.5	27.5996
3110	27.1181
3110.5	25.6883
3111	24.4522
3111.5	23.8542
3112	23.2206
3112.5	21.9788
3113	20.8024
3113.5	20.8768
3114	22.3467
3114.5	24.0305
3115	24.7491
3115.5	24.4756
3116	23.9463
3116.5	23.553
3117	23.112
3117.5	22.5903
3118	22.472
3118.5	23.1451
3119	24.2568
3119.5	25.0606
3120	25.326
3120.5	25.5631
3121	26.2406
3121.5	26.9929
3122	26.9322
3122.5	25.6089
3123	23.5167
3123.5	21.6315
3124	20.5504
3124.5	20.1684
3125	20.1298
3125.5	20.374
3126	21.0634
3126.5	22.076
3127	22.8603
3127.5	22.9196
3128	22.2741
3128.5	21.3018
3129	20.3048
3129.5	19.4717
3130	19.1095
3130.5	19.4719
3131	20.2448
3131.5	20.7048
3132	20.5614
3132.5	20.3425
3133	20.6802
3133.5	21.465
3134	22.0782
3134.5	22.3141
3135	22.6055
3135.5	23.2772
3136	24.0033
3136.5	24.2182
3137	23.747
3137.5	22.7695
3138	21.4758
3138.5	20.1812
3139	19.5855
3139.5	20.3003
3140	21.9629
3140.5	23.2958
3141	23.3852
3141.5	22.6661
3142	22.1567
3142.5	22.1817
3143	22.2319
3143.5	21.9307
3144	21.608
3144.5	21.7583
3145	22.2952
3145.5	22.6477
3146	22.469
3146.5	21.9853
3147	21.6489
3147.5	21.6324
3148	21.7134
3148.5	21.553
3149	21.0685
3149.5	20.6006
3150	20.7108
3150.5	21.6659
3151	23.0592
3151.5	24.0821
3152	24.3081
3152.5	24.1251
3153	24.2049
3153.5	24.5645
3154	24.4807
3154.5	23.3847
3155	21.6541
3155.5	20.3292
3156	20.1152
3156.5	20.8299
3157	21.7804
3157.5	22.4502
3158	22.7757
3158.5	22.9987
3159	23.4307
3159.5	24.2041
3160	25.0278
3160.5	25.2804
3161	24.6283
3161.5	23.5663
3162	23.0615
3162.5	23.5435
3163	24.4718
3163.5	25.0408
3164	25.0513
3164.5	24.8201
3165	24.4694
3165.5	23.7975
3166	22.8925
3166.5	22.3938
3167	22.803
3167.5	23.8265
3168	24.6766
3168.5	24.8773
3169	24.5459
3169.5	24.0327
3170	23.6025
3170.5	23.4417
3171	23.6295
3171.5	23.9661
3172	24.0931
3172.5	23.9846
3173	24.1257
3173.5	24.914
3174	25.968
3174.5	26.3792
3175	25.7568
3175.5	24.7294
3176	24.167
3176.5	24.0962
3177	23.7622
3177.5	22.7776
3178	21.7963
3178.5	21.762
3179	22.7174
3179.5	23.7585
3180	24.1314
3180.5	23.9519
3181	23.6992
3181.5	23.4304
3182	22.909
3182.5	22.2787
3183	22.0365
3183.5	22.2523
3184	22.3141
3184.5	21.7922
3185	21.1698
3185.5	21.3252
3186	22.3817
3186.5	23.4598
3187	23.5897
3187.5	22.6707
3188	21.5239
3188.5	21.1707
3189	22.0275
3189.5	23.5734
3190	24.7754
3190.5	25.0853
3191	25.1043
3191.5	25.985
3192	27.9675
3192.5	29.7547
3193	29.7164
3193.5	27.6698
3194	25.1082
3194.5	23.587
3195	23.2302
3195.5	23.0422
3196	22.3745
3196.5	21.6246
3197	21.5146
3197.5	22.139
3198	22.9774
3198.5	23.5891
3199	23.9381
3199.5	24.0928
3200	23.983
3200.5	23.6488
3201	23.5082
3201.5	24.0446
3202	25.1542
3202.5	26.0005
3203	25.7315
3203.5	24.383
3204	22.9726
3204.5	22.5889
3205	23.3658
3205.5	24.4107
3206	24.7556
3206.5	24.2866
3207	23.6763
3207.5	23.5557
3208	24.0056
3208.5	24.8215
3209	25.8656
3209.5	26.8665
3210	27.1626
3210.5	26.2002
3211	24.3734
3211.5	22.9043
3212	22.5839
3212.5	22.9677
3213	23.1455
3213.5	23.0583
3214	23.5175
3214.5	24.8839
3215	26.2764
3215.5	26.4824
3216	25.4286
3216.5	24.3232
3217	24.2913
3217.5	25.1626
3218	25.7691
3218.5	25.2699
3219	23.9357
3219.5	22.6337
3220	21.8263
3220.5	21.3379
3221	21.0055
3221.5	21.1448
3222	22.1214
3222.5	23.6775
3223	25.049
3223.5	25.661
3224	25.3839
3224.5	24.2411
3225	22.4483
3225.5	20.8989
3226	20.944
3226.5	23.053
3227	25.9309
3227.5	27.5876
3228	27.2895
3228.5	25.9871
3229	24.8947
3229.5	24.3273
3230	24.0916
3230.5	24.2303
3231	24.7676
3231.5	25.1942
3232	24.9655
3232.5	24.3622
3233	24.1621
3233.5	24.4622
3234	24.5354
3234.5	24.0347
3235	23.6294
3235.5	23.9891
3236	24.6779
3236.5	24.7132
3237	23.9541
3237.5	23.237
3238	23.1665
3238.5	23.4501
3239	23.6186
3239.5	23.776
3240	24.173
3240.5	24.4482
3241	23.958
3241.5	22.8398
3242	22.1705
3242.5	22.7833
3243	24.2454
3243.5	25.3641
3244	25.5769
3244.5	25.439
3245	25.6638
3245.5	26.0978
3246	26.0476
3246.5	25.4554
3247	25.1676
3247.5	25.7725
3248	26.5949
3248.5	26.3998
3249	25.0221
3249.5	23.7216
3250	23.6814
3250.5	24.5783
3251	25.0674
3251.5	24.4906
3252	23.6159
3252.5	23.6116
3253	24.6601
3253.5	25.8202
3254	26.0771
3254.5	25.2798
3255	24.0855
3255.5	23.2495
3256	23.1241
3256.5	23.6802
3257	24.6321
3257.5	25.3606
3258	25.084
3258.5	23.6446
3259	22.1001
3259.5	21.894
3260	23.1401
3260.5	24.3094
3261	24.0739
3261.5	22.993
3262	22.6496
3262.5	23.4174
3263	24.0793
3263.5	23.7548
3264	23.1323
3264.5	23.1956
3265	23.5786
3265.5	23.19
3266	22.1189
3266.5	21.8213
3267	23.2185
3267.5	25.3849
3268	26.5084
3268.5	25.6916
3269	23.5148
3269.5	21.2897
3270	20.2009
3270.5	20.8111
3271	22.7165
3271.5	24.576
3272	24.9605
3272.5	23.5672
3273	21.5746
3273.5	20.6067
3274	21.2422
3274.5	22.5372
3275	22.9841
3275.5	21.8224
3276	19.339
3276.5	16.167
3277	12.8753
3277.5	10.4488
3278	10.4595
3278.5	13.7924
3279	19.151
3279.5	23.6834
3280	25.5834
3280.5	25.6211
3281	25.7107
3281.5	26.5081
3282	27.0878
3282.5	26.62
3283	25.4272
3283.5	24.2907
3284	23.523
3284.5	23.112
3285	23.1793
3285.5	23.7103
3286	24.0894
3286.5	23.4678
3287	21.6883
3287.5	19.6387
3288	18.6005
3288.5	19.2318
3289	21.0777
3289.5	23.0272
3290	24.3235
3290.5	25.0941
3291	25.777
3291.5	26.2308
3292	25.8812
3292.5	24.7996
3293	24.0622
3293.5	24.6115
3294	26.0596
3294.5	27.0832
3295	26.8815
3295.5	25.8408
3296	24.8324
3296.5	24.2842
3297	24.0432
3297.5	23.8055
3298	23.5027
3298.5	23.4097
3299	23.902
3299.5	24.9578
3300	25.9283
3300.5	26.0284
3301	25.0999
3301.5	23.7554
3302	22.7596
3302.5	22.4851
3303	22.8928
3303.5	23.6875
3304	24.4158
3304.5	24.672
3305	24.386
3305.5	23.8494
3306	23.4536
3306.5	23.4718
3307	23.9393
3307.5	24.4795
3308	24.3714
3308.5	23.2351
3309	21.7188
3309.5	21.0669
3310	21.7959
3310.5	23.1597
3311	24.1361
3311.5	24.5347
3312	24.784
3312.5	25.0479
3313	25.1395
3313.5	25.1079
3314	25.2594
3314.5	25.5527
3315	25.5568
3315.5	25.2027
3316	25.0405
3316.5	25.4835
3317	26.1267
3317.5	26.1442
3318	25.2805
3318.5	24.2626
3319	24.1908
3319.5	25.457
3320	27.1968
3320.5	28.0236
3321	27.5862
3321.5	27.2069
3322	28.5224
3322.5	31.592
3323	34.8938
3323.5	37.0907
3324	37.9624
3324.5	37.4794
3325	35.1634
3325.5	31.2469
3326	27.6046
3326.5	26.1059
3327	26.381
3327.5	26.5308
3328	25.7653
3328.5	25.0843
3329	25.2697
3329.5	25.605
3330	25.2034
3330.5	24.4711
3331	24.3301
3331.5	24.7483
3332	25.0456
3332.5	25.1703
3333	25.6308
3333.5	26.3719
3334	26.7214
3334.5	26.4179
3335	25.8791
3335.5	25.4152
3336	24.9085
3336.5	24.3692
3337	24.1043
3337.5	24.2107
3338	24.4782
3338.5	24.7946
3339	25.0708
3339.5	24.8362
3340	23.6829
3340.5	22.2445
3341	21.9226
3341.5	23.2475
3342	25.1299
3342.5	26.1691
3343	26.1764
3343.5	25.9522
3344	26.0583
3344.5	26.3863
3345	26.5948
3345.5	26.4042
3346	25.7103
3346.5	24.8703
3347	24.6446
3347.5	25.3906
3348	26.548
3348.5	27.3259
3349	27.6052
3349.5	27.6964
3350	27.5565
3350.5	26.9257
3351	26.0439
3351.5	25.441
3352	25.0102
3352.5	24.1256
3353	22.9294
3353.5	22.6755
3354	24.129
3354.5	26.1935
3355	27.112
3355.5	26.6082
3356	26.1202
3356.5	26.8008
3357	27.9831
3357.5	28.1344
3358	26.9631
3358.5	25.8168
3359	25.8433
3359.5	26.4704
3360	26.3507
3360.5	25.4358
3361	25.1591
3361.5	26.4129
3362	28.2028
3362.5	29.0642
3363	28.9029
3363.5	28.6365
3364	28.5972
3364.5	28.2434
3365	27.3058
3365.5	26.2656
3366	25.4964
3366.5	24.7023
3367	23.6061
3367.5	22.6613
3368	22.6139
3368.5	23.6136
3369	25.0604
3369.5	26.1388
3370	26.4047
3370.5	26.0669
3371	25.8489
3371.5	26.2145
3372	26.6866
3372.5	26.4508
3373	25.7386
3373.5	25.8583
3374	27.3796
3374.5	29.0115
3375	29.166
3375.5	28.2182
3376	28.0682
3376.5	29.2485
3377	29.9427
3377.5	28.4779
3378	25.7018
3378.5	24.0256
3379	24.559
3379.5	26.1765
3380	27.3645
3380.5	27.9451
3381	28.4719
3381.5	28.7261
3382	27.8818
3382.5	26.1414
3383	25.1866
3383.5	26.1568
3384	27.9202
3384.5	28.1584
3385	26.0884
3385.5	23.3979
3386	22.2309
3386.5	22.9153
3387	24.2546
3387.5	25.4948
3388	26.9185
3388.5	28.4725
3389	29.0156
3389.5	27.8637
3390	26.2313
3390.5	25.9611
3391	27.1913
3391.5	28.1698
3392	27.4642
3392.5	25.5617
3393	23.9919
3393.5	23.5463
3394	23.8821
3394.5	24.4198
3395	24.9464
3395.5	25.4618
3396	26.0398
3396.5	26.8879
3397	28.0505
3397.5	28.9806
3398	28.8853
3398.5	27.731
3399	26.5112
3399.5	26.1329
3400	26.3053
3400.5	26.0643
3401	25.3262
3401.5	25.207
3402	26.3491
3402.5	27.805
3403	28.1518
3403.5	27.3297
3404	26.6078
3404.5	26.7741
3405	27.1727
3405.5	26.8482
3406	25.962
3406.5	25.486
3407	25.8288
3407.5	26.4354
3408	26.659
3408.5	26.2889
3409	25.4194
3409.5	24.2879
3410	23.289
3410.5	22.8262
3411	23.0471
3411.5	23.7799
3412	24.5612
3412.5	24.6492
3413	23.5631
3413.5	21.9065
3414	21.2281
3414.5	22.4003
3415	24.3533
3415.5	25.141
3416	24.2576
3416.5	23.1751
3417	23.4133
3417.5	24.7824
3418	25.9452
3418.5	26.2185
3419	25.9045
3419.5	25.3841
3420	24.6639
3420.5	23.8587
3421	23.5517
3421.5	24.2714
3422	25.6763
3422.5	26.546
3423	25.914
3423.5	24.3375
3424	23.529
3424.5	24.6155
3425	26.7753
3425.5	27.9897
3426	27.2091
3426.5	25.4168
3427	24.3986
3427.5	24.8239
3428	25.7765
3428.5	25.9875
3429	25.0476
3429.5	23.5175
3430	22.3721
3430.5	22.2767
3431	23.114
3431.5	24.1744
3432	24.9175
3432.5	25.427
3433	25.9616
3433.5	26.3288
3434	26.1802
3434.5	25.716
3435	25.6196
3435.5	26.2248
3436	27.0827
3436.5	27.466
3437	27.035
3437.5	25.8903
3438	24.3382
3438.5	22.8326
3439	22.098
3439.5	22.8301
3440	25.0246
3440.5	27.588
3441	28.8757
3441.5	28.0395
3442	26.0426
3442.5	25.0073
3443	25.9479
3443.5	27.7032
3444	28.2514
3444.5	26.9751
3445	25.2071
3445.5	24.6133
3446	25.4583
3446.5	26.5829
3447	26.7954
3447.5	26.015
3448	25.0352
3448.5	24.6362
3449	25.0022
3449.5	25.9174
3450	27.2028
3450.5	28.5871
3451	29.2748
3451.5	28.522
3452	26.8253
3452.5	25.7084
3453	25.8898
3453.5	26.3374
3454	25.8477
3454.5	24.8556
3455	24.589
3455.5	24.9053
3456	24.6205
3456.5	23.9057
3457	24.2642
3457.5	25.9382
3458	27.0209
3458.5	26.0635
3459	24.2761
3459.5	23.9053
3460	25.1639
3460.5	26.5596
3461	27.4744
3461.5	28.5198
3462	29.712
3462.5	29.8873
3463	28.3755
3463.5	26.1395
3464	24.6183
3464.5	24.1452
3465	24.3609
3465.5	25.0802
3466	25.9514
3466.5	25.9905
3467	24.6145
3467.5	22.9814
3468	23.1429
3468.5	25.3068
3469	27.4854
3469.5	27.973
3470	27.1408
3470.5	26.2472
3471	25.5013
3471.5	24.4521
3472	23.6616
3472.5	24.2389
3473	25.7717
3473.5	26.497
3474	25.7346
3474.5	24.8462
3475	25.1288
3475.5	25.8606
3476	25.471
3476.5	24.1863
3477	23.7204
3477.5	24.9024
3478	26.5548
3478.5	26.8305
3479	25.1235
3479.5	22.5558
3480	20.9591
3480.5	21.2106
3481	22.5998
3481.5	23.5375
3482	23.0619
3482.5	21.7649
3483	21.0766
3483.5	21.6125
3484	22.4444
3484.5	22.5647
3485	22.3381
3485.5	22.8617
3486	23.9443
3486.5	23.6162
3487	20.3448
3487.5	15.3874
3488	11.8421
3488.5	11.4527
3489	13.6348
3489.5	16.9398
3490	20.4017
3490.5	23.3456
3491	24.9784
3491.5	25.0357
3492	24.0736
3492.5	22.8865
3493	22.093
3493.5	22.2475
3494	23.5767
3494.5	25.3358
3495	26.2207
3495.5	25.9402
3496	25.3932
3496.5	25.1734
3497	24.7316
3497.5	23.5198
3498	22.2375
3498.5	22.0701
3499	22.9151
3499.5	23.533
3500	23.0936
3500.5	22.0463
3501	21.4446
3501.5	21.7527
3502	22.3991
3502.5	22.5394
3503	22.212
3503.5	22.3909
3504	23.769
3504.5	25.7123
3505	26.9417
3505.5	27.1438
3506	27.1057
3506.5	27.1164
3507	26.627
3507.5	25.5147
3508	24.6003
3508.5	24.3346
3509	23.9639
3509.5	23.0724
3510	22.7314
3510.5	23.9641
3511	25.914
3511.5	26.7594
3512	26.0436
3512.5	24.9114
3513	24.0546
3513.5	23.2608
3514	22.7099
3514.5	23.0786
3515	24.048
3515.5	24.0204
3516	22.4382
3516.5	21.0091
3517	21.6629
3517.5	23.8422
3518	24.6382
3518.5	21.7584
3519	16.2928
3519.5	12.1044
3520	12.0169
3520.5	15.3995
3521	19.1308
3521.5	20.8961
3522	21.121
3522.5	21.7002
3523	23.3521
3523.5	25.2232
3524	26.1496
3524.5	25.7643
3525	24.697
3525.5	24.0793
3526	24.4725
3526.5	25.3385
3527	25.7729
3527.5	25.6588
3528	25.5688
3528.5	25.5995
3529	25.2412
3529.5	24.6236
3530	24.5861
3530.5	25.2335
3531	25.5031
3531.5	24.8032
3532	24.132
3532.5	24.3505
3533	24.6732
3533.5	24.0611
3534	23.2194
3534.5	23.7375
3535	25.3467
3535.5	25.902
3536	24.5968
3536.5	23.1401
3537	23.3029
3537.5	24.3925
3538	24.329
3538.5	22.9195
3539	22.0337
3539.5	22.884
3540	24.4194
3540.5	24.7951
3541	23.6623
3541.5	22.3145
3542	21.6919
3542.5	21.6088
3543	21.5804
3543.5	21.6491
3544	22.1009
3544.5	22.7879
3545	23.3545
3545.5	23.7937
3546	24.3381
3546.5	24.8536
3547	24.7746
3547.5	23.9865
3548	23.214
3548.5	23.2676
3549	24.0921
3549.5	24.8851
3550	25.1051
3550.5	25.0567
3551	25.1783
3551.5	25.4662
3552	25.6698
3552.5	25.6762
3553	25.4306
3553.5	24.8355
3554	23.9976
3554.5	23.213
3555	22.405
3555.5	21.0919
3556	19.4468
3556.5	18.6435
3557	19.2999
3557.5	20.3259
3558	20.1947
3558.5	19.0746
3559	18.5387
3559.5	18.9697
3560	19.1708
3560.5	18.4287
3561	17.6625
3561.5	18.0159
3562	19.1758
3562.5	20.316
3563	21.3349
3563.5	22.46
3564	23.3189
3564.5	23.3401
3565	22.8232
3565.5	22.5822
3566	22.926
3566.5	23.5058
3567	24.0371
3567.5	24.5929
3568	25.0736
3568.5	25.0053
3569	24.0939
3569.5	22.7441
3570	21.8051
3570.5	21.734
3571	22.31
3571.5	22.9575
3572	23.1486
3572.5	22.636
3573	21.7188
3573.5	21.0879
3574	21.1476
3574.5	21.3953
3575	20.8558
3575.5	19.4498
3576	18.4863
3576.5	19.2226
3577	21.519
3577.5	23.995
3578	25.3075
3578.5	25.1818
3579	24.0767
3579.5	22.6068
3580	21.4188
3580.5	21.2094
3581	22.1748
3581.5	23.4312
3582	23.5955
3582.5	22.282
3583	20.8424
3583.5	20.9479
3584	22.3148
3584.5	23.2067
3585	22.612
3585.5	21.2872
3586	20.615
3586.5	20.9861
3587	21.9216
3587.5	22.8109
3588	23.1884
3588.5	22.8529
3589	22.1625
3589.5	21.6728
3590	21.4737
3590.5	21.1276
3591	20.3548
3591.5	19.5334
3592	19.1404
3592.5	19.1259
3593	19.1209
3593.5	19.2027
3594	20.0537
3594.5	21.89
3595	23.791
3595.5	24.5554
3596	24.1335
3596.5	23.6274
3597	23.6432
3597.5	23.7452
3598	23.4733
3598.5	22.9392
3599	22.2302
3599.5	21.1056
3600	19.6842
3600.5	18.7186
3601	18.9701
3601.5	20.6177
3602	23.1181
3602.5	25.2713
3603	25.6156
3603.5	23.7934
3604	21.4331
3604.5	20.4964
3605	21.2087
3605.5	22.3931
3606	23.0481
3606.5	22.9232
3607	22.063
3607.5	20.8301
3608	20.099
3608.5	20.3256
3609	20.5219
3609.5	19.4605
3610	17.6612
3610.5	17.2944
3611	19.9006
3611.5	24.0765
3612	26.6537
3612.5	25.8284
3613	22.9031
3613.5	20.9832
3614	21.5578
3614.5	23.4198
3615	24.8068
3615.5	25.2496
3616	25.16
3616.5	24.6451
3617	23.6609
3617.5	22.6481
3618	22.0668
3618.5	21.7778
3619	21.5907
3619.5	21.8081
3620	22.4503
3620.5	22.7088
3621	22.1187
3621.5	21.6508
3622	22.3534
3622.5	23.6175
3623	23.6922
3623.5	22.2013
3624	20.5968
3624.5	20.0727
3625	20.1759
3625.5	19.7487
3626	18.8185
3626.5	18.4011
3627	19.0608
3627.5	20.27
3628	21.1956
3628.5	21.7546
3629	22.2882
3629.5	22.6806
3630	22.2064
3630.5	20.6823
3631	19.075
3631.5	18.6021
3632	19.3487
3632.5	20.0919
3633	19.8369
3633.5	18.8505
3634	18.129
3634.5	18.358
3635	19.2526
3635.5	19.9222
3636	19.72
3636.5	19.0396
3637	19.1774
3637.5	20.6461
3638	22.2753
3638.5	22.4179
3639	20.908
3639.5	19.4264
3640	19.4108
3640.5	20.717
3641	22.1039
3641.5	22.5701
3642	22.1951
3642.5	21.5007
3643	20.5592
3643.5	19.0011
3644	17.2338
3644.5	16.659
3645	18.0096
3645.5	19.9857
3646	20.5686
3646.5	19.758
3647	19.168
3647.5	19.6135
3648	20.1472
3648.5	19.69
3649	18.428
3649.5	17.3189
3650	17.2738
3650.5	18.4244
3651	19.6628
3651.5	19.4448
3652	17.7258
3652.5	16.5878
3653	17.3359
3653.5	18.4311
3654	17.7382
3654.5	15.8973
3655	15.5684
3655.5	17.3137
3656	19.1242
3656.5	19.4306
3657	19.0721
3657.5	19.2824
3658	19.8266
3658.5	19.7944
3659	19.1333
3659.5	18.6563
3660	18.997
3660.5	20.1959
3661	21.7192
3661.5	22.7662
3662	22.8927
3662.5	22.2094
3663	21.0548
3663.5	19.7567
3664	18.7231
3664.5	18.3655
3665	18.6404
3665.5	19.1372
3666	19.8519
3666.5	20.9771
3667	21.9892
3667.5	21.8846
3668	20.797
3668.5	20.1364
3669	20.8969
3669.5	22.1348
3670	22.1066
3670.5	20.5567
3671	19.1713
3671.5	19.7239
3672	21.5704
3672.5	22.3757
3673	20.8257
3673.5	18.3334
3674	17.1845
3674.5	17.7746
3675	19.0007
3675.5	20.118
3676	21.0841
3676.5	21.5776
3677	21.2717
3677.5	20.66
3678	20.3471
3678.5	19.9988
3679	19.1821
3679.5	18.4461
3680	18.4489
3680.5	18.8396
3681	19.0756
3681.5	19.4106
3682	20.0881
3682.5	20.4592
3683	19.8949
3683.5	18.9299
3684	18.7866
3684.5	19.9567
3685	21.7349
3685.5	22.5485
3686	21.3799
3686.5	19.0316
3687	17.5284
3687.5	17.8892
3688	18.8465
3688.5	18.974
3689	18.334
3689.5	17.7704
3690	17.6294
3690.5	18.0556
3691	19.3403
3691.5	21.1419
3692	22.3267
3692.5	22.3542
3693	21.674
3693.5	20.8125
3694	19.9784
3694.5	19.6476
3695	20.2896
3695.5	21.2046
3696	20.9425
3696.5	19.2364
3697	17.4679
3697.5	17.1717
3698	18.3897
3698.5	20.0972
3699	21.1319
3699.5	21.0385
3700	20.4714
