#Imported=	16.12.2021 13:56:06
50	6.01296
50.5	6.41217
51	6.98525
51.5	7.56775
52	8.02866
52.5	8.26408
53	8.34276
53.5	8.37713
54	8.5895
54.5	9.14745
55	10.0627
55.5	11.2059
56	12.291
56.5	13.1017
57	13.4228
57.5	13.3732
58	13.2257
58.5	13.3696
59	13.9896
59.5	15.118
60	16.687
60.5	18.3825
61	19.975
61.5	21.3857
62	22.7533
62.5	24.2449
63	26.0534
63.5	28.179
64	30.479
64.5	32.6743
65	34.5708
65.5	36.113
66	37.3166
66.5	38.3771
67	39.5026
67.5	40.8946
68	42.609
68.5	44.6425
69	47.0007
69.5	49.5738
70	52.2117
70.5	54.6483
71	56.6519
71.5	58.1162
72	58.9774
72.5	59.435
73	59.7766
73.5	60.3395
74	61.2216
74.5	62.268
75	63.1832
75.5	63.6401
76	63.4922
76.5	62.7048
77	61.6605
77.5	60.7851
78	60.3903
78.5	60.5639
79	61.1403
79.5	61.8681
80	62.3732
80.5	62.4864
81	62.1364
81.5	61.3891
82	60.4052
82.5	59.3182
83	58.3013
83.5	57.489
84	56.977
84.5	56.7914
85	56.8273
85.5	56.9416
86	56.8952
86.5	56.4939
87	55.6709
87.5	54.5066
88	53.2267
88.5	52.0512
89	51.2135
89.5	50.8067
90	50.8085
90.5	51.0639
91	51.3359
91.5	51.3988
92	50.9809
92.5	49.9698
93	48.2902
93.5	46.1274
94	43.8811
94.5	41.9173
95	40.6588
95.5	40.1841
96	40.4847
96.5	41.2347
97	41.9529
97.5	42.3936
98	42.4502
98.5	42.3411
99	42.3512
99.5	42.9373
100	44.0868
100.5	45.6381
101	47.2137
101.5	48.3649
102	48.7599
102.5	48.0488
103	46.5797
103.5	44.8376
104	43.4422
104.5	42.8358
105	43.2853
105.5	45.0477
106	47.6698
106.5	50.6704
107	53.5262
107.5	55.9465
108	57.8456
108.5	59.2379
109	60.4117
109.5	61.5667
110	62.7775
110.5	63.9403
111	64.9114
111.5	65.5095
112	65.7713
112.5	65.8436
113	66.0693
113.5	66.7145
114	67.8749
114.5	69.5512
115	71.4475
115.5	73.2685
116	74.6517
116.5	75.5498
117	76.1253
117.5	76.6164
118	77.2917
118.5	78.2837
119	79.6388
119.5	81.1976
120	82.8171
120.5	84.5474
121	86.6059
121.5	89.2664
122	92.9237
122.5	97.6689
123	103.325
123.5	109.626
124	116.375
124.5	123.691
125	132.164
125.5	142.409
126	154.767
126.5	169.079
127	183.658
127.5	196.527
128	205.154
128.5	207.719
129	203.942
129.5	193.43
130	178.214
130.5	161.133
131	144.064
131.5	128.538
132	115.127
132.5	104.194
133	95.6897
133.5	89.096
134	84.2582
134.5	81.007
135	78.9267
135.5	77.748
136	77.0543
136.5	76.4261
137	75.6605
137.5	74.7513
138	73.8035
138.5	72.9
139	72.0675
139.5	71.2506
140	70.3751
140.5	69.4466
141	68.5803
141.5	67.9362
142	67.685
142.5	67.8201
143	68.276
143.5	68.8351
144	69.2055
144.5	69.1972
145	68.6779
145.5	67.7555
146	66.5523
146.5	65.2807
147	64.1909
147.5	63.4317
148	63.0576
148.5	62.9146
149	62.854
149.5	62.7013
150	62.3983
150.5	62.0251
151	61.8604
151.5	62.0974
152	62.8189
152.5	63.9653
153	65.16
153.5	66.0419
154	66.0918
154.5	65.3917
155	64.1855
155.5	62.877
156	61.9036
156.5	61.5014
157	61.8195
157.5	62.5223
158	63.2538
158.5	63.6364
159	63.5775
159.5	63.1054
160	62.3312
160.5	61.5189
161	60.8614
161.5	60.5326
162	60.4894
162.5	60.6761
163	61.0364
163.5	61.4706
164	61.9314
164.5	62.4028
165	62.8815
165.5	63.3484
166	63.7322
166.5	63.9484
167	63.9234
167.5	63.5773
168	62.9967
168.5	62.359
169	61.9364
169.5	61.9099
170	62.344
170.5	63.2673
171	64.5043
171.5	65.8701
172	67.1672
172.5	68.2534
173	69.0575
173.5	69.4753
174	69.5176
174.5	69.2845
175	68.9899
175.5	69.0741
176	69.9521
176.5	71.9629
177	74.9733
177.5	78.4926
178	81.8139
178.5	84.138
179	84.9923
179.5	84.2152
180	82.5245
180.5	80.7524
181	79.614
181.5	79.4759
182	80.152
182.5	81.1995
183	81.8656
183.5	81.7591
184	80.8186
184.5	79.3915
185	78.0069
185.5	77.1507
186	77.1459
186.5	77.953
187	79.3653
187.5	81.0413
188	82.7183
188.5	84.2532
189	85.5755
189.5	86.7073
190	87.6639
190.5	88.5093
191	89.4012
191.5	90.5437
192	92.2184
192.5	94.5472
193	97.6214
193.5	101.345
194	105.267
194.5	108.861
195	111.587
195.5	113.34
196	114.155
196.5	114.349
197	114.558
197.5	115.364
198	117.443
198.5	120.658
199	124.834
199.5	129.612
200	134.429
200.5	138.905
201	142.683
201.5	145.753
202	148.176
202.5	150.027
203	151.498
203.5	152.657
204	153.525
204.5	154.204
205	154.735
205.5	155.096
206	155.275
206.5	155.189
207	154.679
207.5	153.786
208	152.57
208.5	151.161
209	149.781
209.5	148.513
210	147.239
210.5	145.687
211	143.591
211.5	140.621
212	136.93
212.5	132.784
213	128.692
213.5	125.145
214	122.302
214.5	120.16
215	118.306
215.5	116.387
216	114.078
216.5	111.378
217	108.498
217.5	105.808
218	103.51
218.5	101.595
219	99.8935
219.5	98.0653
220	95.8588
220.5	93.0782
221	89.8976
221.5	86.6614
222	83.7374
222.5	81.3618
223	79.6074
223.5	78.532
224	77.981
224.5	77.8188
225	77.9663
225.5	78.285
226	78.6474
226.5	78.885
227	78.8333
227.5	78.4137
228	77.5966
228.5	76.5643
229	75.5908
229.5	74.9105
230	74.5783
230.5	74.4678
231	74.3721
231.5	74.0565
232	73.432
232.5	72.5348
233	71.6222
233.5	70.9042
234	70.4924
234.5	70.3251
235	70.2227
235.5	70.0038
236	69.5443
236.5	68.859
237	68.0131
237.5	67.0537
238	65.964
238.5	64.6625
239	63.1038
239.5	61.3884
240	59.7254
240.5	58.4953
241	57.9154
241.5	58.0767
242	58.8772
242.5	59.9911
243	61.1711
243.5	62.2146
244	63.0838
244.5	63.8106
245	64.4424
245.5	64.9581
246	65.2465
246.5	65.1563
247	64.6925
247.5	63.9041
248	62.9445
248.5	62.0387
249	61.3148
249.5	60.8007
250	60.4088
250.5	60.0933
251	59.8717
251.5	59.8018
252	59.9726
252.5	60.4606
253	61.1068
253.5	61.6889
254	61.911
254.5	61.6696
255	60.9464
255.5	59.8119
256	58.547
256.5	57.3553
257	56.4815
257.5	55.9668
258	55.8691
258.5	56.3309
259	57.2737
259.5	58.6391
260	60.2906
260.5	61.8981
261	63.1833
261.5	63.9427
262	64.3648
262.5	64.675
263	65.1368
263.5	65.7983
264	66.4913
264.5	66.7558
265	66.1841
265.5	64.6536
266	62.3387
266.5	59.8579
267	57.6859
267.5	56.2211
268	55.3564
268.5	54.8114
269	54.2448
269.5	53.5286
270	52.8911
270.5	52.8021
271	53.5332
271.5	55.0801
272	57.2098
272.5	59.3094
273	60.8629
273.5	61.3267
274	60.8095
274.5	59.6021
275	57.964
275.5	56.2212
276	54.5712
276.5	53.1739
277	52.1053
277.5	51.3898
278	51.0312
278.5	50.8815
279	50.8228
279.5	50.843
280	51.0504
280.5	51.6096
281	52.7192
281.5	54.3171
282	56.0206
282.5	57.1926
283	57.3163
283.5	56.343
284	54.4894
284.5	52.4559
285	50.9521
285.5	50.5371
286	51.2655
286.5	52.5743
287	53.7378
287.5	54.184
288	53.8524
288.5	52.9564
289	52.034
289.5	51.5684
290	51.8472
290.5	52.7739
291	53.8063
291.5	54.3748
292	54.0471
292.5	52.8722
293	51.0885
293.5	49.2557
294	47.9621
294.5	47.6841
295	48.6955
295.5	50.5569
296	52.7822
296.5	54.791
297	56.2124
297.5	56.8551
298	56.7104
298.5	56.0953
299	55.2498
299.5	54.4324
300	53.7922
300.5	53.3852
301	53.2289
301.5	53.2254
302	53.2831
302.5	53.282
303	53.1639
303.5	52.9524
304	52.8184
304.5	52.9472
305	53.4353
305.5	54.2551
306	55.1181
306.5	55.7488
307	55.8404
307.5	55.454
308	54.7663
308.5	54.124
309	53.732
309.5	53.5402
310	53.276
310.5	52.6549
311	51.5558
311.5	50.0531
312	48.6024
312.5	47.6166
313	47.6115
313.5	48.333
314	49.4689
314.5	50.5996
315	51.4158
315.5	51.8411
316	51.9212
316.5	51.8763
317	51.8112
317.5	51.6936
318	51.4264
318.5	50.9725
319	50.4006
319.5	49.9258
320	49.7424
320.5	50.0402
321	50.7287
321.5	51.6118
322	52.3763
322.5	52.7795
323	52.7662
323.5	52.3578
324	51.7709
324.5	51.2109
325	50.8905
325.5	50.9083
326	51.2551
326.5	51.8612
327	52.4886
327.5	52.931
328	53.0139
328.5	52.7532
329	52.3044
329.5	51.911
330	51.8291
330.5	52.1678
331	52.9303
331.5	53.8639
332	54.6633
332.5	55.0859
333	55.0508
333.5	54.6271
334	53.8776
334.5	52.9143
335	51.8311
335.5	50.7041
336	49.6906
336.5	48.9765
337	48.7656
337.5	49.1104
338	49.8288
338.5	50.656
339	51.25
339.5	51.4454
340	51.2423
340.5	50.8911
341	50.7042
341.5	50.8042
342	51.0287
342.5	51.0505
343	50.5618
343.5	49.4622
344	48.0571
344.5	46.8096
345	46.3042
345.5	46.7835
346	48.1788
346.5	50.0606
347	51.8917
347.5	53.3219
348	54.1653
348.5	54.5708
349	54.7044
349.5	54.775
350	54.9598
350.5	55.4286
351	56.4238
351.5	58.0835
352	60.5929
352.5	64.0912
353	68.2611
353.5	72.747
354	76.9353
354.5	80.2634
355	82.2103
355.5	82.1162
356	80.3573
356.5	77.1634
357	72.9042
357.5	68.3582
358	64.0437
358.5	60.4904
359	57.7376
359.5	55.7079
360	54.2507
360.5	53.0409
361	51.9949
361.5	51.228
362	50.8024
362.5	50.7421
363	50.9664
363.5	51.1735
364	51.118
364.5	50.5461
365	49.5546
365.5	48.3582
366	47.3022
366.5	46.6212
367	46.4166
367.5	46.748
368	47.4116
368.5	48.2303
369	48.9996
369.5	49.562
370	49.8466
370.5	49.858
371	49.8038
371.5	49.8681
372	50.2344
372.5	50.8821
373	51.6728
373.5	52.3615
374	52.7354
374.5	52.728
375	52.387
375.5	51.9738
376	51.6914
376.5	51.6344
377	51.722
377.5	51.8421
378	51.937
378.5	52.0694
379	52.3744
379.5	53.0241
380	54.0085
380.5	55.1245
381	56.0054
381.5	56.3425
382	56.054
382.5	55.1766
383	54.0197
383.5	52.9115
384	52.1232
384.5	51.7475
385	51.6926
385.5	51.8293
386	51.9963
386.5	52.139
387	52.2961
387.5	52.5505
388	52.9564
388.5	53.5595
389	54.3737
389.5	55.4097
390	56.7823
390.5	58.6661
391	61.168
391.5	64.3207
392	67.881
392.5	71.3815
393	74.2705
393.5	76.0144
394	76.5289
394.5	75.8493
395	74.3478
395.5	72.5988
396	70.9634
396.5	69.5555
397	68.1448
397.5	66.448
398	64.2596
398.5	61.7204
399	59.1254
399.5	56.9387
400	55.4178
400.5	54.6482
401	54.4494
401.5	54.3442
402	53.9815
402.5	53.2141
403	52.271
403.5	51.4763
404	51.2457
404.5	51.6714
405	52.6896
405.5	54.009
406	55.1625
406.5	55.8092
407	55.6591
407.5	54.9539
408	53.9858
408.5	53.1408
409	52.6786
409.5	52.6944
410	53.1552
410.5	53.7429
411	54.1968
411.5	54.2323
412	53.8756
412.5	53.2767
413	52.7931
413.5	52.6911
414	53.0459
414.5	53.7409
415	54.3566
415.5	54.5556
416	54.0222
416.5	52.9777
417	51.78
417.5	50.9984
418	50.9541
418.5	51.6133
419	52.6115
419.5	53.3975
420	53.6752
420.5	53.3568
421	52.8241
421.5	52.459
422	52.6067
422.5	53.1768
423	53.8524
423.5	54.1135
424	53.6413
424.5	52.523
425	51.0796
425.5	49.8729
426	49.3048
426.5	49.7093
427	50.9181
427.5	52.5782
428	54.2161
428.5	55.3609
429	55.7867
429.5	55.4053
430	54.6449
430.5	53.9716
431	53.7996
431.5	54.1993
432	54.9187
432.5	55.5169
433	55.5741
433.5	55.0064
434	54.0256
434.5	53.2158
435	53.0838
435.5	53.9464
436	55.4285
436.5	56.8875
437	57.6487
437.5	57.3266
438	56.0373
438.5	54.0777
439	52.022
439.5	50.3553
440	49.4669
440.5	49.5327
441	50.4689
441.5	52.1768
442	54.3248
442.5	56.5159
443	58.4022
443.5	59.7374
444	60.5589
444.5	60.9891
445	61.2664
445.5	61.5863
446	62.0217
446.5	62.5704
447	63.23
447.5	64.111
448	65.3841
448.5	67.0639
449	69.0712
449.5	71.1659
450	73.1104
450.5	74.8297
451	76.4706
451.5	78.3148
452	80.5792
452.5	83.296
453	86.1585
453.5	88.8628
454	91.2879
454.5	93.7202
455	96.6239
455.5	100.638
456	105.913
456.5	112.529
457	120.554
457.5	129.738
458	140.249
458.5	152.72
459	167.358
459.5	184.682
460	205.35
460.5	228.901
461	255.272
461.5	284.518
462	315.448
462.5	347.016
463	377.35
463.5	404.686
464	427.292
464.5	442.107
465	449.076
465.5	447.297
466	434.955
466.5	414.671
467	387.878
467.5	356.168
468	323.091
468.5	291.008
469	262.413
469.5	237.742
470	216.799
470.5	199.27
471	183.724
471.5	169.516
472	156.707
472.5	145.273
473	135.331
473.5	127.129
474	120.284
474.5	114.499
475	109.64
475.5	105.395
476	101.568
476.5	98.0033
477	94.5005
477.5	91.0011
478	87.6578
478.5	84.8002
479	82.7145
479.5	81.6418
480	81.3265
480.5	81.3318
481	81.1314
481.5	80.3239
482	78.817
482.5	76.694
483	74.3733
483.5	72.2852
484	70.883
484.5	70.3796
485	70.7259
485.5	71.682
486	72.6873
486.5	73.2253
487	72.8109
487.5	71.3426
488	69.1231
488.5	66.6052
489	64.4042
489.5	62.8976
490	62.2891
490.5	62.4053
491	62.8629
491.5	63.349
492	63.6507
492.5	63.7805
493	63.8069
493.5	63.7872
494	63.6921
494.5	63.3923
495	62.738
495.5	61.7204
496	60.4212
496.5	59.1129
497	58.1154
497.5	57.7211
498	58.065
498.5	58.9319
499	60.0135
499.5	60.933
500	61.5187
500.5	61.763
501	61.8089
501.5	61.8356
502	61.8754
502.5	61.7911
503	61.3997
503.5	60.5574
504	59.2786
504.5	57.8716
505	56.6627
505.5	55.9926
506	55.8288
506.5	55.998
507	56.2186
507.5	56.2536
508	56.002
508.5	55.4375
509	54.6721
509.5	53.7673
510	52.7913
510.5	51.868
511	51.156
511.5	50.9224
512	51.2137
512.5	51.9795
513	52.9331
513.5	53.6197
514	53.761
514.5	53.2043
515	52.3276
515.5	51.5242
516	51.2986
516.5	51.7115
517	52.6081
517.5	53.5879
518	54.2029
518.5	54.2588
519	53.7688
519.5	53.1698
520	52.8263
520.5	52.9813
521	53.4009
521.5	53.7485
522	53.5962
522.5	52.8825
523	51.7918
523.5	50.7538
524	50.2181
524.5	50.3974
525	51.3317
525.5	52.5878
526	53.7435
526.5	54.3673
527	54.3738
527.5	53.9029
528	53.2632
528.5	52.8281
529	52.8043
529.5	53.3081
530	54.1495
530.5	55.0515
531	55.6587
531.5	55.7328
532	55.2357
532.5	54.2537
533	53.1415
533.5	52.2349
534	51.8328
534.5	51.9623
535	52.4451
535.5	53
536	53.3353
536.5	53.3198
537	52.8981
537.5	52.1847
538	51.3452
538.5	50.5293
539	49.8572
539.5	49.3635
540	49.0474
540.5	48.8465
541	48.7056
541.5	48.6432
542	48.7444
542.5	49.0885
543	49.7163
543.5	50.4539
544	51.0212
544.5	51.1387
545	50.7323
545.5	50.0705
546	49.5804
546.5	49.7315
547	50.6138
547.5	52.0394
548	53.4288
548.5	54.204
549	53.9709
549.5	52.7379
550	51.0351
550.5	49.4183
551	48.4623
551.5	48.2813
552	48.8197
552.5	49.8207
553	50.8793
553.5	51.6597
554	51.8238
554.5	51.328
555	50.243
555.5	48.8979
556	47.7989
556.5	47.3509
557	47.7951
557.5	48.7949
558	49.9131
558.5	50.599
559	50.6847
559.5	50.3204
560	49.9385
560.5	49.8879
561	50.2298
561.5	50.7421
562	51.0425
562.5	50.9213
563	50.3729
563.5	49.7537
564	49.3675
564.5	49.4666
565	49.9071
565.5	50.483
566	50.9579
566.5	51.2845
567	51.5528
567.5	51.918
568	52.3733
568.5	52.7533
569	52.7256
569.5	52.1803
570	51.1605
570.5	49.8796
571	48.7064
571.5	47.8434
572	47.3931
572.5	47.1907
573	47.1303
573.5	47.2612
574	47.7359
574.5	48.7354
575	50.4044
575.5	52.4173
576	54.3237
576.5	55.4805
577	55.7076
577.5	55.1908
578	54.357
578.5	53.7637
579	53.6465
579.5	53.9594
580	54.2857
580.5	54.2772
581	53.7219
581.5	52.8299
582	51.9413
582.5	51.4102
583	51.3264
583.5	51.5571
584	51.9068
584.5	52.2249
585	52.5339
585.5	52.9632
586	53.5453
586.5	54.1137
587	54.3097
587.5	53.8167
588	52.5765
588.5	50.7041
589	48.6555
589.5	46.8781
590	45.7389
590.5	45.308
591	45.3973
591.5	45.8072
592	46.317
592.5	46.8405
593	47.4305
593.5	48.2059
594	49.228
594.5	50.4958
595	51.8522
595.5	53.0682
596	53.925
596.5	54.317
597	54.3444
597.5	54.1507
598	53.9383
598.5	53.8284
599	53.8367
599.5	53.882
600	53.8634
600.5	53.7192
601	53.4441
601.5	53.0909
602	52.6969
602.5	52.3062
603	51.9791
603.5	51.8159
604	51.9399
604.5	52.3256
605	52.8126
605.5	53.0085
606	52.5987
606.5	51.4179
607	49.6262
607.5	47.8157
608	46.551
608.5	46.3146
609	46.9079
609.5	47.9296
610	48.7485
610.5	48.9874
611	48.6184
611.5	47.9563
612	47.5068
612.5	47.5462
613	48.1051
613.5	48.7888
614	49.2545
614.5	49.2328
615	48.8871
615.5	48.4838
616	48.3323
616.5	48.4511
617	48.6922
617.5	48.7629
618	48.5154
618.5	47.9799
619	47.3733
619.5	46.988
620	46.957
620.5	47.2412
621	47.4851
621.5	47.3689
622	46.5775
622.5	45.3043
623	43.912
623.5	43.0394
624	43.0892
624.5	44.1755
625	46.1614
625.5	48.3405
626	50.1316
626.5	51.054
627	51.2717
627.5	51.1491
628	51.1414
628.5	51.4701
629	52.0133
629.5	52.3578
630	52.1152
630.5	51.1831
631	49.7373
631.5	48.3443
632	47.4478
632.5	47.3403
633	47.7815
633.5	48.3759
634	48.7486
634.5	48.8105
635	48.741
635.5	48.8232
636	49.1781
636.5	49.651
637	49.877
637.5	49.5489
638	48.6996
638.5	47.5901
639	46.6695
639.5	46.1999
640	46.25
640.5	46.5796
641	46.9154
641.5	47.1114
642	47.2214
642.5	47.4
643	47.7767
643.5	48.3256
644	48.888
644.5	49.2766
645	49.388
645.5	49.2871
646	49.1172
646.5	49.0872
647	49.3302
647.5	49.9237
648	50.7905
648.5	51.6948
649	52.3116
649.5	52.2729
650	51.5286
650.5	50.2181
651	48.8473
651.5	47.9903
652	48.0757
652.5	49.1402
653	50.6433
653.5	51.9674
654	52.5094
654.5	52.2042
655	51.2327
655.5	50.0107
656	48.903
656.5	48.0193
657	47.3076
657.5	46.6866
658	46.2516
658.5	46.2834
659	46.9047
659.5	48.0785
660	49.4444
660.5	50.4642
661	50.7744
661.5	50.279
662	49.4651
662.5	48.8246
663	48.78
663.5	49.2001
664	49.7501
664.5	49.9166
665	49.492
665.5	48.5214
666	47.2877
666.5	46.2014
667	45.464
667.5	45.1333
668	44.9816
668.5	44.8607
669	44.7342
669.5	44.7322
670	45.0373
670.5	45.8774
671	47.1197
671.5	48.5471
672	49.7656
672.5	50.4841
673	50.5775
673.5	50.0262
674	49.1826
674.5	48.318
675	47.6776
675.5	47.278
676	47.0215
676.5	46.7385
677	46.3223
677.5	45.7912
678	45.2805
678.5	44.9688
679	44.968
679.5	45.347
680	45.9602
680.5	46.6476
681	47.2551
681.5	47.7411
682	48.1791
682.5	48.7437
683	49.578
683.5	50.7011
684	51.9845
684.5	53.0919
685	53.6998
685.5	53.4626
686	52.4352
686.5	50.9196
687	49.3863
687.5	48.3642
688	48.1274
688.5	48.7938
689	50.0265
689.5	51.3757
690	52.4141
690.5	52.9326
691	53.0146
691.5	52.8783
692	52.8387
692.5	53.0417
693	53.468
693.5	53.9057
694	54.1443
694.5	54.054
695	53.7205
695.5	53.3686
696	53.224
696.5	53.3708
697	53.6684
697.5	53.8687
698	53.7373
698.5	53.2844
699	52.7118
699.5	52.3895
700	52.5257
700.5	53.094
701	53.6847
701.5	53.7731
702	52.9291
702.5	51.1201
703	48.8982
703.5	46.9572
704	46.0192
704.5	46.2101
705	47.3471
705.5	48.8316
706	49.9991
706.5	50.4453
707	50.0648
707.5	49.208
708	48.2249
708.5	47.518
709	47.3177
709.5	47.7826
710	49.0017
710.5	50.7274
711	52.6408
711.5	54.1638
712	54.8318
712.5	54.3434
713	52.6843
713.5	50.5414
714	48.5814
714.5	47.5502
715	47.5429
715.5	48.3645
716	49.5068
716.5	50.3672
717	50.6616
717.5	50.3242
718	49.7023
718.5	49.0276
719	48.4019
719.5	47.7143
720	46.8115
720.5	45.5997
721	44.3293
721.5	43.3464
722	43.1788
722.5	43.8461
723	45.1586
723.5	46.6257
724	47.646
724.5	47.916
725	47.353
725.5	46.4804
726	45.7663
726.5	45.672
727	46.1607
727.5	46.9939
728	47.7865
728.5	48.2337
729	48.2377
729.5	47.7939
730	47.0847
730.5	46.2254
731	45.3287
731.5	44.5706
732	44.1535
732.5	44.3795
733	45.2647
733.5	46.6378
734	48.1466
734.5	49.3342
735	49.9568
735.5	49.9335
736	49.5654
736.5	49.1616
737	48.9324
737.5	48.8467
738	48.7332
738.5	48.3914
739	47.7949
739.5	47.0891
740	46.5204
740.5	46.2878
741	46.4184
741.5	46.8474
742	47.387
742.5	47.9079
743	48.3797
743.5	48.8623
744	49.4132
744.5	50.0188
745	50.5332
745.5	50.7599
746	50.4588
746.5	49.5524
747	48.1981
747.5	46.6499
748	45.2854
748.5	44.3522
749	43.9791
749.5	44.0492
750	44.2959
750.5	44.5225
751	44.6578
751.5	44.8046
752	45.1412
752.5	45.7948
753	46.6849
753.5	47.6254
754	48.3543
754.5	48.7579
755	48.8549
755.5	48.811
756	48.8044
756.5	48.8846
757	48.9527
757.5	48.857
758	48.5045
758.5	47.9572
759	47.4492
759.5	47.2046
760	47.3449
760.5	47.6796
761	47.9028
761.5	47.6186
762	46.7539
762.5	45.4557
763	44.1893
763.5	43.4646
764	43.6043
764.5	44.6653
765	46.1018
765.5	47.3709
766	47.8895
766.5	47.638
767	46.8548
767.5	46.0685
768	45.7645
768.5	46.1362
769	47.1158
769.5	48.2104
770	49.0466
770.5	49.3001
771	49.0887
771.5	48.5961
772	48.048
772.5	47.5807
773	47.1811
773.5	46.7527
774	46.2286
774.5	45.6204
775	45.0239
775.5	44.555
776	44.2774
776.5	44.2173
777	44.2612
777.5	44.3064
778	44.2405
778.5	44.0411
779	43.7466
779.5	43.4609
780	43.3059
780.5	43.3499
781	43.6173
781.5	43.9873
782	44.3425
782.5	44.582
783	44.7194
783.5	44.8244
784	44.9748
784.5	45.1638
785	45.301
785.5	45.2226
786	44.8638
786.5	44.2785
787	43.6189
787.5	43.0963
788	42.8239
788.5	42.8428
789	43.0405
789.5	43.3051
790	43.5831
790.5	43.8929
791	44.2968
791.5	44.8889
792	45.7082
792.5	46.7374
793	47.932
793.5	49.1479
794	50.2117
794.5	50.9033
795	51.1031
795.5	50.8538
796	50.2581
796.5	49.5437
797	48.8969
797.5	48.4429
798	48.2372
798.5	48.2874
799	48.6289
799.5	49.1841
800	49.7174
800.5	49.8413
801	49.1658
801.5	47.6764
802	45.6562
802.5	43.8492
803	42.9313
803.5	43.3129
804	44.7496
804.5	46.4062
805	47.4768
805.5	47.4541
806	46.6037
806.5	45.447
807	44.6212
807.5	44.3331
808	44.4373
808.5	44.5394
809	44.39
809.5	44.0453
810	43.8567
810.5	44.1415
811	45.0372
811.5	46.4058
812	47.839
812.5	49.0108
813	49.6617
813.5	49.8236
814	49.5481
814.5	48.9215
815	48.1221
815.5	47.2583
816	46.4187
816.5	45.6132
817	44.798
817.5	43.9347
818	43.112
818.5	42.5434
819	42.608
819.5	43.3691
820	44.719
820.5	46.2581
821	47.4333
821.5	47.9183
822	47.5499
822.5	46.7226
823	45.7438
823.5	44.8626
824	44.1131
824.5	43.4648
825	42.9847
825.5	42.804
826	43.0706
826.5	43.8679
827	44.8587
827.5	45.6817
828	45.9153
828.5	45.5789
829	44.8722
829.5	44.1119
830	43.5303
830.5	43.1361
831	42.8203
831.5	42.4787
832	42.1515
832.5	42.0137
833	42.1643
833.5	42.5753
834	43.1142
834.5	43.6008
835	43.9838
835.5	44.309
836	44.6438
836.5	44.943
837	44.9967
837.5	44.6183
838	43.7576
838.5	42.4731
839	41.0274
839.5	39.5982
840	38.2477
840.5	36.9434
841	35.6968
841.5	34.6638
842	34.0171
842.5	33.7756
843	33.754
843.5	33.5278
844	32.8234
844.5	31.6734
845	30.6614
845.5	30.4904
846	31.8417
846.5	34.6565
847	38.2307
847.5	41.6308
848	43.9873
848.5	45.0651
849	44.9557
849.5	44.2221
850	43.4089
850.5	42.8041
851	42.442
851.5	42.1857
852	41.9035
852.5	41.5173
853	41.0505
853.5	40.5979
854	40.3486
854.5	40.4875
855	41.2172
855.5	42.5722
856	44.2711
856.5	45.9123
857	46.9938
857.5	47.3226
858	46.9228
858.5	46.1554
859	45.512
859.5	45.3079
860	45.6044
860.5	46.1102
861	46.4984
861.5	46.444
862	45.8918
862.5	44.8591
863	43.4457
863.5	41.8688
864	40.3321
864.5	39.1768
865	38.6813
865.5	39.1102
866	40.5864
866.5	42.6393
867	44.7053
867.5	45.9822
868	46.1136
868.5	45.0433
869	43.0938
869.5	41.068
870	39.5296
870.5	38.9166
871	39.0142
871.5	39.5317
872	40.1195
872.5	40.5723
873	40.8985
873.5	41.2077
874	41.5756
874.5	41.9643
875	42.2363
875.5	42.3302
876	42.2908
876.5	42.3071
877	42.5744
877.5	43.1728
878	44.0538
878.5	44.9335
879	45.582
879.5	45.7735
880	45.575
880.5	45.0965
881	44.4607
881.5	43.8106
882	43.2347
882.5	42.8953
883	42.9355
883.5	43.4763
884	44.5921
884.5	45.9641
885	47.1811
885.5	47.6841
886	47.2931
886.5	46.1353
887	44.5572
887.5	43.0933
888	42.0146
888.5	41.3871
889	40.9812
889.5	40.6311
890	40.3563
890.5	40.3181
891	40.6312
891.5	41.2606
892	41.8692
892.5	42.1229
893	41.7885
893.5	41.0499
894	40.2784
894.5	39.8611
895	39.9231
895.5	40.3138
896	40.8075
896.5	41.2201
897	41.5406
897.5	41.8183
898	42.0382
898.5	42.0766
899	41.7485
899.5	41.0633
900	40.2851
900.5	39.8164
901	39.9542
901.5	40.6002
902	41.3831
902.5	41.7553
903	41.4808
903.5	40.6523
904	39.8021
904.5	39.4802
905	40.04
905.5	41.3539
906	42.8526
906.5	43.9263
907	44.1214
907.5	43.5432
908	42.5487
908.5	41.7508
909	41.5549
909.5	42.0794
910	43.0433
910.5	43.9196
911	44.2995
911.5	44.0081
912	43.3184
912.5	42.5769
913	42.1567
913.5	42.1548
914	42.5171
914.5	43.0611
915	43.5695
915.5	43.9008
916	43.9149
916.5	43.5864
917	42.9079
917.5	41.9962
918	41.1535
918.5	40.673
919	40.8186
919.5	41.4489
920	42.3271
920.5	43.1172
921	43.6494
921.5	43.9419
922	44.1157
922.5	44.2627
923	44.2972
923.5	43.9528
924	43.1324
924.5	41.8736
925	40.4105
925.5	39.1245
926	38.2501
926.5	37.9913
927	38.2225
927.5	38.8723
928	39.9038
928.5	41.0808
929	42.1426
929.5	42.623
930	42.3328
930.5	41.2895
931	39.7913
931.5	38.4918
932	37.8477
932.5	38.2145
933	39.29
933.5	40.7127
934	42.1084
934.5	43.2766
935	44.2005
935.5	44.8678
936	45.273
936.5	45.3368
937	44.9373
937.5	44.2061
938	43.3609
938.5	42.6842
939	42.3194
939.5	42.2286
940	42.2763
940.5	42.2976
941	42.2629
941.5	42.2555
942	42.3673
942.5	42.583
943	42.7661
943.5	42.7479
944	42.4839
944.5	42.067
945	41.7281
945.5	41.6105
946	41.7156
946.5	41.8356
947	41.7807
947.5	41.5006
948	41.1998
948.5	41.1418
949	41.5159
949.5	42.1837
950	42.7849
950.5	42.8977
951	42.3395
951.5	41.312
952	40.2023
952.5	39.4742
953	39.3054
953.5	39.6492
954	40.1631
954.5	40.4858
955	40.3688
955.5	39.7827
956	38.9183
956.5	37.9979
957	37.2943
957.5	36.9945
958	37.2799
958.5	38.2129
959	39.6028
959.5	41.178
960	42.5022
960.5	43.2601
961	43.2782
961.5	42.6757
962	41.8863
962.5	41.3094
963	41.2611
963.5	41.6884
964	42.39
964.5	43.0304
965	43.3555
965.5	43.2193
966	42.5809
966.5	41.6293
967	40.5701
967.5	39.7255
968	39.3197
968.5	39.4332
969	39.8485
969.5	39.9951
970	39.2976
970.5	37.2508
971	34.2287
971.5	30.845
972	28.0541
972.5	26.3396
973	25.7
973.5	25.6635
974	25.4734
974.5	24.8455
975	24.0324
975.5	23.7647
976	24.6584
976.5	27.1945
977	30.719
977.5	34.5105
978	37.5787
978.5	39.4764
979	40.1546
979.5	39.7531
980	38.9455
980.5	38.1547
981	37.7695
981.5	37.8303
982	38.2379
982.5	38.7969
983	39.2903
983.5	39.6657
984	39.9855
984.5	40.3381
985	40.6681
985.5	40.6719
986	40.0658
986.5	38.7405
987	36.8446
987.5	35.0048
988	33.757
988.5	33.5376
989	34.0824
989.5	34.9266
990	35.5708
990.5	35.8393
991	35.8983
991.5	36.0879
992	36.6115
992.5	37.3688
993	38.0557
993.5	38.3864
994	38.3127
994.5	37.9687
995	37.6579
995.5	37.5632
996	37.7303
996.5	38.0058
997	38.2278
997.5	38.3011
998	38.2729
998.5	38.2486
999	38.2983
999.5	38.3598
1000	38.2699
1000.5	37.8166
1001	36.9786
1001.5	36.0051
1002	35.3717
1002.5	35.5684
1003	36.6898
1003.5	38.4865
1004	40.1742
1004.5	41.0166
1005	40.5892
1005.5	39.2051
1006	37.6666
1006.5	36.726
1007	36.7249
1007.5	37.3213
1008	37.9573
1008.5	38.0972
1009	37.6933
1009.5	36.9822
1010	36.3456
1010.5	35.9416
1011	35.7073
1011.5	35.5015
1012	35.3459
1012.5	35.4793
1013	36.1898
1013.5	37.3964
1014	38.7566
1014.5	39.6731
1015	39.8361
1015.5	39.2476
1016	38.2807
1016.5	37.4193
1017	36.8516
1017.5	36.536
1018	36.3284
1018.5	36.2778
1019	36.6194
1019.5	37.4065
1020	38.4488
1020.5	39.1706
1021	39.1055
1021.5	38.1452
1022	36.7441
1022.5	35.7864
1023	35.8683
1023.5	37.1636
1024	38.8945
1024.5	40.3252
1025	40.819
1025.5	40.5767
1026	39.9935
1026.5	39.4935
1027	39.1326
1027.5	38.7174
1028	38.0821
1028.5	37.4686
1029	37.2875
1029.5	38.0396
1030	39.4445
1030.5	40.9479
1031	41.6327
1031.5	41.189
1032	39.7814
1032.5	38.0129
1033	36.6415
1033.5	35.941
1034	35.814
1034.5	35.7248
1035	35.3728
1035.5	34.7346
1036	34.1731
1036.5	34.0102
1037	34.4762
1037.5	35.3313
1038	36.2634
1038.5	36.9835
1039	37.4334
1039.5	37.6965
1040	37.8931
1040.5	38.0969
1041	38.2634
1041.5	38.2318
1042	37.8741
1042.5	37.1522
1043	36.1305
1043.5	35.1148
1044	34.4362
1044.5	34.4778
1045	35.2688
1045.5	36.5714
1046	37.9613
1046.5	38.9452
1047	39.2891
1047.5	38.9854
1048	38.3856
1048.5	37.7999
1049	37.3854
1049.5	37.0776
1050	36.7421
1050.5	36.3281
1051	35.969
1051.5	35.8657
1052	36.1914
1052.5	36.8441
1053	37.5147
1053.5	37.829
1054	37.5847
1054.5	36.9085
1055	36.0872
1055.5	35.4853
1056	35.2382
1056.5	35.2742
1057	35.3089
1057.5	35.1455
1058	34.7712
1058.5	34.3986
1059	34.276
1059.5	34.5757
1060	35.2701
1060.5	36.1508
1061	37.0402
1061.5	37.8173
1062	38.4701
1062.5	38.9869
1063	39.3212
1063.5	39.4491
1064	39.3897
1064.5	39.3237
1065	39.5124
1065.5	40.1736
1066	41.2539
1066.5	42.3195
1067	42.8384
1067.5	42.2964
1068	40.7937
1068.5	38.6882
1069	36.7025
1069.5	35.4519
1070	35.2474
1070.5	36.028
1071	37.1741
1071.5	38.1621
1072	38.5399
1072.5	38.3535
1073	37.8307
1073.5	37.3564
1074	37.1874
1074.5	37.3327
1075	37.56
1075.5	37.5582
1076	37.168
1076.5	36.4222
1077	35.6832
1077.5	35.3005
1078	35.6493
1078.5	36.6153
1079	37.9566
1079.5	39.2316
1080	40.0693
1080.5	40.3235
1081	40.0009
1081.5	39.4765
1082	38.9912
1082.5	38.6725
1083	38.3588
1083.5	37.8423
1084	36.9502
1084.5	35.8924
1085	35.0154
1085.5	34.8461
1086	35.4755
1086.5	36.737
1087	38.2249
1087.5	39.4574
1088	40.2562
1088.5	40.6429
1089	40.8584
1089.5	40.9503
1090	40.6667
1090.5	39.7431
1091	38.1315
1091.5	36.1491
1092	34.4994
1092.5	33.7033
1093	34.1029
1093.5	35.3018
1094	36.7848
1094.5	38.0854
1095	39.0123
1095.5	39.5838
1096	39.7654
1096.5	39.5149
1097	38.7961
1097.5	37.6857
1098	36.5908
1098.5	35.9166
1099	35.8628
1099.5	36.0819
1100	36.0729
1100.5	35.4733
1101	34.5311
1101.5	33.8902
1102	34.304
1102.5	35.8914
1103	38.0204
1103.5	39.6266
1104	39.751
1104.5	38.2741
1105	35.6474
1105.5	33.0387
1106	31.4533
1106.5	31.4942
1107	32.9011
1107.5	34.8772
1108	36.5957
1108.5	37.3628
1109	37.0679
1109.5	35.9169
1110	34.5781
1110.5	33.7206
1111	33.7761
1111.5	34.6735
1112	35.8459
1112.5	36.7077
1113	36.8754
1113.5	36.5203
1114	36.042
1114.5	35.8404
1115	35.9235
1115.5	36.0334
1116	35.8047
1116.5	35.1815
1117	34.3858
1117.5	33.8936
1118	34.0073
1118.5	34.7979
1119	36.025
1119.5	37.2294
1120	38.0654
1120.5	38.264
1121	37.8683
1121.5	36.9626
1122	35.717
1122.5	34.4704
1123	33.5574
1123.5	33.3673
1124	33.8972
1124.5	34.9802
1125	36.1583
1125.5	36.8895
1126	36.833
1126.5	35.8692
1127	34.5062
1127.5	33.2886
1128	32.9012
1128.5	33.3984
1129	34.5654
1129.5	35.851
1130	36.64
1130.5	36.6261
1131	35.7314
1131.5	34.4842
1132	33.3036
1132.5	32.5917
1133	32.335
1133.5	32.4232
1134	32.7463
1134.5	33.2014
1135	33.7726
1135.5	34.3636
1136	34.7379
1136.5	34.6537
1137	33.882
1137.5	32.6947
1138	31.4932
1138.5	30.8634
1139	31.0247
1139.5	31.8861
1140	33.0986
1140.5	34.1264
1141	34.7052
1141.5	34.8165
1142	34.8652
1142.5	35.1867
1143	36.0131
1143.5	37.1457
1144	38.2147
1144.5	38.6967
1145	38.3596
1145.5	37.2864
1146	35.8158
1146.5	34.5774
1147	34.026
1147.5	34.4965
1148	35.7516
1148.5	37.3083
1149	38.6517
1149.5	39.417
1150	39.5008
1150.5	38.8615
1151	37.7116
1151.5	36.3212
1152	35.0339
1152.5	34.257
1153	34.2521
1153.5	35.1774
1154	36.6976
1154.5	38.2301
1155	39.2057
1155.5	39.4535
1156	39.2816
1156.5	39.2021
1157	39.6723
1157.5	40.7126
1158	42.0585
1158.5	43.2579
1159	44.0944
1159.5	44.6149
1160	45.0989
1160.5	45.7458
1161	46.5168
1161.5	47.1602
1162	47.4722
1162.5	47.3424
1163	46.809
1163.5	45.9919
1164	44.9209
1164.5	43.6568
1165	42.3713
1165.5	41.3156
1166	40.7453
1166.5	40.6313
1167	40.7544
1167.5	40.7307
1168	40.3604
1168.5	39.6431
1169	38.7469
1169.5	37.849
1170	36.9943
1170.5	36.1983
1171	35.5636
1171.5	35.3399
1172	35.8142
1172.5	36.8213
1173	37.8856
1173.5	38.2011
1174	37.4332
1174.5	35.6705
1175	33.5474
1175.5	31.9132
1176	31.2449
1176.5	31.6322
1177	32.4723
1177.5	33.2845
1178	33.7074
1178.5	33.8069
1179	33.7629
1179.5	33.7546
1180	33.8084
1180.5	33.8675
1181	33.8597
1181.5	33.7946
1182	33.7246
1182.5	33.7431
1183	33.8941
1183.5	34.1883
1184	34.5982
1184.5	35.0003
1185	35.2826
1185.5	35.3189
1186	35.1411
1186.5	34.8061
1187	34.3652
1187.5	33.8387
1188	33.166
1188.5	32.2488
1189	31.1899
1189.5	30.2246
1190	29.8424
1190.5	30.3337
1191	31.6806
1191.5	33.6084
1192	35.4167
1192.5	36.5653
1193	36.6017
1193.5	35.7916
1194	34.606
1194.5	33.638
1195	33.2223
1195.5	33.299
1196	33.4987
1196.5	33.34
1197	32.6644
1197.5	31.6145
1198	30.7074
1198.5	30.3918
1199	31.0326
1199.5	32.4447
1200	34.1973
1200.5	35.7384
1201	36.6297
1201.5	36.7491
1202	36.2097
1202.5	35.4364
1203	34.7764
1203.5	34.429
1204	34.3047
1204.5	34.1659
1205	33.7789
1205.5	33.1248
1206	32.4096
1206.5	31.9296
1207	31.8315
1207.5	31.9274
1208	31.8829
1208.5	31.4669
1209	30.823
1209.5	30.4077
1210	30.7585
1210.5	31.9772
1211	33.7709
1211.5	35.3538
1212	36.0691
1212.5	35.6141
1213	34.4428
1213.5	33.3091
1214	32.7738
1214.5	32.9731
1215	33.5345
1215.5	34.0336
1216	34.1502
1216.5	33.9008
1217	33.3881
1217.5	32.6978
1218	31.8458
1218.5	30.8442
1219	29.8999
1219.5	29.3609
1220	29.5912
1220.5	30.7486
1221	32.4474
1221.5	34.1973
1222	35.4185
1222.5	35.9103
1223	35.6923
1223.5	35.0174
1224	34.2178
1224.5	33.4628
1225	32.875
1225.5	32.4846
1226	32.3104
1226.5	32.3254
1227	32.3951
1227.5	32.3993
1228	32.2232
1228.5	31.901
1229	31.504
1229.5	31.1391
1230	30.8881
1230.5	30.8069
1231	30.9556
1231.5	31.2884
1232	31.7679
1232.5	32.3684
1233	33.0756
1233.5	33.9259
1234	34.9148
1234.5	35.8276
1235	36.3564
1235.5	36.0336
1236	34.9698
1236.5	33.5202
1237	32.4377
1237.5	32.2462
1238	33.0224
1238.5	34.2765
1239	35.1762
1239.5	35.3534
1240	34.8519
1240.5	34.3058
1241	34.141
1241.5	34.4869
1242	34.9125
1242.5	35.0194
1243	34.5906
1243.5	34.0002
1244	33.6413
1244.5	33.7508
1245	34.0648
1245.5	34.197
1246	33.7827
1246.5	32.9225
1247	31.9412
1247.5	31.2524
1248	31.0214
1248.5	31.1362
1249	31.4503
1249.5	31.8836
1250	32.498
1250.5	33.3867
1251	34.393
1251.5	35.1798
1252	35.2693
1252.5	34.5348
1253	33.3073
1253.5	32.2621
1254	31.9926
1254.5	32.5655
1255	33.5849
1255.5	34.219
1256	33.922
1256.5	32.5706
1257	30.8741
1257.5	29.8165
1258	30.2265
1258.5	32.0509
1259	34.5225
1259.5	36.6607
1260	37.6651
1260.5	37.4936
1261	36.5456
1261.5	35.6513
1262	35.3888
1262.5	35.8971
1263	36.721
1263.5	37.3195
1264	37.3571
1264.5	36.8583
1265	36.1195
1265.5	35.3585
1266	34.6489
1266.5	33.9336
1267	33.2033
1267.5	32.6094
1268	32.3199
1268.5	32.4239
1269	32.8001
1269.5	33.1798
1270	33.38
1270.5	33.375
1271	33.3187
1271.5	33.3618
1272	33.5599
1272.5	33.8067
1273	33.9352
1273.5	33.7063
1274	33.0258
1274.5	31.9278
1275	30.7913
1275.5	30.2323
1276	30.8304
1276.5	32.6671
1277	34.8252
1277.5	36.3928
1278	36.7244
1278.5	36.383
1279	36.2434
1279.5	37.0597
1280	38.3876
1280.5	39.4348
1281	40.3359
1281.5	43.3353
1282	51.7056
1282.5	69.1694
1283	93.0232
1283.5	118.102
1284	134.813
1284.5	137.852
1285	125.504
1285.5	101.462
1286	76.0443
1286.5	55.2919
1287	43.6647
1287.5	38.5198
1288	37.0483
1288.5	36.5585
1289	35.6107
1289.5	34.3075
1290	33.1711
1290.5	32.3544
1291	31.7712
1291.5	31.4213
1292	31.3921
1292.5	31.7648
1293	32.4339
1293.5	32.9703
1294	33.041
1294.5	32.5358
1295	31.8245
1295.5	31.2938
1296	31.3475
1296.5	32.0224
1297	33.1638
1297.5	34.4575
1298	35.4516
1298.5	35.8685
1299	35.6228
1299.5	35.0497
1300	34.4909
1300.5	34.1505
1301	33.8838
1301.5	33.4046
1302	32.472
1302.5	31.2861
1303	30.298
1303.5	29.974
1304	30.3347
1304.5	31.0682
1305	31.7724
1305.5	32.1904
1306	32.3681
1306.5	32.496
1307	32.7504
1307.5	33.1188
1308	33.5023
1308.5	33.7988
1309	33.97
1309.5	33.9554
1310	33.6632
1310.5	33.0113
1311	31.9335
1311.5	30.6565
1312	29.5297
1312.5	28.9257
1313	29.0027
1313.5	29.5657
1314	30.2854
1314.5	30.7686
1315	30.8848
1315.5	30.8009
1316	30.9003
1316.5	31.4036
1317	32.2864
1317.5	33.1903
1318	33.7203
1318.5	33.6656
1319	33.2105
1319.5	32.8583
1320	32.9981
1320.5	33.6615
1321	34.4096
1321.5	34.6834
1322	33.9863
1322.5	32.4075
1323	30.2927
1323.5	28.3563
1324	27.1534
1324.5	26.9798
1325	27.8232
1325.5	29.1696
1326	30.5282
1326.5	31.347
1327	31.4301
1327.5	30.8172
1328	29.9355
1328.5	29.3816
1329	29.6094
1329.5	30.8945
1330	32.7982
1330.5	34.6966
1331	35.588
1331.5	34.9274
1332	32.6535
1332.5	29.1737
1333	25.6017
1333.5	22.8256
1334	21.7898
1334.5	22.4265
1335	24.4832
1335.5	27.3893
1336	30.1112
1336.5	32.0275
1337	32.555
1337.5	32.0318
1338	30.9382
1338.5	30.0599
1339	29.9619
1339.5	30.7332
1340	31.9397
1340.5	32.7926
1341	32.8194
1341.5	31.7731
1342	30.2018
1342.5	28.6463
1343	27.6912
1343.5	27.4125
1344	27.6062
1344.5	28.0443
1345	28.545
1345.5	29.1427
1346	30.0266
1346.5	31.2728
1347	32.8269
1347.5	34.4249
1348	35.6864
1348.5	36.3282
1349	36.0505
1349.5	34.9786
1350	33.3658
1350.5	31.5837
1351	30.1127
1351.5	29.2185
1352	29.0431
1352.5	29.3664
1353	29.9201
1353.5	30.4781
1354	30.9256
1354.5	31.2854
1355	31.6456
1355.5	32.0864
1356	32.6216
1356.5	33.2073
1357	33.7074
1357.5	33.9548
1358	33.7306
1358.5	32.9987
1359	31.9757
1359.5	31.0148
1360	30.4352
1360.5	30.2896
1361	30.4525
1361.5	30.6598
1362	30.7983
1362.5	30.9745
1363	31.3557
1363.5	31.9082
1364	32.3849
1364.5	32.4463
1365	31.9997
1365.5	31.1926
1366	30.4921
1366.5	30.3187
1367	30.9361
1367.5	32.3294
1368	34.1802
1368.5	36.0908
1369	37.5016
1369.5	38.021
1370	37.4095
1370.5	35.912
1371	34.0575
1371.5	32.2053
1372	30.5715
1372.5	29.2118
1373	28.3037
1373.5	28.2169
1374	28.9636
1374.5	30.2876
1375	31.5371
1375.5	32.193
1376	32.174
1376.5	31.8821
1377	31.8147
1377.5	32.0275
1378	32.2349
1378.5	32.3347
1379	32.6204
1379.5	33.5569
1380	34.9399
1380.5	36.0362
1381	35.9552
1381.5	35.2708
1382	35.1983
1382.5	36.8904
1383	39.3762
1383.5	40.8058
1384	40.0059
1384.5	40.5875
1385	49.1669
1385.5	74.5035
1386	113.99
1386.5	159.638
1387	194.456
1387.5	206.126
1388	189.473
1388.5	149.981
1389	106.297
1389.5	69.8107
1390	49.0283
1390.5	39.6617
1391	36.7972
1391.5	35.9234
1392	34.9192
1392.5	34.2201
1393	34.3911
1393.5	34.8443
1394	34.8287
1394.5	33.9203
1395	32.7781
1395.5	32.0996
1396	32.249
1396.5	32.8589
1397	33.6081
1397.5	34.3576
1398	35.0491
1398.5	35.429
1399	34.9371
1399.5	33.4989
1400	31.5376
1400.5	30.0069
1401	29.6959
1401.5	30.7082
1402	32.5479
1402.5	34.0958
1403	34.7547
1403.5	34.2694
1404	33.0436
1404.5	31.5545
1405	30.3277
1405.5	29.889
1406	30.5502
1406.5	32.5806
1407	35.6255
1407.5	39.034
1408	41.9497
1408.5	43.6085
1409	43.6661
1409.5	42.0593
1410	39.3515
1410.5	36.26
1411	33.5192
1411.5	31.693
1412	30.877
1412.5	30.8478
1413	30.9179
1413.5	30.6067
1414	29.7567
1414.5	28.6957
1415	27.9179
1415.5	27.8203
1416	28.298
1416.5	28.812
1417	28.8616
1417.5	28.2919
1418	27.4819
1418.5	27.0472
1419	27.5624
1419.5	28.9299
1420	30.6996
1420.5	32.2286
1421	33.1672
1421.5	33.4296
1422	33.1625
1422.5	32.5729
1423	31.7104
1423.5	30.6468
1424	29.6072
1424.5	28.8939
1425	28.7501
1425.5	29.0188
1426	29.3272
1426.5	29.2337
1427	28.6916
1427.5	27.9182
1428	27.3528
1428.5	27.2819
1429	27.8162
1429.5	28.802
1430	29.8943
1430.5	30.8218
1431	31.2593
1431.5	31.0964
1432	30.3199
1432.5	29.1773
1433	28.2306
1433.5	27.8797
1434	28.3834
1434.5	29.423
1435	30.621
1435.5	31.4778
1436	31.7841
1436.5	31.5314
1437	30.7807
1437.5	29.8228
1438	28.8898
1438.5	28.302
1439	28.1677
1439.5	28.3811
1440	28.6104
1440.5	28.4903
1441	27.8937
1441.5	27.0034
1442	26.4144
1442.5	26.5578
1443	27.6044
1443.5	28.9641
1444	30.0255
1444.5	30.1056
1445	29.2813
1445.5	27.9983
1446	27.0448
1446.5	26.8909
1447	27.5908
1447.5	28.9019
1448	30.2073
1448.5	31.075
1449	31.2864
1449.5	31.1129
1450	30.869
1450.5	30.8558
1451	31.0822
1451.5	31.2933
1452	30.976
1452.5	29.9017
1453	28.182
1453.5	26.2482
1454	24.7495
1454.5	24.0738
1455	24.3986
1455.5	25.2594
1456	26.2747
1456.5	27.2041
1457	27.9514
1457.5	28.4459
1458	28.4395
1458.5	27.8586
1459	26.8839
1459.5	25.9608
1460	25.6238
1460.5	26.0422
1461	26.9977
1461.5	27.7799
1462	27.9483
1462.5	27.4222
1463	26.6055
1463.5	25.9125
1464	25.5403
1464.5	25.3845
1465	25.3199
1465.5	25.4482
1466	25.9372
1466.5	26.7214
1467	27.404
1467.5	27.334
1468	26.396
1468.5	24.9463
1469	23.8657
1469.5	23.7871
1470	24.8697
1470.5	26.4793
1471	27.7352
1471.5	28.2502
1472	28.264
1472.5	28.3569
1473	28.87
1473.5	29.5976
1474	29.9259
1474.5	29.4131
1475	28.1184
1475.5	26.6893
1476	25.8022
1476.5	25.9683
1477	26.897
1477.5	28.1595
1478	29.2624
1478.5	29.9446
1479	30.0758
1479.5	29.5317
1480	28.4287
1480.5	26.9046
1481	25.3385
1481.5	24.2306
1482	23.964
1482.5	24.6491
1483	25.6178
1483.5	26.2234
1484	25.932
1484.5	24.9661
1485	23.8187
1485.5	23.237
1486	23.4
1486.5	24.1009
1487	24.9311
1487.5	25.6081
1488	26.1794
1488.5	26.8989
1489	27.7969
1489.5	28.633
1490	28.9223
1490.5	28.5221
1491	27.5277
1491.5	26.2527
1492	25.0819
1492.5	24.1007
1493	23.348
1493.5	22.8744
1494	22.8722
1494.5	23.6832
1495	24.9874
1495.5	26.3749
1496	27.2834
1496.5	27.5561
1497	27.311
1497.5	26.7914
1498	26.2194
1498.5	25.5866
1499	24.9091
1499.5	24.4207
1500	24.4639
1500.5	25.3861
1501	26.7941
1501.5	28.1415
1502	28.7784
1502.5	28.589
1503	27.8395
1503.5	27.0507
1504	26.6183
1504.5	26.5865
1505	26.8042
1505.5	26.9452
1506	26.7271
1506.5	25.9218
1507	24.651
1507.5	23.2372
1508	22.2291
1508.5	22.0809
1509	22.8792
1509.5	24.284
1510	25.6245
1510.5	26.5027
1511	26.8081
1511.5	26.8207
1512	26.7839
1512.5	26.6564
1513	26.2166
1513.5	25.3847
1514	24.3535
1514.5	23.6665
1515	23.7203
1515.5	24.5346
1516	25.5933
1516.5	26.2959
1517	26.2423
1517.5	25.605
1518	24.9959
1518.5	24.9076
1519	25.3307
1519.5	25.7418
1520	25.4734
1520.5	24.2302
1521	22.6866
1521.5	21.8245
1522	22.4885
1522.5	24.5248
1523	27.1349
1523.5	28.9348
1524	29.3345
1524.5	28.4522
1525	27.164
1525.5	26.3771
1526	26.4307
1526.5	26.8754
1527	26.9625
1527.5	26.4314
1528	25.4605
1528.5	24.5666
1529	24.1328
1529.5	24.3517
1530	25.057
1530.5	26.003
1531	26.8388
1531.5	27.3376
1532	27.539
1532.5	27.7035
1533	28.086
1533.5	28.5778
1534	28.6787
1534.5	27.9133
1535	26.043
1535.5	23.9381
1536	22.4375
1536.5	22.3237
1537	23.4622
1537.5	25.3562
1538	26.9596
1538.5	27.6024
1539	27.1376
1539.5	26.0002
1540	24.8169
1540.5	24.2285
1541	24.4351
1541.5	25.201
1542	26.0911
1542.5	26.6016
1543	26.3801
1543.5	25.3689
1544	24.0743
1544.5	23.0288
1545	22.6844
1545.5	23.1283
1546	24.2498
1546.5	25.493
1547	26.5223
1547.5	27.0772
1548	27.1198
1548.5	26.5619
1549	25.4168
1549.5	23.9265
1550	22.4345
1550.5	21.3911
1551	21.0404
1551.5	21.4443
1552	21.9912
1552.5	22.2854
1553	22.1839
1553.5	22.0064
1554	22.2929
1554.5	23.3435
1555	24.8194
1555.5	26.1046
1556	26.6776
1556.5	26.4558
1557	25.8727
1557.5	25.5824
1558	25.7593
1558.5	26.0757
1559	26.0278
1559.5	25.2392
1560	24.1045
1560.5	23.2581
1561	23.2624
1561.5	23.9477
1562	24.8313
1562.5	25.1604
1563	24.894
1563.5	24.3814
1564	24.1828
1564.5	24.479
1565	25.0065
1565.5	25.0661
1566	24.3785
1566.5	23.0988
1567	21.9048
1567.5	21.3795
1568	21.8048
1568.5	22.645
1569	23.3596
1569.5	23.6278
1570	23.5717
1570.5	23.6378
1571	24.2306
1571.5	25.3054
1572	26.4716
1572.5	27.2628
1573	27.3859
1573.5	26.9336
1574	26.377
1574.5	26.0883
1575	26.1226
1575.5	26.2792
1576	26.1701
1576.5	25.5996
1577	24.6798
1577.5	23.7316
1578	23.0094
1578.5	22.5996
1579	22.3082
1579.5	21.891
1580	21.2913
1580.5	20.7744
1581	20.6808
1581.5	21.3809
1582	22.7386
1582.5	24.2701
1583	25.3104
1583.5	25.5677
1584	25.0494
1584.5	24.3673
1585	24.2063
1585.5	25.0062
1586	26.3565
1586.5	27.6496
1587	28.112
1587.5	27.56
1588	26.3717
1588.5	25.4507
1589	25.2788
1589.5	25.9549
1590	26.8515
1590.5	27.2519
1591	26.6355
1591.5	25.3832
1592	24.03
1592.5	23.2336
1593	23.2142
1593.5	23.9051
1594	24.7211
1594.5	25.2478
1595	25.1579
1595.5	24.5048
1596	23.4401
1596.5	22.2677
1597	21.2793
1597.5	20.6571
1598	20.4867
1598.5	20.7417
1599	21.4426
1599.5	22.4723
1600	23.6354
1600.5	24.6066
1601	25.0898
1601.5	24.8917
1602	24.0986
1602.5	23.2295
1603	22.8209
1603.5	23.0921
1604	23.8304
1604.5	24.5604
1605	24.7718
1605.5	24.3755
1606	23.7197
1606.5	23.2497
1607	23.1665
1607.5	23.2784
1608	23.1269
1608.5	22.328
1609	21.0951
1609.5	19.9065
1610	19.4137
1610.5	19.7659
1611	20.7258
1611.5	21.5167
1612	21.658
1612.5	21.0993
1613	20.3993
1613.5	20.2063
1614	21.084
1614.5	22.6131
1615	24.061
1615.5	24.5917
1616	24.0634
1616.5	22.7316
1617	21.405
1617.5	20.7343
1618	20.9626
1618.5	21.7939
1619	22.8162
1619.5	23.6267
1620	24.0552
1620.5	24.1517
1621	24.1059
1621.5	24.1338
1622	24.4008
1622.5	24.9537
1623	25.6483
1623.5	26.179
1624	26.308
1624.5	26.0081
1625	25.4206
1625.5	24.8556
1626	24.5051
1626.5	24.3459
1627	24.1818
1627.5	23.8832
1628	23.4858
1628.5	23.1338
1629	23.0047
1629.5	23.0744
1630	23.1824
1630.5	23.1183
1631	22.8048
1631.5	22.2593
1632	21.6485
1632.5	21.1893
1633	21.072
1633.5	21.3069
1634	21.7764
1634.5	22.2639
1635	22.5761
1635.5	22.7044
1636	22.9323
1636.5	23.5103
1637	24.501
1637.5	25.5467
1638	26.1442
1638.5	25.7283
1639	24.5571
1639.5	23.2414
1640	22.5831
1640.5	22.8656
1641	23.9798
1641.5	25.2738
1642	26.0748
1642.5	26.0077
1643	25.1674
1643.5	23.8286
1644	22.3296
1644.5	21.0885
1645	20.4989
1645.5	20.8281
1646	21.8828
1646.5	23.3154
1647	24.5289
1647.5	25.1574
1648	25.0376
1648.5	24.5408
1649	23.9226
1649.5	23.2456
1650	22.4558
1650.5	21.5822
1651	20.9961
1651.5	21.1814
1652	22.4017
1652.5	24.2341
1653	25.9319
1653.5	26.5643
1654	25.8682
1654.5	24.1193
1655	22.2244
1655.5	20.8851
1656	20.4152
1656.5	20.6626
1657	21.2188
1657.5	21.7255
1658	22.0327
1658.5	22.2296
1659	22.5036
1659.5	22.9808
1660	23.6617
1660.5	24.3259
1661	24.6184
1661.5	24.2668
1662	23.3924
1662.5	22.4191
1663	21.9513
1663.5	22.3016
1664	23.3664
1664.5	24.495
1665	25.0677
1665.5	24.8612
1666	24.1866
1666.5	23.6204
1667	23.6578
1667.5	24.2652
1668	24.9339
1668.5	25.0235
1669	24.3506
1669.5	23.0774
1670	21.799
1670.5	21.1915
1671	21.7773
1671.5	23.3942
1672	25.4505
1672.5	27.1167
1673	27.6709
1673.5	26.8546
1674	24.8491
1674.5	22.7396
1675	21.3698
1675.5	21.2226
1676	21.9753
1676.5	23.0206
1677	23.5968
1677.5	23.4435
1678	22.8059
1678.5	22.2378
1679	22.0367
1679.5	22.2805
1680	22.7794
1680.5	23.4307
1681	24.227
1681.5	25.1161
1682	25.8639
1682.5	26.1106
1683	25.6698
1683.5	24.6138
1684	23.583
1684.5	23.1841
1685	23.6572
1685.5	24.6296
1686	25.5953
1686.5	26.0809
1687	25.9902
1687.5	25.3933
1688	24.6203
1688.5	23.9109
1689	23.6044
1689.5	23.9401
1690	25.0583
1690.5	26.6316
1691	27.8679
1691.5	27.8848
1692	26.6168
1692.5	24.6814
1693	23.1649
1693.5	22.782
1694	23.5725
1694.5	24.7492
1695	25.3758
1695.5	25.0932
1696	24.2391
1696.5	23.3532
1697	22.8335
1697.5	22.6304
1698	22.5055
1698.5	22.2763
1699	22.0326
1699.5	21.94
1700	22.1321
1700.5	22.5735
1701	23.1733
1701.5	23.7293
1702	24.0459
1702.5	23.8765
1703	23.2456
1703.5	22.3635
1704	21.7633
1704.5	21.9195
1705	23.117
1705.5	24.8953
1706	26.5008
1706.5	27.1709
1707	26.685
1707.5	25.2854
1708	23.5437
1708.5	22.1918
1709	21.5996
1709.5	21.7267
1710	22.1734
1710.5	22.5509
1711	22.6079
1711.5	22.4047
1712	22.1935
1712.5	22.1791
1713	22.2589
1713.5	22.0774
1714	21.4221
1714.5	20.349
1715	19.3702
1715.5	19.056
1716	19.8253
1716.5	21.2565
1717	22.7432
1717.5	23.5752
1718	23.5648
1718.5	22.8231
1719	21.8017
1719.5	21.0046
1720	20.692
1720.5	20.7463
1721	20.8442
1721.5	20.6072
1722	19.944
1722.5	19.079
1723	18.6084
1723.5	18.8788
1724	19.7917
1724.5	20.7239
1725	21.0924
1725.5	20.6317
1726	19.8249
1726.5	19.3891
1727	20.0167
1727.5	21.34
1728	22.737
1728.5	23.457
1729	23.3569
1729.5	22.6725
1730	22.038
1730.5	21.9042
1731	22.3763
1731.5	23.0609
1732	23.5622
1732.5	23.5072
1733	22.9619
1733.5	22.1794
1734	21.6259
1734.5	21.5242
1735	21.7292
1735.5	21.7797
1736	21.3945
1736.5	20.5847
1737	19.8559
1737.5	19.6662
1738	20.2444
1738.5	21.1119
1739	21.8113
1739.5	22.1907
1740	22.5156
1740.5	23.1313
1741	23.9942
1741.5	24.651
1742	24.267
1742.5	22.8986
1743	21.0611
1743.5	19.7476
1744	19.5197
1744.5	20.4685
1745	21.9232
1745.5	23.1485
1746	23.6493
1746.5	23.6973
1747	23.6868
1747.5	23.9653
1748	24.4718
1748.5	24.9349
1749	25.0048
1749.5	24.6308
1750	24.0141
1750.5	23.4556
1751	22.973
1751.5	22.2777
1752	21.0721
1752.5	19.3083
1753	17.4242
1753.5	16.1636
1754	16.0519
1754.5	16.9159
1755	18.1673
1755.5	19.2519
1756	19.9982
1756.5	20.5693
1757	21.1681
1757.5	21.6632
1758	21.7048
1758.5	21.1271
1759	20.2973
1759.5	19.8045
1760	20.0523
1760.5	20.8598
1761	21.5863
1761.5	21.5413
1762	20.6403
1762.5	19.329
1763	18.2183
1763.5	17.6556
1764	17.6443
1764.5	17.9795
1765	18.5525
1765.5	19.3095
1766	20.1689
1766.5	20.8889
1767	21.2157
1767.5	20.9896
1768	20.2464
1768.5	19.2529
1769	18.2659
1769.5	17.541
1770	17.2163
1770.5	17.451
1771	18.1991
1771.5	19.3308
1772	20.5547
1772.5	21.5371
1773	22.0589
1773.5	22.1294
1774	22.0256
1774.5	22.0851
1775	22.5167
1775.5	23.2856
1776	24.1132
1776.5	24.5102
1777	24.0367
1777.5	22.4184
1778	20.0753
1778.5	17.7629
1779	16.3634
1779.5	16.2125
1780	17.3137
1780.5	18.9465
1781	20.4924
1781.5	21.4671
1782	21.9332
1782.5	22.1233
1783	22.2454
1783.5	22.283
1784	22.0707
1784.5	21.5005
1785	20.6393
1785.5	19.6998
1786	18.9811
1786.5	18.6777
1787	18.8191
1787.5	19.2336
1788	19.7874
1788.5	20.3663
1789	20.9297
1789.5	21.4307
1790	21.7441
1790.5	21.6657
1791	20.9218
1791.5	19.6682
1792	18.2338
1792.5	17.2326
1793	17.056
1793.5	17.8705
1794	19.2739
1794.5	20.6976
1795	21.5527
1795.5	21.758
1796	21.4661
1796.5	20.9083
1797	20.298
1797.5	19.7704
1798	19.5278
1798.5	19.7485
1799	20.5749
1799.5	21.6618
1800	22.4119
1800.5	22.1087
1801	20.8342
1801.5	19.1003
1802	17.9134
1802.5	17.843
1803	18.9067
1803.5	20.2298
1804	20.9122
1804.5	20.54
1805	19.6987
1805.5	19.0871
1806	19.2561
1806.5	19.9432
1807	20.6147
1807.5	20.7077
1808	20.2338
1808.5	19.5646
1809	19.1647
1809.5	19.09
1810	19.1468
1810.5	19.0848
1811	18.874
1811.5	18.6887
1812	18.6957
1812.5	18.9234
1813	19.2089
1813.5	19.4265
1814	19.5871
1814.5	19.8121
1815	20.1691
1815.5	20.6375
1816	21.0964
1816.5	21.4662
1817	21.7364
1817.5	21.9533
1818	22.1171
1818.5	22.1597
1819	22.0078
1819.5	21.578
1820	20.9185
1820.5	20.1044
1821	19.2746
1821.5	18.5861
1822	18.1955
1822.5	18.171
1823	18.4025
1823.5	18.7136
1824	18.8717
1824.5	18.7658
1825	18.3873
1825.5	17.9493
1826	17.6692
1826.5	17.7616
1827	18.2264
1827.5	18.9578
1828	19.7555
1828.5	20.4889
1829	21.0721
1829.5	21.4757
1830	21.6417
1830.5	21.4564
1831	20.9635
1831.5	20.3092
1832	19.8242
1832.5	19.6683
1833	19.7784
1833.5	19.8023
1834	19.4813
1834.5	18.7403
1835	17.9109
1835.5	17.3057
1836	17.1051
1836.5	17.1698
1837	17.3839
1837.5	17.8152
1838	18.5803
1838.5	19.6342
1839	20.4893
1839.5	20.6385
1840	19.7374
1840.5	18.3451
1841	17.2687
1841.5	17.3795
1842	18.5444
1842.5	20.2111
1843	21.5989
1843.5	22.4062
1844	22.6381
1844.5	22.6158
1845	22.4765
1845.5	22.2174
1846	21.8447
1846.5	21.4379
1847	21.1053
1847.5	20.8024
1848	20.3776
1848.5	19.7705
1849	19.1114
1849.5	18.7024
1850	18.6742
1850.5	18.9492
1851	19.2267
1851.5	19.2983
1852	19.1887
1852.5	19.069
1853	18.9346
1853.5	18.5091
1854	17.5217
1854.5	15.9671
1855	14.2836
1855.5	13.1676
1856	13.1595
1856.5	14.3011
1857	16.0105
1857.5	17.6397
1858	18.8054
1858.5	19.5173
1859	19.9006
1859.5	20.111
1860	20.1251
1860.5	19.8672
1861	19.4058
1861.5	18.8824
1862	18.4688
1862.5	18.1735
1863	17.9332
1863.5	17.735
1864	17.684
1864.5	17.9559
1865	18.4867
1865.5	19.0521
1866	19.2891
1866.5	19.0907
1867	18.5985
1867.5	18.2356
1868	18.2064
1868.5	18.4471
1869	18.6243
1869.5	18.5502
1870	18.2967
1870.5	18.1922
1871	18.5437
1871.5	19.4005
1872	20.4791
1872.5	21.3393
1873	21.6067
1873.5	21.2045
1874	20.1857
1874.5	18.9013
1875	17.6398
1875.5	16.7332
1876	16.3563
1876.5	16.6681
1877	17.6139
1877.5	18.9733
1878	20.3723
1878.5	21.278
1879	21.3264
1879.5	20.3368
1880	18.7587
1880.5	17.1857
1881	16.3604
1881.5	16.5505
1882	17.6919
1882.5	19.0764
1883	20.0344
1883.5	19.9646
1884	19.0708
1884.5	17.8577
1885	16.9762
1885.5	16.6334
1886	16.6858
1886.5	16.6754
1887	16.3428
1887.5	15.7248
1888	15.2314
1888.5	15.1944
1889	15.7722
1889.5	16.6664
1890	17.5603
1890.5	18.2147
1891	18.6142
1891.5	18.7679
1892	18.7373
1892.5	18.6206
1893	18.6364
1893.5	19.0094
1894	19.8235
1894.5	20.8767
1895	21.7215
1895.5	21.9453
1896	21.48
1896.5	20.6425
1897	19.7956
1897.5	19.1911
1898	18.8544
1898.5	18.7109
1899	18.6146
1899.5	18.4735
1900	18.2074
1900.5	17.8171
1901	17.3872
1901.5	17.1454
1902	17.2789
1902.5	17.8915
1903	18.7602
1903.5	19.6141
1904	20.1364
1904.5	20.2349
1905	19.9134
1905.5	19.3316
1906	18.6946
1906.5	18.2011
1907	17.9786
1907.5	18.0282
1908	18.2105
1908.5	18.2179
1909	17.7982
1909.5	16.8371
1910	15.6003
1910.5	14.5426
1911	14.2064
1911.5	14.7506
1912	15.9933
1912.5	17.162
1913	17.6192
1913.5	16.9895
1914	15.7955
1914.5	14.7547
1915	14.4191
1915.5	14.6197
1916	14.8827
1916.5	14.8255
1917	14.6063
1917.5	14.8277
1918	15.8302
1918.5	17.418
1919	18.732
1919.5	19.0531
1920	18.2071
1920.5	17.0287
1921	16.5274
1921.5	17.2857
1922	18.6923
1922.5	19.8004
1923	19.6316
1923.5	18.3577
1924	16.6965
1924.5	15.8145
1925	16.2182
1925.5	17.8368
1926	19.7444
1926.5	21.0962
1927	21.2271
1927.5	20.3543
1928	18.9061
1928.5	17.3587
1929	15.9971
1929.5	14.9632
1930	14.3645
1930.5	14.2623
1931	14.7492
1931.5	15.6493
1932	16.6884
1932.5	17.5137
1933	17.9853
1933.5	18.149
1934	18.2316
1934.5	18.4362
1935	18.8473
1935.5	19.4186
1936	20.0418
1936.5	20.5116
1937	20.532
1937.5	19.8233
1938	18.2326
1938.5	16.2705
1939	14.7052
1939.5	14.3991
1940	15.3893
1940.5	17.1077
1941	18.3695
1941.5	18.6185
1942	18.0744
1942.5	17.72
1943	18.1169
1943.5	19.1044
1944	19.8667
1944.5	19.7357
1945	18.7626
1945.5	17.5817
1946	16.8526
1946.5	16.6645
1947	16.7148
1947.5	16.6746
1948	16.6103
1948.5	16.7932
1949	17.2915
1949.5	17.754
1950	17.7407
1950.5	17.1998
1951	16.5047
1951.5	16.2059
1952	16.4374
1952.5	16.9487
1953	17.2382
1953.5	17.1004
1954	16.6512
1954.5	16.2651
1955	16.1301
1955.5	16.1949
1956	16.2223
1956.5	16.1616
1957	16.2281
1957.5	16.666
1958	17.5245
1958.5	18.4798
1959	19.0639
1959.5	18.9332
1960	18.253
1960.5	17.5243
1961	17.3594
1961.5	17.9093
1962	18.9205
1962.5	19.8035
1963	20.1276
1963.5	19.7652
1964	18.9857
1964.5	18.1615
1965	17.533
1965.5	17.1564
1966	17.002
1966.5	17.0731
1967	17.3242
1967.5	17.7169
1968	18.1309
1968.5	18.3995
1969	18.3415
1969.5	17.8749
1970	17.1021
1970.5	16.2586
1971	15.6723
1971.5	15.5145
1972	15.7881
1972.5	16.2046
1973	16.5847
1973.5	16.9091
1974	17.291
1974.5	17.7995
1975	18.3044
1975.5	18.6121
1976	18.5686
1976.5	18.3376
1977	18.1558
1977.5	18.2398
1978	18.5256
1978.5	18.8181
1979	18.8726
1979.5	18.6063
1980	17.9892
1980.5	17.1071
1981	16.0523
1981.5	14.993
1982	14.184
1982.5	13.8835
1983	14.2663
1983.5	15.1897
1984	16.4164
1984.5	17.5546
1985	18.3541
1985.5	18.6457
1986	18.552
1986.5	18.2093
1987	17.7191
1987.5	17.096
1988	16.2847
1988.5	15.3463
1989	14.5229
1989.5	14.1828
1990	14.4001
1990.5	14.8997
1991	15.1163
1991.5	14.7407
1992	13.9054
1992.5	13.2751
1993	13.407
1993.5	14.4461
1994	15.7513
1994.5	16.5547
1995	16.3086
1995.5	15.4248
1996	14.6312
1996.5	14.7181
1997	15.6376
1997.5	16.9233
1998	17.8456
1998.5	18.1443
1999	17.9435
1999.5	17.7112
2000	17.7118
2000.5	18.0678
2001	18.672
2001.5	19.402
2002	19.972
2002.5	20.0316
2003	19.2472
2003.5	17.7228
2004	16.0325
2004.5	14.9423
2005	14.7614
2005.5	15.2033
2006	15.5944
2006.5	15.5476
2007	15.2382
2007.5	15.2819
2008	15.9444
2008.5	16.9944
2009	17.7371
2009.5	17.8659
2010	17.5194
2010.5	17.2152
2011	17.1505
2011.5	17.1451
2012	16.9359
2012.5	16.5605
2013	16.4606
2013.5	16.9588
2014	18.0468
2014.5	19.1225
2015	19.6544
2015.5	19.3079
2016	18.4495
2016.5	17.4653
2017	16.6667
2017.5	16.0567
2018	15.5728
2018.5	15.2329
2019	15.1612
2019.5	15.5446
2020	16.2966
2020.5	17.2074
2021	17.9413
2021.5	18.2784
2022	18.1169
2022.5	17.5644
2023	16.8804
2023.5	16.3275
2024	16.0606
2024.5	16.0491
2025	16.1587
2025.5	16.2193
2026	16.1864
2026.5	16.126
2027	16.1175
2027.5	16.1502
2028	16.0905
2028.5	15.8399
2029	15.4226
2029.5	15.1093
2030	15.1711
2030.5	15.7942
2031	16.7044
2031.5	17.5045
2032	17.8078
2032.5	17.6486
2033	17.2921
2033.5	17.132
2034	17.2984
2034.5	17.7116
2035	18.1354
2035.5	18.4977
2036	18.8972
2036.5	19.4381
2037	20.085
2037.5	20.5982
2038	20.7723
2038.5	20.4712
2039	19.7716
2039.5	18.7214
2040	17.2433
2040.5	15.4337
2041	13.5675
2041.5	12.2949
2042	12.0719
2042.5	13.0552
2043	14.5917
2043.5	15.8469
2044	16.1017
2044.5	15.5522
2045	14.7359
2045.5	14.3012
2046	14.3992
2046.5	14.8737
2047	15.3606
2047.5	15.6255
2048	15.5222
2048.5	15.0617
2049	14.3682
2049.5	13.7732
2050	13.6849
2050.5	14.3199
2051	15.4445
2051.5	16.4031
2052	16.6481
2052.5	16.2336
2053	15.7484
2053.5	15.8316
2054	16.3978
2054.5	16.8158
2055	16.2327
2055.5	14.7686
2056	13.2027
2056.5	12.7639
2057	13.7913
2057.5	15.8625
2058	17.7323
2058.5	18.6519
2059	18.4917
2059.5	18.0015
2060	17.6828
2060.5	17.6127
2061	17.4333
2061.5	16.8841
2062	16.1549
2062.5	15.7061
2063	15.9432
2063.5	16.6583
2064	17.3395
2064.5	17.3692
2065	16.7412
2065.5	15.7753
2066	14.9908
2066.5	14.5412
2067	14.2368
2067.5	13.7009
2068	12.8584
2068.5	12.0112
2069	11.6912
2069.5	12.2074
2070	13.5211
2070.5	15.0501
2071	16.2376
2071.5	16.7104
2072	16.5903
2072.5	16.1963
2073	15.9506
2073.5	16.0022
2074	16.2909
2074.5	16.5615
2075	16.6532
2075.5	16.4776
2076	16.0326
2076.5	15.2543
2077	14.2124
2077.5	13.2114
2078	12.8439
2078.5	13.47
2079	14.9651
2079.5	16.6085
2080	17.5673
2080.5	17.518
2081	16.9411
2081.5	16.6176
2082	16.9786
2082.5	17.6109
2083	17.8471
2083.5	17.1741
2084	16.0151
2084.5	15.0091
2085	14.719
2085.5	14.9936
2086	15.4624
2086.5	15.8217
2087	16.1586
2087.5	16.7164
2088	17.4585
2088.5	18.0465
2089	17.9544
2089.5	17.1827
2090	16.0767
2090.5	15.288
2091	15.091
2091.5	15.3368
2092	15.4396
2092.5	15.0622
2093	14.2875
2093.5	13.7416
2094	13.8924
2094.5	14.783
2095	15.7661
2095.5	16.1996
2096	15.8574
2096.5	15.1586
2097	14.6891
2097.5	14.717
2098	15.0814
2098.5	15.53
2099	16.046
2099.5	16.8279
2100	17.9582
2100.5	19.0741
2101	19.6037
2101.5	19.2062
2102	18.1078
2102.5	16.8121
2103	15.8178
2103.5	15.2361
2104	14.9495
2104.5	14.7586
2105	14.6196
2105.5	14.5702
2106	14.6426
2106.5	14.8857
2107	15.3177
2107.5	15.8902
2108	16.4088
2108.5	16.6178
2109	16.4016
2109.5	15.924
2110	15.5453
2110.5	15.4871
2111	15.641
2111.5	15.7527
2112	15.7003
2112.5	15.6943
2113	15.9873
2113.5	16.6851
2114	17.4796
2114.5	18.0276
2115	18.0867
2115.5	17.7304
2116	17.0924
2116.5	16.3954
2117	15.8193
2117.5	15.5552
2118	15.563
2118.5	15.6491
2119	15.5329
2119.5	15.2566
2120	15.1817
2120.5	15.7652
2121	16.9304
2121.5	18.1178
2122	18.6121
2122.5	18.2857
2123	17.569
2123.5	17.0962
2124	16.9587
2124.5	16.7126
2125	16.075
2125.5	15.3444
2126	15.3685
2126.5	16.5117
2127	18.3927
2127.5	19.7566
2128	19.7984
2128.5	18.4752
2129	16.8362
2129.5	15.7191
2130	15.2953
2130.5	14.9781
2131	14.1408
2131.5	12.8264
2132	11.6441
2132.5	11.4911
2133	12.4649
2133.5	14.1648
2134	15.7466
2134.5	16.6938
2135	16.9185
2135.5	16.751
2136	16.45
2136.5	16.0528
2137	15.5653
2137.5	15.1383
2138	15.1072
2138.5	15.5023
2139	16.0213
2139.5	16.0531
2140	15.3996
2140.5	14.3563
2141	13.7281
2141.5	13.9788
2142	15.1488
2142.5	16.5351
2143	17.5637
2143.5	17.8484
2144	17.5235
2144.5	16.8113
2145	16.0948
2145.5	15.6752
2146	15.7394
2146.5	16.0338
2147	16.1282
2147.5	15.5753
2148	14.5782
2148.5	13.6201
2149	13.2059
2149.5	13.2012
2150	13.1045
2150.5	12.4829
2151	11.5091
2151.5	10.7919
2152	10.7821
2152.5	11.4482
2153	12.4057
2153.5	13.2917
2154	14.0251
2154.5	14.6279
2155	15.0413
2155.5	15.1402
2156	15.0675
2156.5	15.1391
2157	15.6583
2157.5	16.3518
2158	16.7024
2158.5	16.2221
2159	15.1352
2159.5	13.9786
2160	13.3052
2160.5	13.1553
2161	13.3516
2161.5	13.7272
2162	14.3625
2162.5	15.3186
2163	16.2162
2163.5	16.5098
2164	15.9256
2164.5	14.9985
2165	14.6503
2165.5	15.4527
2166	17.0667
2166.5	18.5231
2167	19.0704
2167.5	18.7152
2168	18.0961
2168.5	17.7366
2169	17.5766
2169.5	17.1077
2170	16.1426
2170.5	14.9881
2171	14.2798
2171.5	14.2329
2172	14.5484
2172.5	14.611
2173	14.1555
2173.5	13.3986
2174	12.7706
2174.5	12.5554
2175	12.7487
2175.5	13.2458
2176	13.9939
2176.5	14.8156
2177	15.4643
2177.5	15.6452
2178	15.4465
2178.5	15.1772
2179	15.2094
2179.5	15.5021
2180	15.6787
2180.5	15.3654
2181	14.614
2181.5	13.8738
2182	13.6128
2182.5	13.957
2183	14.6357
2183.5	15.21
2184	15.3348
2184.5	14.842
2185	13.7653
2185.5	12.2454
2186	10.7685
2186.5	9.79468
2187	9.66333
2187.5	10.0082
2188	10.248
2188.5	9.84252
2189	8.95165
2189.5	8.21971
2190	8.36456
2190.5	9.47197
2191	11.0945
2191.5	12.4431
2192	13.2004
2192.5	13.568
2193	13.9983
2193.5	14.6242
2194	15.089
2194.5	15.0222
2195	14.3703
2195.5	13.7744
2196	13.8464
2196.5	14.8681
2197	16.1632
2197.5	16.9239
2198	16.5781
2198.5	15.4396
2199	14.1433
2199.5	13.3225
2200	13.0668
2200.5	13.1858
2201	13.3753
2201.5	13.5856
2202	13.9043
2202.5	14.3319
2203	14.7549
2203.5	15.0194
2204	15.1447
2204.5	15.3148
2205	15.7659
2205.5	16.5508
2206	17.4778
2206.5	18.1076
2207	18.0578
2207.5	17.167
2208	15.772
2208.5	14.2816
2209	12.9498
2209.5	11.5844
2210	9.70903
2210.5	7.26853
2211	4.79947
2211.5	3.5161
2212	4.05247
2212.5	6.37348
2213	9.35526
2213.5	11.8095
2214	13.0838
2214.5	13.5178
2215	13.665
2215.5	13.8673
2216	14.0866
2216.5	14.2471
2217	14.4356
2217.5	14.7149
2218	14.8491
2218.5	14.2978
2219	12.8916
2219.5	11.0787
2220	10.0318
2220.5	10.5209
2221	12.6009
2221.5	15.0271
2222	16.7194
2222.5	17.231
2223	17.1599
2223.5	17.2285
2224	17.67
2224.5	18.0907
2225	17.878
2225.5	16.9993
2226	15.7767
2226.5	14.6563
2227	13.7514
2227.5	12.9929
2228	12.3892
2228.5	12.1106
2229	12.3129
2229.5	12.6263
2230	12.4182
2230.5	10.8933
2231	8.19031
2231.5	4.90104
2232	2.18968
2232.5	0.87171
2233	1.45361
2233.5	3.58066
2234	6.47214
2234.5	9.20304
2235	11.1262
2235.5	12.1487
2236	12.5967
2236.5	12.9779
2237	13.4343
2237.5	13.7167
2238	13.5462
2238.5	12.822
2239	11.872
2239.5	11.0159
2240	10.4348
2240.5	10.0222
2241	9.72885
2241.5	9.69533
2242	10.1093
2242.5	11.1039
2243	12.475
2243.5	13.8313
2244	14.6768
2244.5	14.7255
2245	13.9364
2245.5	12.553
2246	11.2389
2246.5	10.6064
2247	11.002
2247.5	12.0899
2248	13.2786
2248.5	13.9909
2249	14.1733
2249.5	14.1135
2250	14.1904
2250.5	14.4483
2251	14.6329
2251.5	14.5144
2252	14.053
2252.5	13.454
2253	12.9387
2253.5	12.6818
2254	12.7168
2254.5	12.9882
2255	13.3087
2255.5	13.3923
2256	13.0622
2256.5	12.4834
2257	12.1793
2257.5	12.7549
2258	14.3193
2258.5	16.3422
2259	17.8339
2259.5	18.0638
2260	16.9308
2260.5	15.0291
2261	13.404
2261.5	12.801
2262	13.354
2262.5	14.4936
2263	15.469
2263.5	15.7219
2264	15.2328
2264.5	14.2996
2265	13.3961
2265.5	12.6781
2266	12.0498
2266.5	11.4154
2267	10.9379
2267.5	11.0323
2268	11.9112
2268.5	13.4519
2269	14.8571
2269.5	15.3967
2270	14.5683
2270.5	12.9043
2271	11.1781
2271.5	10.2557
2272	10.3249
2272.5	11.2205
2273	12.396
2273.5	13.4973
2274	14.2577
2274.5	14.5498
2275	14.2433
2275.5	13.3899
2276	12.4823
2276.5	12.1632
2277	12.8489
2277.5	14.2397
2278	15.5719
2278.5	16.128
2279	15.8369
2279.5	15.122
2280	14.5366
2280.5	14.1666
2281	13.6882
2281.5	12.8994
2282	12.0063
2282.5	11.6291
2283	12.1036
2283.5	13.3312
2284	14.5239
2284.5	15.1035
2285	14.9037
2285.5	14.4222
2286	14.0865
2286.5	13.939
2287	13.6525
2287.5	12.9819
2288	12.3147
2288.5	12.3108
2289	13.603
2289.5	15.5519
2290	17.1192
2290.5	17.1921
2291	15.8904
2291.5	14.0329
2292	12.868
2292.5	12.8385
2293	13.7287
2293.5	14.657
2294	15.1148
2294.5	15.0057
2295	14.7458
2295.5	14.7253
2296	15.2008
2296.5	16.0828
2297	17.0723
2297.5	17.617
2298	17.3064
2298.5	15.8523
2299	13.7913
2299.5	11.8278
2300	10.8059
2300.5	10.9014
2301	11.9143
2301.5	13.095
2302	13.7926
2302.5	13.5717
2303	12.7335
2303.5	11.8627
2304	11.7036
2304.5	12.3595
2305	13.4901
2305.5	14.3651
2306	14.635
2306.5	14.4023
2307	14.186
2307.5	14.2202
2308	14.3127
2308.5	14.0549
2309	13.3758
2309.5	12.7661
2310	12.8177
2310.5	13.8078
2311	15.33
2311.5	16.657
2312	17.0527
2312.5	16.3285
2313	14.7466
2313.5	12.9232
2314	11.6032
2314.5	11.1918
2315	11.5685
2315.5	12.1096
2316	12.3149
2316.5	12.2099
2317	12.2123
2317.5	12.6687
2318	13.2331
2318.5	13.3505
2319	12.774
2319.5	12.1439
2320	12.2398
2320.5	13.3237
2321	14.7472
2321.5	15.6328
2322	15.6726
2322.5	15.2664
2323	15.0827
2323.5	15.3451
2324	15.846
2324.5	16.1637
2325	16.1405
2325.5	15.8959
2326	15.9798
2326.5	17.1332
2327	20.3188
2327.5	25.2832
2328	30.7651
2328.5	34.1997
2329	34.0456
2329.5	30.0839
2330	24.2059
2330.5	18.7751
2331	15.2553
2331.5	13.4846
2332	12.7307
2332.5	12.65
2333	13.1747
2333.5	14.2014
2334	15.0618
2334.5	15.0541
2335	13.9721
2335.5	12.5102
2336	11.4185
2336.5	11.1012
2337	11.3023
2337.5	11.7184
2338	12.1714
2338.5	12.5491
2339	12.6732
2339.5	12.3833
2340	11.8964
2340.5	11.6759
2341	12.0218
2341.5	12.6339
2342	12.7703
2342.5	12.0744
2343	10.9249
2343.5	10.2117
2344	10.3046
2344.5	10.9747
2345	11.5833
2345.5	11.896
2346	12.0675
2346.5	12.2799
2347	12.3715
2347.5	12.0186
2348	11.4433
2348.5	11.1657
2349	11.5541
2349.5	12.0857
2350	11.8772
2350.5	10.7406
2351	9.5912
2351.5	9.82145
2352	11.6788
2352.5	14.3439
2353	16.4046
2353.5	17.3342
2354	17.3781
2354.5	17.1068
2355	16.595
2355.5	15.4951
2356	13.8431
2356.5	12.2294
2357	11.564
2357.5	11.8914
2358	12.6845
2358.5	13.1869
2359	13.2104
2359.5	12.9572
2360	12.7439
2360.5	12.6223
2361	12.5645
2361.5	12.696
2362	13.2353
2362.5	14.2723
2363	15.3392
2363.5	15.8457
2364	15.3525
2364.5	14.146
2365	12.6947
2365.5	11.4285
2366	10.4453
2366.5	9.84502
2367	9.79463
2367.5	10.4925
2368	11.817
2368.5	13.0527
2369	13.4927
2369.5	12.9828
2370	12.1354
2370.5	11.6763
2371	11.6808
2371.5	11.6592
2372	11.1964
2372.5	10.767
2373	11.1732
2373.5	12.8869
2374	15.1702
2374.5	16.8603
2375	17.1396
2375.5	16.2597
2376	14.9487
2376.5	13.9477
2377	13.4528
2377.5	13.4452
2378	13.7724
2378.5	14.2947
2379	14.5906
2379.5	14.2718
2380	13.2176
2380.5	12.0753
2381	11.6277
2381.5	12.5472
2382	14.306
2382.5	15.9908
2383	16.4468
2383.5	15.4578
2384	13.493
2384.5	11.6419
2385	10.5529
2385.5	10.387
2386	10.6162
2386.5	10.8628
2387	11.0565
2387.5	11.3316
2388	11.6244
2388.5	11.5552
2389	10.9734
2389.5	10.2406
2390	10.2525
2390.5	11.3667
2391	13.1777
2391.5	14.454
2392	14.4333
2392.5	13.1921
2393	11.8305
2393.5	11.2907
2394	11.7821
2394.5	12.6357
2395	12.9688
2395.5	12.4269
2396	11.4109
2396.5	10.7453
2397	10.8152
2397.5	11.4017
2398	11.7257
2398.5	11.3397
2399	10.4147
2399.5	9.82668
2400	10.1196
2400.5	11.1938
2401	12.0298
2401.5	11.8657
2402	10.6732
2402.5	9.38161
2403	8.79765
2403.5	9.15964
2404	9.95043
2404.5	10.5291
2405	10.593
2405.5	10.3279
2406	10.1477
2406.5	10.2794
2407	10.6461
2407.5	10.9609
2408	11.1229
2408.5	11.2834
2409	11.7142
2409.5	12.4303
2410	13.1779
2410.5	13.6288
2411	13.7364
2411.5	13.6772
2412	13.5627
2412.5	13.1679
2413	12.2025
2413.5	10.9606
2414	10.2361
2414.5	10.722
2415	12.1922
2415.5	13.5616
2416	13.7014
2416.5	12.3948
2417	10.4746
2417.5	9.10795
2418	8.88301
2418.5	9.48457
2419	10.4064
2419.5	11.501
2420	12.8125
2420.5	14.2151
2421	15.187
2421.5	15.3644
2422	14.7822
2422.5	14.0297
2423	13.6512
2423.5	13.7739
2424	14.0265
2424.5	14.1619
2425	14.1748
2425.5	14.1457
2426	13.9183
2426.5	13.1229
2427	11.839
2427.5	10.5962
2428	10.2158
2428.5	10.7798
2429	11.5755
2429.5	11.5823
2430	10.6341
2430.5	9.47695
2431	9.19682
2431.5	10.1645
2432	11.7985
2432.5	13.1374
2433	13.6842
2433.5	13.6877
2434	13.5726
2434.5	13.3805
2435	12.8336
2435.5	11.8063
2436	10.5747
2436.5	9.71016
2437	9.60804
2437.5	10.2439
2438	11.1842
2438.5	11.9879
2439	12.4493
2439.5	12.6937
2440	13.0081
2440.5	13.5734
2441	14.3261
2441.5	14.9531
2442	15.2047
2442.5	15.0009
2443	14.5047
2443.5	13.8833
2444	13.1883
2444.5	12.4695
2445	11.8375
2445.5	11.4471
2446	11.244
2446.5	11.1085
2447	11.0255
2447.5	11.1854
2448	11.7805
2448.5	12.4799
2449	12.6788
2449.5	11.8735
2450	10.5761
2450.5	9.63224
2451	9.83167
2451.5	10.8593
2452	11.989
2452.5	12.5385
2453	12.6324
2453.5	12.8276
2454	13.4666
2454.5	14.3577
2455	14.9935
2455.5	15.1346
2456	14.8957
2456.5	14.6867
2457	14.758
2457.5	15.0389
2458	15.0887
2458.5	14.6163
2459	13.5933
2459.5	12.4978
2460	11.7675
2460.5	11.7196
2461	12.2164
2461.5	13.0939
2462	14.0528
2462.5	14.6661
2463	14.3373
2463.5	12.8786
2464	10.765
2464.5	9.11511
2465	8.8149
2465.5	10.0587
2466	12.3835
2466.5	15.1349
2467	18.1005
2467.5	21.0012
2468	23.1882
2468.5	23.5448
2469	21.8578
2469.5	18.856
2470	16.088
2470.5	14.6473
2471	14.6413
2471.5	15.0603
2472	14.9211
2472.5	13.8472
2473	12.3916
2473.5	11.3255
2474	11.3058
2474.5	11.9901
2475	12.6286
2475.5	12.3021
2476	11.1485
2476.5	9.88574
2477	9.45532
2477.5	10.0743
2478	11.546
2478.5	13.2957
2479	14.9512
2479.5	15.9955
2480	15.9651
2480.5	14.6386
2481	12.547
2481.5	10.7908
2482	10.2414
2482.5	10.777
2483	11.5995
2483.5	11.9288
2484	11.7607
2484.5	11.5618
2485	11.8074
2485.5	12.4423
2486	13.1854
2486.5	13.6356
2487	13.6352
2487.5	13.2439
2488	12.9003
2488.5	12.9615
2489	13.3978
2489.5	13.5448
2490	12.8042
2490.5	11.1028
2491	9.26611
2491.5	8.22997
2492	8.42008
2492.5	9.42955
2493	10.5812
2493.5	11.3827
2494	11.7171
2494.5	11.6043
2495	11.3107
2495.5	11.1599
2496	11.5083
2496.5	12.2785
2497	12.9811
2497.5	13.0328
2498	12.3861
2498.5	11.5249
2499	11.2315
2499.5	11.8821
2500	13.2594
2500.5	14.469
2501	14.6102
2501.5	13.2537
2502	10.8406
2502.5	8.29728
2503	6.74304
2503.5	6.61804
2504	7.767
2504.5	9.18224
2505	10.2224
2505.5	10.8202
2506	11.4367
2506.5	12.4655
2507	13.7366
2507.5	14.6285
2508	14.2982
2508.5	12.7829
2509	10.8692
2509.5	9.88933
2510	10.4241
2510.5	12.263
2511	14.1791
2511.5	15.1062
2512	14.5142
2512.5	13.0867
2513	11.7293
2513.5	11.1836
2514	11.355
2514.5	11.8604
2515	12.1447
2515.5	12.0258
2516	11.6876
2516.5	11.6157
2517	11.9645
2517.5	12.4519
2518	12.4685
2518.5	11.7389
2519	10.5313
2519.5	9.61462
2520	9.51442
2520.5	10.0535
2521	10.6084
2521.5	10.714
2522	10.4903
2522.5	10.3986
2523	10.9277
2523.5	11.8801
2524	12.6442
2524.5	12.4695
2525	11.4297
2525.5	10.1486
2526	9.61429
2526.5	10.0935
2527	11.1287
2527.5	11.6449
2528	11.2249
2528.5	10.1608
2529	9.28583
2529.5	9.10868
2530	9.75039
2530.5	10.9307
2531	12.3219
2531.5	13.3426
2532	13.562
2532.5	12.7951
2533	11.7288
2533.5	11.0598
2534	11.0913
2534.5	11.2045
2535	10.7078
2535.5	9.603
2536	8.55006
2536.5	8.22453
2537	8.6745
2537.5	9.58655
2538	10.6151
2538.5	11.4417
2539	11.7775
2539.5	11.4755
2540	10.987
2540.5	11.0228
2541	11.8437
2541.5	12.7746
2542	12.6575
2542.5	11.6173
2543	10.7367
2543.5	11.2931
2544	12.7953
2544.5	13.7962
2545	12.9412
2545.5	10.8629
2546	9.35246
2546.5	9.63286
2547	11.2588
2547.5	12.7752
2548	13.0555
2548.5	12.0569
2549	10.6621
2549.5	9.78018
2550	9.73167
2550.5	10.1837
2551	10.6086
2551.5	10.6108
2552	10.2946
2552.5	10.0071
2553	10.041
2553.5	10.2167
2554	10.2627
2554.5	10.1544
2555	10.2668
2555.5	11.0468
2556	12.3924
2556.5	13.751
2557	14.5688
2557.5	14.9563
2558	15.4236
2558.5	16.7332
2559	19.0823
2559.5	22.1466
2560	24.8032
2560.5	26.018
2561	24.9014
2561.5	21.9175
2562	18.1619
2562.5	15.1284
2563	13.3627
2563.5	12.5839
2564	12.0219
2564.5	11.2245
2565	10.2337
2565.5	9.38562
2566	8.80696
2566.5	8.38797
2567	7.98695
2567.5	7.68144
2568	7.73408
2568.5	8.22964
2569	9.10476
2569.5	10.0857
2570	10.9368
2570.5	11.4408
2571	11.4022
2571.5	10.7022
2572	9.33798
2572.5	7.88379
2573	6.99027
2573.5	7.24033
2574	8.54074
2574.5	10.5891
2575	12.7155
2575.5	14.2834
2576	14.5539
2576.5	13.5045
2577	11.6016
2577.5	9.89092
2578	9.23478
2578.5	9.88651
2579	11.3262
2579.5	12.7797
2580	13.8215
2580.5	14.2632
2581	13.938
2581.5	12.5818
2582	10.6793
2582.5	9.11875
2583	8.91258
2583.5	9.94586
2584	11.5039
2584.5	12.4813
2585	12.4777
2585.5	11.6854
2586	10.9825
2586.5	10.9431
2587	11.901
2587.5	13.3527
2588	14.5706
2588.5	14.6558
2589	13.6317
2589.5	11.9673
2590	10.3942
2590.5	9.16166
2591	8.22894
2591.5	7.56983
2592	7.45502
2592.5	8.20186
2593	9.5084
2593.5	10.8629
2594	11.75
2594.5	12.1227
2595	12.0727
2595.5	11.6614
2596	10.8282
2596.5	9.64598
2597	8.63838
2597.5	8.34741
2598	9.02723
2598.5	10.1134
2599	10.952
2599.5	11.1928
2600	11.1251
2600.5	11.2946
2601	11.7973
2601.5	12.1326
2602	11.6742
2602.5	10.74
2603	10.1875
2603.5	10.8275
2604	12.2022
2604.5	13.088
2605	12.6751
2605.5	11.2901
2606	9.83725
2606.5	8.95382
2607	8.66611
2607.5	8.84444
2608	9.51392
2608.5	10.682
2609	11.8125
2609.5	12.3085
2610	11.9686
2610.5	11.5775
2611	11.6784
2611.5	12.2499
2612	12.6818
2612.5	12.6611
2613	12.3971
2613.5	12.1943
2614	11.9779
2614.5	11.4894
2615	10.7816
2615.5	10.2605
2616	10.2139
2616.5	10.4795
2617	10.6184
2617.5	10.3829
2618	9.76304
2618.5	8.97793
2619	8.32266
2619.5	8.15402
2620	8.63761
2620.5	9.61883
2621	10.6248
2621.5	11.2082
2622	11.3991
2622.5	11.6924
2623	12.4107
2623.5	13.4239
2624	14.0342
2624.5	13.6688
2625	12.2256
2625.5	10.5489
2626	9.45954
2626.5	9.52922
2627	10.2529
2627.5	10.8218
2628	10.6597
2628.5	10.08
2629	9.70235
2629.5	9.81896
2630	10.1111
2630.5	10.0568
2631	9.77604
2631.5	9.73805
2632	10.3265
2632.5	11.2018
2633	11.7558
2633.5	11.6784
2634	11.2507
2634.5	10.8003
2635	10.3387
2635.5	9.66132
2636	8.75998
2636.5	8.15652
2637	8.34481
2637.5	9.37235
2638	10.6795
2638.5	11.7385
2639	12.5272
2639.5	13.3145
2640	13.9858
2640.5	13.8307
2641	12.2399
2641.5	9.50633
2642	7.29382
2642.5	6.85371
2643	7.95134
2643.5	9.11413
2644	9.06523
2644.5	8.34452
2645	8.18583
2645.5	9.15523
2646	10.0344
2646.5	9.61238
2647	8.02068
2647.5	7.07992
2648	8.12223
2648.5	10.5078
2649	12.5959
2649.5	13.0975
2650	12.7696
2650.5	12.7213
2651	13.3429
2651.5	13.8295
2652	13.3972
2652.5	12.1004
2653	10.7922
2653.5	10.1661
2654	10.3406
2654.5	11.1363
2655	12.4163
2655.5	13.8335
2656	15.0328
2656.5	15.5852
2657	15.4049
2657.5	14.4832
2658	13.031
2658.5	11.3753
2659	9.98421
2659.5	9.2528
2660	9.15533
2660.5	9.1443
2661	8.77178
2661.5	8.31957
2662	8.72629
2662.5	10.3393
2663	12.573
2663.5	13.8995
2664	13.7119
2664.5	12.3012
2665	10.794
2665.5	9.64402
2666	8.67637
2666.5	7.81758
2667	7.58994
2667.5	8.56763
2668	10.3626
2668.5	11.7809
2669	12.0216
2669.5	11.4698
2670	11.2325
2670.5	11.7945
2671	12.6588
2671.5	12.8298
2672	12.2675
2672.5	11.5994
2673	11.5495
2673.5	12.0121
2674	12.2437
2674.5	11.7779
2675	10.8025
2675.5	10.0139
2676	9.8706
2676.5	10.1725
2677	10.1254
2677.5	9.23843
2678	7.61258
2678.5	6.3865
2679	6.53643
2679.5	8.48672
2680	11.0931
2680.5	13.1302
2681	13.5442
2681.5	12.7201
2682	11.4844
2682.5	10.7173
2683	10.6639
2683.5	11.2365
2684	11.9958
2684.5	12.6809
2685	13.0733
2685.5	13.0289
2686	12.3323
2686.5	10.9939
2687	9.49975
2687.5	8.60301
2688	8.89727
2688.5	10.2728
2689	11.8518
2689.5	12.5521
2690	11.9835
2690.5	10.5892
2691	9.51087
2691.5	9.67106
2692	11.0793
2692.5	12.8535
2693	13.667
2693.5	12.6488
2694	10.2049
2694.5	7.92574
2695	7.28708
2695.5	8.65178
2696	10.7313
2696.5	11.8368
2697	11.4625
2697.5	10.8473
2698	11.2633
2698.5	13.0666
2699	14.6919
2699.5	14.9524
2700	13.6774
2700.5	12.0347
2701	10.886
2701.5	10.2028
2702	9.60517
2702.5	9.20826
2703	9.51802
2703.5	10.5994
2704	11.6347
2704.5	11.6916
2705	10.4864
2705.5	8.56475
2706	6.90536
2706.5	6.23707
2707	6.78568
2707.5	8.23543
2708	9.93381
2708.5	11.0947
2709	11.5886
2709.5	11.737
2710	11.7588
2710.5	11.2141
2711	9.57043
2711.5	7.40567
2712	6.0498
2712.5	6.45127
2713	8.12244
2713.5	9.58645
2714	10.137
2714.5	10.1562
2715	10.4355
2715.5	10.9807
2716	11.1259
2716.5	10.8145
2717	10.3159
2717.5	9.79517
2718	9.2238
2718.5	8.74439
2719	8.75615
2719.5	9.41437
2720	10.338
2720.5	11.0255
2721	11.406
2721.5	11.7827
2722	12.2307
2722.5	12.3233
2723	11.7074
2723.5	10.551
2724	9.50759
2724.5	9.08376
2725	9.3291
2725.5	9.86167
2726	10.3027
2726.5	10.5091
2727	10.4568
2727.5	10.0941
2728	9.42075
2728.5	8.63398
2729	8.10394
2729.5	8.10501
2730	8.68204
2730.5	9.59118
2731	10.3247
2731.5	10.4263
2732	9.71604
2732.5	8.46507
2733	7.45972
2733.5	7.44107
2734	8.56015
2734.5	10.2716
2735	11.5808
2735.5	11.8594
2736	11.3642
2736.5	10.8547
2737	11.0288
2737.5	11.9317
2738	12.8414
2738.5	13.0395
2739	12.2609
2739.5	10.8959
2740	9.82207
2740.5	9.61282
2741	10.2202
2741.5	10.9796
2742	10.9757
2742.5	9.99762
2743	8.64802
2743.5	7.90304
2744	8.42422
2744.5	9.81246
2745	11.1231
2745.5	11.7146
2746	11.5763
2746.5	11.1396
2747	10.7021
2747.5	10.2451
2748	9.76769
2748.5	9.49908
2749	9.66375
2749.5	10.0429
2750	10.1439
2750.5	9.65997
2751	8.87599
2751.5	8.50687
2752	8.91737
2752.5	9.86767
2753	10.7111
2753.5	10.8983
2754	10.4911
2754.5	9.91082
2755	9.56962
2755.5	9.56208
2756	9.5813
2756.5	9.36236
2757	9.05504
2757.5	9.18398
2758	10.1668
2758.5	11.4991
2759	12.0563
2759.5	10.9778
2760	8.45792
2760.5	5.92583
2761	4.85247
2761.5	5.62732
2762	7.58367
2762.5	9.52149
2763	10.4488
2763.5	10.1202
2764	8.90543
2764.5	7.68464
2765	7.57133
2765.5	8.92557
2766	10.9
2766.5	12.0834
2767	11.6056
2767.5	10.0809
2768	9.25955
2768.5	10.1049
2769	12.1618
2769.5	14.0263
2770	14.5891
2770.5	14.1165
2771	13.3742
2771.5	12.7703
2772	12.0292
2772.5	10.6903
2773	8.97622
2773.5	7.72634
2774	7.83424
2774.5	9.58194
2775	12.0284
2775.5	13.7572
2776	13.8706
2776.5	12.5308
2777	10.8951
2777.5	10.1104
2778	10.2249
2778.5	10.5206
2779	10.3783
2779.5	10.019
2780	10.193
2780.5	10.9638
2781	11.4681
2781.5	10.666
2782	8.56222
2782.5	6.70542
2783	6.52231
2783.5	8.12755
2784	10.1891
2784.5	11.0195
2785	10.4384
2785.5	9.57173
2786	9.60908
2786.5	10.7467
2787	12.0877
2787.5	12.8532
2788	13.1763
2788.5	13.5985
2789	14.211
2789.5	14.3089
2790	13.3624
2790.5	11.8022
2791	10.6736
2791.5	10.6094
2792	10.9797
2792.5	10.5306
2793	8.88261
2793.5	6.91905
2794	6.13619
2794.5	7.37517
2795	9.866
2795.5	12.2377
2796	13.4447
2796.5	13.2933
2797	12.3629
2797.5	11.4343
2798	10.9017
2798.5	10.8289
2799	11.1109
2799.5	11.5823
2800	11.9938
2800.5	12.0789
2801	11.7026
2801.5	11.008
2802	10.3282
2802.5	9.77957
2803	9.15043
2803.5	8.32194
2804	7.69016
2804.5	8.10578
2805	9.82877
2805.5	12.0463
2806	13.4969
2806.5	13.4622
2807	12.3036
2807.5	11.0831
2808	10.4386
2808.5	10.4822
2809	11.1196
2809.5	12.148
2810	12.9437
2810.5	12.7088
2811	11.2475
2811.5	9.41772
2812	8.65994
2812.5	9.62681
2813	11.3709
2813.5	12.6311
2814	12.8857
2814.5	12.5524
2815	12.2697
2815.5	12.0892
2816	11.7589
2816.5	11.2654
2817	10.8947
2817.5	10.8845
2818	11.102
2818.5	11.3369
2819	11.5434
2819.5	11.7776
2820	11.999
2820.5	12.0237
2821	11.726
2821.5	11.1338
2822	10.4226
2822.5	9.89843
2823	9.9522
2823.5	10.7256
2824	11.9305
2824.5	12.9361
2825	13.1544
2825.5	12.3764
2826	10.8944
2826.5	9.04142
2827	7.12495
2827.5	5.59277
2828	5.09453
2828.5	6.06003
2829	8.17065
2829.5	10.646
2830	12.7053
2830.5	13.9196
2831	14.1493
2831.5	13.4059
2832	11.7882
2832.5	9.71216
2833	7.89562
2833.5	6.9997
2834	7.05252
2834.5	7.49761
2835	7.82861
2835.5	7.99227
2836	8.37375
2836.5	9.37349
2837	10.8535
2837.5	12.2914
2838	13.1812
2838.5	13.3481
2839	12.9804
2839.5	12.4622
2840	12.0773
2840.5	11.8806
2841	11.6585
2841.5	10.9948
2842	9.5575
2842.5	7.66286
2843	6.10955
2843.5	5.55593
2844	5.93909
2844.5	6.5346
2845	6.77401
2845.5	6.97855
2846	7.74252
2846.5	9.02895
2847	9.97668
2847.5	9.69417
2848	8.5428
2848.5	7.782
2849	8.25264
2849.5	9.57949
2850	10.5155
2850.5	10.0153
2851	8.44647
2851.5	6.99027
2852	6.72412
2852.5	7.83278
2853	9.40685
2853.5	10.0273
2854	9.22538
2854.5	7.92603
2855	7.71452
2855.5	9.40464
2856	12.0309
2856.5	13.416
2857	12.4932
2857.5	10.1535
2858	8.3329
2858.5	8.27069
2859	9.45694
2859.5	10.2545
2860	9.87847
2860.5	8.91868
2861	8.57352
2861.5	9.46784
2862	11.0699
2862.5	12.279
2863	12.6061
2863.5	12.3202
2864	11.8793
2864.5	11.2957
2865	10.1276
2865.5	8.3111
2866	6.51892
2866.5	5.63178
2867	5.92107
2867.5	6.78508
2868	7.36257
2868.5	7.50377
2869	7.69433
2869.5	8.34414
2870	9.36708
2870.5	10.3684
2871	11.078
2871.5	11.4734
2872	11.5194
2872.5	11.1903
2873	10.6747
2873.5	10.3529
2874	10.4232
2874.5	10.6487
2875	10.847
2875.5	11.2281
2876	12.0836
2876.5	13.1169
2877	13.3058
2877.5	12.1167
2878	10.2821
2878.5	9.16409
2879	9.40586
2879.5	10.2796
2880	10.4597
2880.5	9.6809
2881	8.83182
2881.5	8.81826
2882	9.72675
2882.5	10.9725
2883	11.9923
2883.5	12.5879
2884	12.599
2884.5	11.8506
2885	10.5664
2885.5	9.53848
2886	9.56786
2886.5	10.3876
2887	10.8698
2887.5	10.2964
2888	9.13132
2888.5	8.56512
2889	9.23687
2889.5	10.3549
2890	10.6077
2890.5	9.59227
2891	8.0087
2891.5	6.84027
2892	6.50563
2892.5	6.88452
2893	7.9027
2893.5	9.62809
2894	11.6217
2894.5	12.7793
2895	12.1686
2895.5	10.1401
2896	8.38633
2896.5	8.11758
2897	9.01523
2897.5	9.75697
2898	9.36669
2898.5	8.01722
2899	6.6694
2899.5	6.06258
2900	6.39736
2900.5	7.50052
2901	8.82917
2901.5	9.50502
2902	8.80224
2902.5	7.18898
2903	6.08891
2903.5	6.59284
2904	8.40542
2904.5	10.0865
2905	10.4168
2905.5	9.62867
2906	9.12177
2906.5	9.88769
2907	11.7594
2907.5	13.607
2908	14.1669
2908.5	12.8551
2909	10.3289
2909.5	7.92624
2910	6.68026
2910.5	6.69564
2911	7.24688
2911.5	7.52052
2912	7.3115
2912.5	7.05733
2913	7.19726
2913.5	7.87182
2914	8.95776
2914.5	10.1442
2915	10.9478
2915.5	10.8934
2916	10.049
2916.5	9.02343
2917	8.49726
2917.5	8.64678
2918	9.06447
2918.5	9.23002
2919	9.04795
2919.5	8.84672
2920	8.96027
2920.5	9.48752
2921	10.2387
2921.5	10.8157
2922	10.8171
2922.5	10.2237
2923	9.46316
2923.5	8.95356
2924	8.72011
2924.5	8.51175
2925	8.29996
2925.5	8.49429
2926	9.33923
2926.5	10.3177
2927	10.5988
2927.5	9.95389
2928	9.1079
2928.5	9.05254
2929	10.0159
2929.5	11.1309
2930	11.4452
2930.5	10.7301
2931	9.45639
2931.5	8.27839
2932	7.58901
2932.5	7.4182
2933	7.50292
2933.5	7.49972
2934	7.22013
2934.5	6.77808
2935	6.51075
2935.5	6.67015
2936	7.15984
2936.5	7.59066
2937	7.68769
2937.5	7.51786
2938	7.37671
2938.5	7.51787
2939	7.94844
2939.5	8.42723
2940	8.66063
2940.5	8.6004
2941	8.46052
2941.5	8.46426
2942	8.5596
2942.5	8.42382
2943	7.82354
2943.5	6.99846
2944	6.57075
2944.5	6.93416
2945	7.959
2945.5	9.2018
2946	10.3025
2946.5	11.1134
2947	11.5085
2947.5	11.3017
2948	10.5463
2948.5	9.66347
2949	9.13792
2949.5	9.03191
2950	8.92545
2950.5	8.43351
2951	7.76198
2951.5	7.57068
2952	8.19158
2952.5	9.31426
2953	10.3348
2953.5	10.9173
2954	11.1794
2954.5	11.4029
2955	11.6525
2955.5	11.7071
2956	11.2836
2956.5	10.2357
2957	8.68858
2957.5	7.08151
2958	6.01225
2958.5	5.8755
2959	6.45708
2959.5	7.13901
2960	7.48975
2960.5	7.54262
2961	7.53509
2961.5	7.45769
2962	7.00899
2962.5	6.08035
2963	5.22207
2963.5	5.18223
2964	6.18308
2964.5	7.75415
2965	9.27157
2965.5	10.5108
2966	11.5188
2966.5	12.003
2967	11.3807
2967.5	9.66173
2968	7.89235
2968.5	7.3377
2969	8.14104
2969.5	9.03113
2970	8.60642
2970.5	6.87754
2971	5.28289
2971.5	4.80007
2972	5.04434
2972.5	5.05066
2973	4.57405
2973.5	4.30555
2974	4.85623
2974.5	5.87154
2975	6.46045
2975.5	6.41282
2976	6.37682
2976.5	7.06493
2977	8.50111
2977.5	10.0395
2978	10.9512
2978.5	10.906
2979	10.0792
2979.5	8.94186
2980	7.98656
2980.5	7.58297
2981	7.88242
2981.5	8.80969
2982	10.0855
2982.5	11.2404
2983	11.7319
2983.5	11.3856
2984	10.6135
2984.5	10.0956
2985	10.111
2985.5	10.235
2986	9.83528
2986.5	8.86278
2987	7.99485
2987.5	7.8114
2988	8.0026
2988.5	7.77693
2989	6.75695
2989.5	5.34616
2990	4.26025
2990.5	3.89274
2991	4.21207
2991.5	5.07608
2992	6.2923
2992.5	7.46106
2993	8.06245
2993.5	7.88506
2994	7.20802
2994.5	6.41576
2995	5.55572
2995.5	4.52327
2996	3.70789
2996.5	3.94202
2997	5.49691
2997.5	7.54025
2998	8.86499
2998.5	9.10137
2999	8.96258
2999.5	9.23162
3000	9.77937
3000.5	9.84875
3001	9.28051
3001.5	8.68999
3002	8.56348
3002.5	8.66002
3003	8.48746
3003.5	8.09784
3004	8.04079
3004.5	8.52659
3005	8.98263
3005.5	8.80426
3006	8.21197
3006.5	7.93946
3007	8.28491
3007.5	8.7205
3008	8.50093
3008.5	7.51261
3009	6.4211
3009.5	6.08079
3010	6.82513
3010.5	8.36473
3011	10.1285
3011.5	11.5395
3012	12.2047
3012.5	12.0362
3013	11.2554
3013.5	10.2378
3014	9.31246
3014.5	8.67835
3015	8.41059
3015.5	8.4599
3016	8.57813
3016.5	8.37192
3017	7.57777
3017.5	6.3603
3018	5.30921
3018.5	5.04461
3019	5.73858
3019.5	6.95575
3020	8.06047
3020.5	8.72643
3021	9.01204
3021.5	9.10218
3022	9.0483
3022.5	8.77012
3023	8.2311
3023.5	7.52813
3024	6.81365
3024.5	6.19613
3025	5.72704
3025.5	5.40984
3026	5.1777
3026.5	4.96628
3027	4.87595
3027.5	5.15924
3028	5.87433
3028.5	6.55743
3029	6.4863
3029.5	5.55064
3030	4.68044
3030.5	4.94206
3031	6.42507
3031.5	8.15413
3032	9.17175
3032.5	9.47684
3033	9.69238
3033.5	9.99769
3034	9.86127
3034.5	9.03392
3035	8.39524
3035.5	8.96642
3036	10.5092
3036.5	11.4983
3037	10.6482
3037.5	8.27345
3038	5.98683
3038.5	5.18224
3039	5.98322
3039.5	7.52702
3040	8.85299
3040.5	9.38459
3041	8.82479
3041.5	7.22184
3042	5.23096
3042.5	3.98
3043	4.32859
3043.5	6.1143
3044	8.17037
3044.5	9.20807
3045	8.81266
3045.5	7.71906
3046	7.01629
3046.5	7.14247
3047	7.69382
3047.5	7.99938
3048	7.83225
3048.5	7.56749
3049	7.72452
3049.5	8.40862
3050	9.14435
3050.5	9.16727
3051	7.96468
3051.5	5.84881
3052	3.90512
3052.5	3.31345
3053	4.37106
3053.5	6.15092
3054	7.3123
3054.5	7.34792
3055	6.93846
3055.5	7.02457
3056	7.6996
3056.5	8.20077
3057	7.93371
3057.5	7.16417
3058	6.56068
3058.5	6.51652
3059	6.98956
3059.5	7.72833
3060	8.41129
3060.5	8.71821
3061	8.60276
3061.5	8.52921
3062	9.11111
3062.5	10.2866
3063	11.0561
3063.5	10.5314
3064	8.98551
3064.5	7.60717
3065	7.25972
3065.5	7.73049
3066	8.27335
3066.5	8.59414
3067	8.98753
3067.5	9.59458
3068	9.94941
3068.5	9.51358
3069	8.46987
3069.5	7.59149
3070	7.25267
3070.5	7.07663
3071	6.55265
3071.5	5.74807
3072	5.16497
3072.5	5.02495
3073	4.9956
3073.5	4.71827
3074	4.38968
3074.5	4.58661
3075	5.55127
3075.5	6.83455
3076	7.76983
3076.5	8.08869
3077	7.96407
3077.5	7.69999
3078	7.53257
3078.5	7.63688
3079	8.08506
3079.5	8.68855
3080	8.99538
3080.5	8.62069
3081	7.65656
3081.5	6.71749
3082	6.49777
3082.5	7.09416
3083	7.86012
3083.5	7.92746
3084	7.02127
3084.5	5.81811
3085	5.38147
3085.5	6.13135
3086	7.41874
3086.5	8.22119
3087	8.21609
3087.5	8.02043
3088	8.37619
3088.5	9.31044
3089	10.2015
3089.5	10.4932
3090	10.0318
3090.5	8.86615
3091	7.19796
3091.5	5.58035
3092	4.76461
3092.5	5.0008
3093	5.60575
3093.5	5.58051
3094	4.75754
3094.5	4.09965
3095	4.66654
3095.5	6.38225
3096	8.00351
3096.5	8.30656
3097	7.23245
3097.5	5.69266
3098	4.65674
3098.5	4.43078
3099	4.62762
3099.5	4.67937
3100	4.41895
3100.5	4.26152
3101	4.80256
3101.5	6.16635
3102	7.76947
3102.5	8.81313
3103	9.01204
3103.5	8.75225
3104	8.53123
3104.5	8.38735
3105	8.05565
3105.5	7.50964
3106	7.07798
3106.5	6.99664
3107	7.03873
3107.5	6.77825
3108	6.20554
3108.5	5.86241
3109	6.23653
3109.5	7.09209
3110	7.58559
3110.5	7.13131
3111	6.05444
3111.5	5.25554
3112	5.2605
3112.5	5.73319
3113	6.03176
3113.5	5.98687
3114	5.92651
3114.5	6.10881
3115	6.3916
3115.5	6.53939
3116	6.66303
3116.5	7.13543
3117	8.06489
3117.5	9.01908
3118	9.39685
3118.5	9.0448
3119	8.40931
3119.5	8.06078
3120	8.15907
3120.5	8.46973
3121	8.83043
3121.5	9.36417
3122	10.0831
3122.5	10.5108
3123	10.0273
3123.5	8.66195
3124	7.30288
3124.5	6.89351
3125	7.48448
3125.5	8.26843
3126	8.51796
3126.5	8.25419
3127	7.9292
3127.5	7.7143
3128	7.35902
3128.5	6.66549
3129	5.82671
3129.5	5.22171
3130	5.04123
3130.5	5.21346
3131	5.60028
3131.5	6.19495
3132	7.12996
3132.5	8.48803
3133	10.0075
3133.5	11.0334
3134	11.0191
3134.5	10.2066
3135	9.61052
3135.5	10.0601
3136	11.2678
3136.5	12.03
3137	11.3789
3137.5	9.43162
3138	7.17274
3138.5	5.63982
3139	5.35004
3139.5	6.18239
3140	7.50382
3140.5	8.49781
3141	8.68459
3141.5	8.30208
3142	7.99828
3142.5	8.19927
3143	8.74465
3143.5	9.09543
3144	8.88821
3144.5	8.38606
3145	8.38561
3145.5	9.44927
3146	11.1048
3146.5	12.0344
3147	11.3885
3147.5	9.81894
3148	8.83683
3148.5	9.12414
3149	9.88296
3149.5	9.98423
3150	9.30248
3150.5	8.55948
3151	8.21217
3151.5	8.04315
3152	7.71027
3152.5	7.12141
3153	6.25604
3153.5	5.22034
3154	4.61906
3154.5	5.23728
3155	6.99178
3155.5	8.66772
3156	9.16964
3156.5	8.73219
3157	8.38836
3157.5	8.47686
3158	8.34288
3158.5	7.5258
3159	6.52825
3159.5	6.06344
3160	6.07689
3160.5	6.07264
3161	6.1414
3161.5	7.00744
3162	8.94335
3162.5	11.0847
3163	12.0903
3163.5	11.3358
3164	9.3703
3164.5	7.40589
3165	6.49352
3165.5	6.96435
3166	8.34972
3166.5	9.77217
3167	10.5767
3167.5	10.6946
3168	10.524
3168.5	10.5681
3169	11.096
3169.5	11.93
3170	12.488
3170.5	12.204
3171	11.0621
3171.5	9.65439
3172	8.61618
3172.5	8.05208
3173	7.58489
3173.5	6.89836
3174	6.15658
3174.5	5.94079
3175	6.76516
3175.5	8.4426
3176	9.81803
3176.5	9.44631
3177	6.98384
3177.5	3.91409
3178	2.48898
3178.5	3.71338
3179	6.48373
3179.5	8.74314
3180	9.27538
3180.5	8.38565
3181	7.28549
3181.5	7.11721
3182	8.21141
3182.5	9.82494
3183	10.6653
3183.5	10.1095
3184	8.9528
3184.5	8.50269
3185	9.05918
3185.5	9.71201
3186	9.71359
3186.5	9.52613
3187	10.1158
3187.5	11.5026
3188	12.544
3188.5	12.2404
3189	10.9308
3189.5	9.96481
3190	10.2364
3190.5	11.1889
3191	11.4006
3191.5	10.2085
3192	8.5985
3192.5	8.19269
3193	9.31987
3193.5	10.4916
3194	10.1143
3194.5	8.45065
3195	7.37059
3195.5	8.16839
3196	10.124
3196.5	11.4125
3197	11.0418
3197.5	9.61035
3198	8.4751
3198.5	8.55033
3199	9.70572
3199.5	10.8797
3200	10.8372
3200.5	9.28627
3201	7.35467
3201.5	6.58432
3202	7.30209
3202.5	8.35297
3203	8.65173
3203.5	8.54517
3204	9.14658
3204.5	10.6202
3205	11.88
3205.5	12.1034
3206	11.8092
3206.5	11.9116
3207	12.1883
3207.5	11.5197
3208	9.65152
3208.5	7.88805
3209	7.55093
3209.5	8.27436
3210	8.55924
3210.5	7.87118
3211	7.37877
3211.5	8.28275
3212	10.0332
3212.5	10.8121
3213	9.57244
3213.5	7.12737
3214	5.27895
3214.5	5.29402
3215	7.21264
3215.5	10.0845
3216	12.529
3216.5	13.3754
3217	12.3136
3217.5	10.1709
3218	8.48264
3218.5	8.55694
3219	10.5743
3219.5	13.3082
3220	14.7881
3220.5	13.757
3221	10.8163
3221.5	7.99983
3222	7.01198
3222.5	7.92571
3223	9.56022
3223.5	10.7373
3224	10.9499
3224.5	10.2753
3225	9.2565
3225.5	8.76215
3226	9.32874
3226.5	10.4612
3227	11.0037
3227.5	10.4025
3228	9.29835
3228.5	8.75733
3229	9.30546
3229.5	10.8543
3230	12.9964
3230.5	14.8938
3231	15.3392
3231.5	13.7452
3232	11.1003
3232.5	9.28393
3233	9.17798
3233.5	9.86339
3234	9.89827
3234.5	8.97477
3235	7.97353
3235.5	7.70832
3236	8.10093
3236.5	8.51394
3237	8.47126
3237.5	7.99085
3238	7.5462
3238.5	7.82917
3239	9.2471
3239.5	11.375
3240	13.0272
3240.5	13.1759
3241	11.9013
3241.5	10.3288
3242	9.57887
3242.5	9.85256
3243	10.5554
3243.5	11.1301
3244	11.5531
3244.5	12.0404
3245	12.5253
3245.5	12.6133
3246	11.978
3246.5	10.6558
3247	9.01566
3247.5	7.62146
3248	7.07649
3248.5	7.67822
3249	9.02841
3249.5	10.1863
3250	10.5163
3250.5	10.3545
3251	10.5428
3251.5	11.2352
3252	11.507
3252.5	10.4636
3253	8.57379
3253.5	7.43344
3254	8.01508
3254.5	9.46673
3255	10.0287
3255.5	9.11078
3256	8.05332
3256.5	8.61353
3257	10.9564
3257.5	13.3782
3258	14.0178
3258.5	12.6208
3259	10.6057
3259.5	9.59733
3260	10.0171
3260.5	11.0082
3261	11.5042
3261.5	11.2029
3262	10.5594
3262.5	10.1131
3263	10.0394
3263.5	10.2324
3264	10.5211
3264.5	10.7709
3265	11.0401
3265.5	11.6921
3266	13.0056
3266.5	14.4834
3267	14.9393
3267.5	13.713
3268	11.615
3268.5	10.1841
3269	10.0639
3269.5	10.5988
3270	11.0235
3270.5	11.3966
3271	12.0237
3271.5	12.4977
3272	11.9402
3272.5	10.0703
3273	7.52749
3273.5	5.09585
3274	3.02345
3274.5	1.26834
3275	0.08734
3275.5	0
3276	1.10432
3276.5	2.63231
3277	3.47271
3277.5	3.31025
3278	3.11905
3278.5	4.20527
3279	6.68915
3279.5	9.2404
3280	10.4931
3280.5	10.4223
3281	10.0312
3281.5	9.97445
3282	10.0149
3282.5	9.78991
3283	9.53802
3283.5	9.78706
3284	10.6459
3284.5	11.7247
3285	12.6069
3285.5	13.0815
3286	12.9451
3286.5	11.9607
3287	10.2804
3287.5	8.80145
3288	8.69423
3288.5	10.249
3289	12.2957
3289.5	13.1463
3290	12.2277
3290.5	10.5382
3291	9.4284
3291.5	9.28796
3292	9.60613
3292.5	9.88751
3293	10.0726
3293.5	10.2883
3294	10.6449
3294.5	11.165
3295	11.5923
3295.5	11.4767
3296	10.8192
3296.5	10.3703
3297	10.7741
3297.5	11.6348
3298	12.0652
3298.5	12.001
3299	12.1729
3299.5	12.7601
3300	13.0039
3300.5	12.479
3301	11.8687
3301.5	11.8702
3302	12.0458
3302.5	11.5844
3303	10.624
3303.5	10.0411
3304	10.2197
3304.5	10.7552
3305	11.2087
3305.5	11.4721
3306	11.4711
3306.5	11.1908
3307	11.0421
3307.5	11.5698
3308	12.6341
3308.5	13.4027
3309	13.3472
3309.5	12.7873
3310	12.2485
3310.5	11.7568
3311	11.0822
3311.5	10.3002
3312	9.72644
3312.5	9.52829
3313	9.71326
3313.5	10.2873
3314	11.1194
3314.5	11.8609
3315	12.3487
3315.5	12.8632
3316	13.5825
3316.5	14.0051
3317	13.4157
3317.5	11.8993
3318	10.3949
3318.5	9.61865
3319	9.36349
3319.5	9.0853
3320	8.79528
3320.5	8.99829
3321	9.95576
3321.5	11.3947
3322	12.8565
3322.5	13.9541
3323	14.2879
3323.5	13.5337
3324	11.8576
3324.5	10.0427
3325	8.97935
3325.5	9.06603
3326	10.1251
3326.5	11.636
3327	12.954
3327.5	13.5329
3328	13.3474
3328.5	13.0213
3329	13.1731
3329.5	13.5543
3330	13.1923
3330.5	11.5892
3331	9.54969
3331.5	8.47597
3332	8.84636
3332.5	9.74144
3333	10.0848
3333.5	10.0644
3334	10.8447
3334.5	12.8809
3335	15.1241
3335.5	16.2929
3336	16.466
3336.5	16.7145
3337	17.3147
3337.5	17.422
3338	16.5907
3338.5	15.6376
3339	15.4352
3339.5	15.5652
3340	15.0003
3340.5	13.7282
3341	12.7392
3341.5	12.4664
3342	12.2096
3342.5	11.4099
3343	10.6558
3343.5	10.7715
3344	11.3997
3344.5	11.3382
3345	10.295
3345.5	9.61593
3346	10.7241
3346.5	13.2541
3347	15.2826
3347.5	15.4014
3348	14.176
3348.5	13.2824
3349	13.537
3349.5	14.3544
3350	15.0353
3350.5	15.7067
3351	16.5502
3351.5	16.8627
3352	15.8119
3352.5	13.8564
3353	12.4565
3353.5	12.2855
3354	12.5392
3354.5	12.3494
3355	12.0158
3355.5	12.3381
3356	13.3679
3356.5	14.3076
3357	14.3727
3357.5	13.4216
3358	11.9662
3358.5	10.8305
3359	10.5971
3359.5	11.1434
3360	11.8478
3360.5	12.3392
3361	12.7842
3361.5	13.3323
3362	13.6445
3362.5	13.3065
3363	12.4363
3363.5	11.6689
3364	11.671
3364.5	12.663
3365	14.1275
3365.5	14.9781
3366	14.4204
3366.5	12.8107
3367	11.2943
3367.5	10.5769
3368	10.4467
3368.5	10.5257
3369	10.8715
3369.5	11.5354
3370	12.173
3370.5	12.5502
3371	12.9457
3371.5	13.6247
3372	14.29
3372.5	14.5146
3373	14.4502
3373.5	14.6489
3374	15.3487
3374.5	16.3158
3375	17.1873
3375.5	17.5255
3376	16.6982
3376.5	14.4199
3377	11.4579
3377.5	9.33543
3378	9.08854
3378.5	10.3932
3379	11.9899
3379.5	12.8701
3380	13.0315
3380.5	13.1834
3381	13.7915
3381.5	14.4969
3382	14.6015
3382.5	14.0506
3383	13.5837
3383.5	13.6974
3384	13.9883
3384.5	13.8774
3385	13.5783
3385.5	13.7839
3386	14.5167
3386.5	14.9326
3387	14.4392
3387.5	13.507
3388	13.0608
3388.5	13.4222
3389	14.184
3389.5	14.8157
3390	14.9927
3390.5	14.5655
3391	13.7811
3391.5	13.3772
3392	13.8768
3392.5	14.7562
3393	14.8476
3393.5	13.7471
3394	12.3775
3394.5	11.9081
3395	12.4914
3395.5	13.3218
3396	13.6389
3396.5	13.2298
3397	12.2873
3397.5	11.2334
3398	10.4792
3398.5	10.0738
3399	9.76728
3399.5	9.54777
3400	9.69003
3400.5	10.0266
3401	9.8065
3401.5	8.98697
3402	8.96617
3402.5	11.0081
3403	14.361
3403.5	16.8407
3404	17.2196
3404.5	16.0959
3405	14.5397
3405.5	12.9523
3406	11.5411
3406.5	10.9122
3407	11.4654
3407.5	12.7296
3408	14.0335
3408.5	15.2009
3409	16.234
3409.5	16.8075
3410	16.6504
3410.5	16.149
3411	16.011
3411.5	16.428
3412	16.9747
3412.5	17.2196
3413	17.0236
3413.5	16.2857
3414	14.9459
3414.5	13.2961
3415	11.9541
3415.5	11.4013
3416	11.6679
3416.5	12.4283
3417	13.2077
3417.5	13.5648
3418	13.4512
3418.5	13.3726
3419	13.8585
3419.5	14.6979
3420	15.021
3420.5	14.4134
3421	13.735
3421.5	14.4483
3422	17.0914
3422.5	20.6634
3423	23.6147
3423.5	25.3153
3424	26.1463
3424.5	26.4802
3425	25.9639
3425.5	23.9337
3426	20.3709
3426.5	16.223
3427	12.7798
3427.5	10.8941
3428	10.7488
3428.5	11.9745
3429	13.8481
3429.5	15.4321
3430	16.0731
3430.5	15.7909
3431	15.0035
3431.5	13.9921
3432	12.9187
3432.5	12.1603
3433	12.0012
3433.5	12.0345
3434	11.6708
3434.5	11.2522
3435	11.8725
3435.5	13.7237
3436	15.4232
3436.5	15.6801
3437	15.0215
3437.5	14.9484
3438	15.5946
3438.5	15.7188
3439	14.7666
3439.5	13.7276
3440	13.6373
3440.5	14.0578
3441	13.7302
3441.5	12.3302
3442	11.0614
3442.5	11.3758
3443	13.3215
3443.5	15.4788
3444	16.4111
3444.5	16.1523
3445	15.944
3445.5	16.432
3446	16.7048
3446.5	15.6117
3447	13.6867
3447.5	12.6003
3448	13.0519
3448.5	14.1297
3449	14.6526
3449.5	14.4224
3450	14.0466
3450.5	14.191
3451	15.1818
3451.5	16.5985
3452	17.2387
3452.5	16.1402
3453	13.905
3453.5	12.3248
3454	12.3389
3454.5	13.0366
3455	13.1021
3455.5	12.5132
3456	12.0723
3456.5	11.9797
3457	12.0619
3457.5	12.681
3458	14.2407
3458.5	15.9689
3459	16.398
3459.5	15.3485
3460	14.4602
3460.5	14.9009
3461	15.7355
3461.5	15.2912
3462	13.6249
3462.5	12.7997
3463	14.5274
3463.5	17.9939
3464	20.3878
3464.5	19.8648
3465	17.239
3465.5	14.7877
3466	13.8706
3466.5	14.0291
3467	14.1863
3467.5	14.0005
3468	13.738
3468.5	13.4565
3469	13.1211
3469.5	13.1816
3470	14.1618
3470.5	15.6285
3471	16.2601
3471.5	15.3048
3472	13.5758
3472.5	12.5176
3473	12.4667
3473.5	12.5929
3474	12.1377
3474.5	11.2449
3475	10.5585
3475.5	10.4876
3476	11.1009
3476.5	12.293
3477	13.7928
3477.5	15.0584
3478	15.5267
3478.5	14.9042
3479	13.2787
3479.5	11.2935
3480	10.2131
3480.5	10.9058
3481	12.6464
3481.5	13.533
3482	12.6381
3482.5	11.2219
3483	11.1388
3483.5	12.4437
3484	13.3929
3484.5	12.9317
3485	11.8569
3485.5	11.7055
3486	13.0803
3486.5	15.0152
3487	15.6829
3487.5	14.0804
3488	11.511
3488.5	10.3987
3489	11.6986
3489.5	13.8851
3490	14.9546
3490.5	14.674
3491	14.1035
3491.5	13.6624
3492	13.0498
3492.5	12.5025
3493	12.6028
3493.5	13.0548
3494	12.8573
3494.5	11.7996
3495	10.814
3495.5	10.514
3496	10.5466
3496.5	10.5292
3497	10.6979
3497.5	11.2941
3498	11.928
3498.5	12.0551
3499	11.8508
3499.5	12.0365
3500	13.0613
3500.5	14.5684
3501	15.6038
3501.5	15.3483
3502	13.8445
3502.5	12.1484
3503	11.4018
3503.5	11.8955
3504	12.7842
3504.5	12.8913
3505	11.9575
3505.5	10.9886
3506	10.9393
3506.5	11.4489
3507	11.5413
3507.5	11.2425
3508	11.5731
3508.5	12.6555
3509	12.8857
3509.5	11.2395
3510	9.12031
3510.5	8.75378
3511	10.2625
3511.5	11.5362
3512	11.041
3512.5	9.80023
3513	9.71641
3513.5	11.1239
3514	12.676
3514.5	13.0468
3515	12.271
3515.5	11.5433
3516	11.7968
3516.5	12.6417
3517	12.9422
3517.5	12.2134
3518	11.0829
3518.5	10.221
3519	9.44497
3519.5	8.56927
3520	8.36516
3520.5	9.61443
3521	11.6465
3521.5	12.8351
3522	12.5686
3522.5	11.9558
3523	12.1136
3523.5	12.9421
3524	13.5391
3524.5	13.0638
3525	11.3018
3525.5	9.23104
3526	8.70076
3526.5	10.4665
3527	12.8387
3527.5	13.2685
3528	11.4316
3528.5	9.72433
3529	10.1263
3529.5	12.0071
3530	13.5808
3530.5	13.9547
3531	13.3255
3531.5	12.2185
3532	11.2975
3532.5	11.055
3533	11.1159
3533.5	10.5452
3534	9.3687
3534.5	9.05239
3535	10.6244
3535.5	12.79
3536	13.4245
3536.5	11.9934
3537	9.88593
3537.5	8.51326
3538	7.94327
3538.5	7.62466
3539	7.65076
3539.5	8.42275
3540	9.77947
3540.5	11.1266
3541	12.186
3541.5	12.912
3542	12.8392
3542.5	11.6258
3543	10.1822
3543.5	10.1441
3544	11.7488
3544.5	13.1626
3545	13.0832
3545.5	12.2644
3546	11.9777
3546.5	12.0143
3547	11.3917
3547.5	10.4775
3548	10.4298
3548.5	11.1911
3549	11.5257
3549.5	10.9823
3550	10.5363
3550.5	10.7851
3551	11.0064
3551.5	10.5319
3552	9.76226
3552.5	9.25094
3553	8.68473
3553.5	7.80566
3554	7.42185
3554.5	8.28768
3555	9.55167
3555.5	9.53145
3556	8.13702
3556.5	7.02778
3557	7.10271
3557.5	7.65652
3558	8.09519
3558.5	9.11361
3559	11.0987
3559.5	12.7158
3560	12.423
3560.5	10.4202
3561	8.29179
3561.5	7.29729
3562	7.59127
3562.5	8.80599
3563	10.1914
3563.5	10.7826
3564	10.242
3564.5	9.34747
3565	9.01906
3565.5	9.33433
3566	9.88095
3566.5	10.4158
3567	10.853
3567.5	11.0101
3568	10.7079
3568.5	9.94152
3569	8.99873
3569.5	8.55879
3570	9.23238
3570.5	10.5068
3571	11.1082
3571.5	10.6198
3572	10.0713
3572.5	10.289
3573	10.5107
3573.5	10.0062
3574	9.6046
3574.5	10.2634
3575	11.0152
3575.5	10.0459
3576	7.79579
3576.5	6.48612
3577	7.11867
3577.5	8.307
3578	8.3167
3578.5	7.27372
3579	6.33483
3579.5	6.04869
3580	6.20213
3580.5	6.61031
3581	7.35029
3581.5	8.29494
3582	8.95181
3582.5	8.84298
3583	7.96877
3583.5	6.93763
3584	6.52773
3584.5	7.02093
3585	7.96539
3585.5	8.58044
3586	8.49543
3586.5	8.1387
3587	8.06984
3587.5	8.35823
3588	8.58104
3588.5	8.30003
3589	7.51818
3589.5	6.69102
3590	6.44176
3590.5	6.97421
3591	7.61461
3591.5	7.45532
3592	6.74261
3592.5	6.69073
3593	7.77394
3593.5	8.86324
3594	8.80292
3594.5	8.1445
3595	7.98802
3595.5	8.25011
3596	8.05968
3596.5	7.41855
3597	7.03246
3597.5	6.85209
3598	6.35352
3598.5	5.90361
3599	6.49585
3599.5	7.94245
3600	9.01525
3600.5	9.09844
3601	8.64953
3601.5	8.05902
3602	7.24923
3602.5	6.51725
3603	6.52172
3603.5	7.30988
3604	8.18639
3604.5	8.6685
3605	8.65712
3605.5	7.98119
3606	6.78686
3606.5	6.15304
3607	7.05606
3607.5	9.0343
3608	10.6358
3608.5	10.9422
3609	10.193
3609.5	9.07606
3610	8.13379
3610.5	7.62936
3611	7.30233
3611.5	6.65489
3612	5.84533
3612.5	5.57557
3613	6.0297
3613.5	6.62865
3614	7.11812
3614.5	7.93089
3615	9.08733
3615.5	9.69586
3616	8.91886
3616.5	7.17936
3617	5.67461
3617.5	5.34402
3618	6.12469
3618.5	6.94036
3619	6.91515
3619.5	6.51508
3620	6.86531
3620.5	8.07732
3621	8.94265
3621.5	8.67123
3622	7.63434
3622.5	6.54375
3623	5.9238
3623.5	6.16056
3624	7.05751
3624.5	7.57978
3625	7.00797
3625.5	6.08408
3626	5.93627
3626.5	6.48708
3627	6.99524
3627.5	7.0492
3628	6.41111
3628.5	5.03452
3629	3.88472
3629.5	4.44927
3630	6.63077
3630.5	8.28986
3631	8.18751
3631.5	7.20015
3632	6.61274
3632.5	6.53291
3633	6.53081
3633.5	6.537
3634	6.54158
3634.5	6.56103
3635	6.84217
3635.5	7.1805
3636	6.74933
3636.5	5.54046
3637	5.10232
3637.5	6.23871
3638	7.59648
3638.5	7.79231
3639	7.51032
3639.5	7.82281
3640	7.79019
3640.5	6.18958
3641	4.1438
3641.5	4.02126
3642	5.83905
3642.5	7.55192
3643	7.88478
3643.5	7.35183
3644	6.78803
3644.5	6.3228
3645	6.05048
3645.5	6.20899
3646	6.48549
3646.5	6.12165
3647	4.9405
3647.5	3.61665
3648	3.03026
3648.5	3.47728
3649	4.51437
3649.5	5.09642
3650	4.23746
3650.5	2.37914
3651	1.41172
3651.5	2.66699
3652	5.32743
3652.5	7.25545
3653	7.65316
3653.5	7.50248
3654	7.8055
3654.5	8.30893
3655	8.13067
3655.5	7.02339
3656	5.5216
3656.5	4.53257
3657	4.71168
3657.5	5.82461
3658	6.83718
3658.5	6.8169
3659	5.92747
3659.5	5.13413
3660	4.95034
3660.5	5.02889
3661	4.55417
3661.5	3.14754
3662	1.33684
3662.5	0.26892
3663	0.63873
3663.5	1.75821
3664	2.83972
3664.5	4.22938
3665	6.58983
3665.5	8.90803
3666	9.30084
3666.5	7.65207
3667	6.01639
3667.5	5.85888
3668	6.27569
3668.5	6.10419
3669	5.74221
3669.5	6.07145
3670	6.59958
3670.5	6.31863
3671	5.21718
3671.5	4.05008
3672	3.23133
3672.5	3.02158
3673	3.8587
3673.5	5.44894
3674	6.49842
3674.5	6.55737
3675	6.67135
3675.5	7.33829
3676	7.04239
3676.5	4.87479
3677	2.8468
3677.5	3.87513
3678	7.35008
3678.5	10.0472
3679	10.0983
3679.5	8.39404
3680	6.43147
3680.5	4.53014
3681	2.87716
3681.5	2.16264
3682	2.51716
3682.5	3.32138
3683	4.1799
3683.5	5.0773
3684	5.56419
3684.5	5.01498
3685	3.76379
3685.5	3.07957
3686	3.55823
3686.5	4.51741
3687	5.0557
3687.5	4.9626
3688	4.65378
3688.5	4.54746
3689	4.84607
3689.5	5.44744
3690	5.9686
3690.5	6.14131
3691	6.01076
3691.5	5.74464
3692	5.45499
3692.5	5.3805
3693	5.95037
3693.5	7.18065
3694	7.98621
3694.5	7.08155
3695	4.53367
3695.5	2.36529
3696	2.45628
3696.5	4.38374
3697	5.92499
3697.5	5.51325
3698	3.84779
3698.5	2.51742
3699	2.58432
3699.5	3.90977
3700	5.27228
