#Imported=	16.12.2021 13:58:48
60	26.0015
60.5	25.1154
61	24.3938
61.5	23.6698
62	22.9536
62.5	22.3283
63	21.8994
63.5	21.6569
64	21.5955
64.5	21.6898
65	21.9335
65.5	22.4185
66	23.2134
66.5	24.3318
67	25.7096
67.5	27.0762
68	28.2253
68.5	28.9353
69	29.208
69.5	29.0931
70	28.8277
70.5	28.5875
71	28.4743
71.5	28.493
72	28.6073
72.5	28.8174
73	29.1614
73.5	29.727
74	30.5952
74.5	31.6895
75	32.7854
75.5	33.5939
76	33.9669
76.5	33.7952
77	33.3051
77.5	32.8423
78	32.7752
78.5	33.1424
79	33.8784
79.5	34.7237
80	35.3499
80.5	35.578
81	35.5065
81.5	35.3089
82	35.1623
82.5	35.1201
83	35.0419
83.5	34.687
84	33.9738
84.5	32.9056
85	31.7314
85.5	30.8313
86	30.5369
86.5	30.8232
87	31.5336
87.5	32.3965
88	33.0378
88.5	33.2736
89	33.0968
89.5	32.656
90	32.0567
90.5	31.4074
91	30.7472
91.5	30.0973
92	29.5121
92.5	29.0896
93	29.0077
93.5	29.3243
94	29.9864
94.5	30.813
95	31.5785
95.5	32.0288
96	32.0241
96.5	31.6156
97	30.9029
97.5	30.0982
98	29.3341
98.5	28.7215
99	28.2627
99.5	27.9149
100	27.6198
100.5	27.3351
101	27.0387
101.5	26.7337
102	26.4345
102.5	26.1529
103	25.8831
103.5	25.6074
104	25.2894
104.5	24.9031
105	24.4495
105.5	23.984
106	23.5862
106.5	23.4127
107	23.5508
107.5	24.0125
108	24.7082
108.5	25.4346
109	25.964
109.5	26.0677
110	25.7035
110.5	24.9625
111	24.1144
111.5	23.3898
112	23.0387
112.5	23.0717
113	23.3422
113.5	23.6132
114	23.7091
114.5	23.5209
115	23.1372
115.5	22.7724
116	22.6746
116.5	22.88
117	23.3458
117.5	23.9012
118	24.2858
118.5	24.321
119	24.0169
119.5	23.5062
120	22.9391
120.5	22.4769
121	22.171
121.5	21.9577
122	21.7163
122.5	21.3634
123	20.8711
123.5	20.3239
124	19.8798
124.5	19.6604
125	19.7036
125.5	20.0316
126	20.4988
126.5	20.9422
127	21.1905
127.5	21.211
128	21.0044
128.5	20.6656
129	20.3346
129.5	20.1416
130	20.0864
130.5	20.1113
131	20.125
131.5	20.0551
132	19.8854
132.5	19.7136
133	19.6394
133.5	19.7252
134	19.9254
134.5	20.1169
135	20.0824
135.5	19.798
136	19.3386
136.5	18.8887
137	18.6493
137.5	18.794
138	19.2835
138.5	19.8708
139	20.3422
139.5	20.5891
140	20.6454
140.5	20.6932
141	20.9492
141.5	21.4563
142	22.0788
142.5	22.5478
143	22.5331
143.5	21.8387
144	20.6786
144.5	19.379
145	18.3523
145.5	17.89
146	18.2434
146.5	19.1773
147	20.35
147.5	21.4122
148	22.1542
148.5	22.4396
149	22.3719
149.5	22.1704
150	22.0707
150.5	22.16
151	22.4297
151.5	22.7527
152	22.8987
152.5	22.6517
153	21.992
153.5	21.0613
154	20.0696
154.5	19.285
155	18.9289
155.5	19.0469
156	19.3883
156.5	19.7352
157	19.852
157.5	19.6436
158	19.0543
158.5	18.2825
159	17.4846
159.5	16.8081
160	16.3306
160.5	16.1304
161	16.3576
161.5	16.9679
162	17.9797
162.5	19.2861
163	20.6962
163.5	21.9743
164	22.9149
164.5	23.5007
165	23.7638
165.5	23.8951
166	24.0179
166.5	24.2221
167	24.5001
167.5	24.8129
168	25.153
168.5	25.5576
169	26.1235
169.5	26.8859
170	27.8052
170.5	28.6983
171	29.3625
171.5	29.5828
172	29.2342
172.5	28.3582
173	27.0307
173.5	25.5451
174	24.1057
174.5	22.9453
175	22.1511
175.5	21.8192
176	21.9481
176.5	22.2942
177	22.6533
177.5	22.7928
178	22.5722
178.5	21.8417
179	20.737
179.5	19.4728
180	18.2499
180.5	17.2096
181	16.4482
181.5	16.0005
182	15.821
182.5	15.8987
183	16.1819
183.5	16.6141
184	17.1169
184.5	17.538
185	17.7036
185.5	17.4999
186	16.9987
186.5	16.3028
187	15.6269
187.5	15.1717
188	15.1913
188.5	15.5962
189	16.2541
189.5	16.9598
190	17.4881
190.5	17.6563
191	17.37
191.5	16.8161
192	16.202
192.5	15.7701
193	15.6717
193.5	16.0493
194	16.7382
194.5	17.4923
195	18.0157
195.5	18.1688
196	17.8766
196.5	17.265
197	16.6006
197.5	16.2129
198	16.2299
198.5	16.639
199	17.3355
199.5	18.0375
200	18.4755
200.5	18.4154
201	17.9221
201.5	17.0654
202	16.0664
202.5	15.1375
203	14.5339
203.5	14.357
204	14.5799
204.5	15.1081
205	15.7056
205.5	16.1414
206	16.187
206.5	15.7437
207	14.8522
207.5	13.808
208	12.9014
208.5	12.5125
209	12.7462
209.5	13.6812
210	15.0919
210.5	16.571
211	17.7881
211.5	18.5235
212	18.7418
212.5	18.4328
213	17.8669
213.5	17.2809
214	16.8548
214.5	16.6462
215	16.6744
215.5	16.869
216	17.0851
216.5	17.1485
217	16.9543
217.5	16.4708
218	15.6895
218.5	14.7985
219	14.0193
219.5	13.6516
220	13.7743
220.5	14.4473
221	15.5167
221.5	16.7319
222	17.7897
222.5	18.4419
223	18.6351
223.5	18.3951
224	17.9608
224.5	17.5261
225	17.2848
225.5	17.3256
226	17.6438
226.5	18.1033
227	18.591
227.5	19.0064
228	19.3158
228.5	19.5097
229	19.5965
229.5	19.6253
230	19.6178
230.5	19.6099
231	19.6385
231.5	19.7465
232	19.923
232.5	20.0943
233	20.1149
233.5	19.9053
234	19.4236
234.5	18.7607
235	18.1515
235.5	17.9624
236	18.3575
236.5	19.2922
237	20.6381
237.5	22.021
238	23.1525
238.5	23.7891
239	24.0664
239.5	24.2259
240	24.533
240.5	25.1128
241	25.9845
241.5	26.9413
242	27.7242
242.5	28.0839
243	28.064
243.5	27.7318
244	27.2351
244.5	26.7276
245	26.2777
245.5	25.8456
246	25.3423
246.5	24.6716
247	23.8434
247.5	22.9078
248	21.9771
248.5	21.1937
249	20.6755
249.5	20.4445
250	20.431
250.5	20.5658
251	20.7231
251.5	20.8111
252	20.7296
252.5	20.5147
253	20.2078
253.5	19.8832
254	19.6172
254.5	19.4788
255	19.4882
255.5	19.6015
256	19.7272
256.5	19.7735
257	19.6971
257.5	19.5152
258	19.354
258.5	19.396
259	19.8111
259.5	20.5277
260	21.3781
260.5	22.0508
261	22.2958
261.5	21.851
262	20.9254
262.5	19.8966
263	19.2874
263.5	19.3364
264	20.1353
264.5	21.3781
265	22.5772
265.5	23.0779
266	22.6732
266.5	21.489
267	19.8106
267.5	18.155
268	16.8945
268.5	16.2558
269	16.1611
269.5	16.4367
270	16.8466
270.5	17.281
271	17.7166
271.5	18.1751
272	18.6738
272.5	19.1889
273	19.6621
273.5	20.0563
274	20.3829
274.5	20.6841
275	20.9885
275.5	21.2744
276	21.4439
276.5	21.334
277	20.9405
277.5	20.312
278	19.6366
278.5	19.1527
279	19.116
279.5	19.5992
280	20.4146
280.5	21.2787
281	21.907
281.5	22.1453
282	21.9748
282.5	21.6526
283	21.5067
283.5	21.7921
284	22.466
284.5	23.3395
285	24.0438
285.5	24.2922
286	23.828
286.5	22.9101
287	21.9669
287.5	21.5204
288	21.757
288.5	22.6841
289	23.8907
289.5	24.8697
290	25.023
290.5	24.3621
291	23.2535
291.5	22.2613
292	21.8372
292.5	22.2236
293	23.2601
293.5	24.442
294	25.1793
294.5	25.2664
295	24.8223
295.5	24.1007
296	23.4692
296.5	23.0897
297	22.9153
297.5	22.675
298	22.1296
298.5	21.265
299	20.258
299.5	19.3887
300	18.8815
300.5	18.8391
301	19.2859
301.5	19.9454
302	20.6427
302.5	21.2371
303	21.6697
303.5	21.8808
304	21.8705
304.5	21.6412
305	21.1731
305.5	20.5606
306	19.8499
306.5	19.0846
307	18.3042
307.5	17.5351
308	16.82
308.5	16.2202
309	15.8241
309.5	15.6262
310	15.5824
310.5	15.6137
311	15.6199
311.5	15.5673
312	15.5171
312.5	15.5888
313	15.8802
313.5	16.3515
314	16.874
314.5	17.2554
315	17.3936
315.5	17.2871
316	17.1019
316.5	17.0926
317	17.4394
317.5	18.1641
318	19.119
318.5	20.1126
319	20.9457
319.5	21.517
320	21.8268
320.5	22.0368
321	22.2445
321.5	22.5175
322	22.8559
322.5	23.2421
323	23.6548
323.5	24.1097
324	24.6789
324.5	25.404
325	26.3161
325.5	27.4258
326	28.6508
326.5	29.9191
327	31.1391
327.5	32.2543
328	33.2336
328.5	34.1016
329	34.892
329.5	35.6407
330	36.4053
330.5	37.24
331	38.2121
331.5	39.3152
332	40.4899
332.5	41.5783
333	42.3904
333.5	42.6086
334	42.1293
334.5	40.8972
335	38.8971
335.5	36.5591
336	34.1818
336.5	32.0703
337	30.3744
337.5	29.2226
338	28.523
338.5	28.1316
339	27.8988
339.5	27.6274
340	27.2305
340.5	26.6782
341	26.0415
341.5	25.407
342	24.8584
342.5	24.4071
343	23.9695
343.5	23.4041
344	22.6256
344.5	21.6173
345	20.5527
345.5	19.6494
346	19.1465
346.5	19.1119
347	19.5103
347.5	20.0542
348	20.5036
348.5	20.6342
349	20.4428
349.5	19.9758
350	19.3372
350.5	18.6696
351	18.0571
351.5	17.5379
352	17.1186
352.5	16.8242
353	16.6395
353.5	16.5471
354	16.5405
354.5	16.605
355	16.7905
355.5	17.1799
356	17.7989
356.5	18.6591
357	19.6429
357.5	20.5947
358	21.3276
358.5	21.7918
359	22.0229
359.5	22.136
360	22.2231
360.5	22.2521
361	22.1009
361.5	21.6697
362	20.8825
362.5	19.9102
363	19.0465
363.5	18.6865
364	18.8814
364.5	19.5734
365	20.4923
365.5	21.2773
366	21.6245
366.5	21.4448
367	20.8531
367.5	20.0558
368	19.2859
368.5	18.6469
369	18.1913
369.5	17.8759
370	17.691
370.5	17.6301
371	17.6791
371.5	17.8275
372	18.0195
372.5	18.2139
373	18.3832
373.5	18.5294
374	18.6536
374.5	18.7375
375	18.7448
375.5	18.5972
376	18.2707
376.5	17.7958
377	17.2065
377.5	16.5765
378	15.9444
378.5	15.3311
379	14.7442
379.5	14.2183
380	13.809
380.5	13.5286
381	13.3663
381.5	13.2366
382	13.065
382.5	12.8278
383	12.6297
383.5	12.6503
384	13.1313
384.5	13.9777
385	14.9701
385.5	15.7126
386	15.9185
386.5	15.3779
387	14.3653
387.5	13.2865
388	12.714
388.5	12.8476
389	13.5797
389.5	14.5175
390	15.2129
390.5	15.3231
391	14.8532
391.5	14.0448
392	13.24
392.5	12.7441
393	12.6368
393.5	12.8146
394	13.0339
394.5	13.1144
395	12.9692
395.5	12.6541
396	12.2866
396.5	12.0346
397	12.0222
397.5	12.3264
398	12.8271
398.5	13.4013
399	13.8686
399.5	14.1046
400	14.0119
400.5	13.6445
401	13.1468
401.5	12.7272
402	12.5274
402.5	12.5925
403	12.8897
403.5	13.254
404	13.5375
404.5	13.6219
405	13.5066
405.5	13.2632
406	13.1038
406.5	13.2243
407	13.8665
407.5	14.9678
408	16.4186
408.5	17.9192
409	19.0963
409.5	19.5417
410	19.0683
410.5	17.8245
411	16.1766
411.5	14.702
412	13.809
412.5	13.8188
413	14.4984
413.5	15.5614
414	16.5746
414.5	17.2609
415	17.5352
415.5	17.6843
416	17.963
416.5	18.5286
417	19.2087
417.5	19.7177
418	19.7005
418.5	19.1183
419	18.1128
419.5	17.1611
420	16.6831
420.5	16.9201
421	17.6045
421.5	18.3648
422	18.773
422.5	18.7313
423	18.3625
423.5	18.0506
424	18.1621
424.5	18.887
425	19.9402
425.5	20.9125
426	21.2936
426.5	20.9405
427	19.8677
427.5	18.311
428	16.7405
428.5	15.5831
429	15.1779
429.5	15.4968
430	16.4836
430.5	17.7907
431	19.1248
431.5	20.2064
432	20.9732
432.5	21.4447
433	21.7338
433.5	21.958
434	22.0984
434.5	22.0702
435	21.8356
435.5	21.4499
436	21.1503
436.5	21.1741
437	21.7078
437.5	22.5711
438	23.4411
438.5	23.8635
439	23.703
439.5	23.1032
440	22.5632
440.5	22.5026
441	23.2707
441.5	24.5695
442	25.9725
442.5	26.8724
443	26.9566
443.5	26.0751
444	24.6351
444.5	23.0905
445	21.8622
445.5	21.1506
446	21.0448
446.5	21.6094
447	22.6308
447.5	23.9313
448	25.1748
448.5	26.0087
449	26.1118
449.5	25.5339
450	24.5131
450.5	23.3761
451	22.4435
451.5	21.8298
452	21.452
452.5	21.0732
453	20.5366
453.5	19.9044
454	19.4216
454.5	19.385
455	19.7927
455.5	20.453
456	20.9747
456.5	21.0344
457	20.4598
457.5	19.3881
458	18.2305
458.5	17.4566
459	17.2534
459.5	17.5208
460	18.037
460.5	18.4642
461	18.6261
461.5	18.4927
462	18.2527
462.5	18.1162
463	18.2499
463.5	18.6618
464	19.236
464.5	19.7443
465	20.0193
465.5	19.9116
466	19.5138
466.5	18.9499
467	18.4365
467.5	18.1495
468	18.2198
468.5	18.5873
469	19.0672
469.5	19.4111
470	19.4785
470.5	19.2226
471	18.6821
471.5	18.0263
472	17.3772
472.5	16.8286
473	16.4121
473.5	16.1814
474	16.1641
474.5	16.3742
475	16.7963
475.5	17.2524
476	17.5402
476.5	17.449
477	16.9808
477.5	16.2466
478	15.5477
478.5	15.1352
479	15.1776
479.5	15.4474
480	15.6016
480.5	15.2822
481	14.4922
481.5	13.4086
482	12.4318
482.5	11.8854
483	11.9926
483.5	12.5788
484	13.3436
484.5	13.9284
485	14.1677
485.5	14.0823
486	13.8137
486.5	13.5474
487	13.4095
487.5	13.4664
488	13.7304
488.5	14.2425
489	14.932
489.5	15.696
490	16.335
490.5	16.6716
491	16.6056
491.5	16.2037
492	15.6762
492.5	15.2088
493	14.8799
493.5	14.62
494	14.2388
494.5	13.6015
495	12.6726
495.5	11.5778
496	10.5844
496.5	9.92567
497	9.66583
497.5	9.69651
498	9.88263
498.5	10.0512
499	10.1275
499.5	10.1091
500	10.0888
500.5	10.171
501	10.458
501.5	10.9716
502	11.705
502.5	12.5433
503	13.3722
503.5	14.0833
504	14.666
504.5	15.1464
505	15.5555
505.5	15.8848
506	16.0052
506.5	15.7376
507	15.0125
507.5	13.8371
508	12.5943
508.5	11.6542
509	11.4099
509.5	11.7782
510	12.5798
510.5	13.4821
511	14.2412
511.5	14.8162
512	15.368
512.5	16.0392
513	16.8004
513.5	17.3307
514	17.2757
514.5	16.3876
515	14.9941
515.5	13.5805
516	12.7561
516.5	12.7794
517	13.69
517.5	14.9781
518	16.1351
518.5	16.6842
519	16.667
519.5	16.2834
520	15.8814
520.5	15.6643
521	15.6809
521.5	15.8373
522	16.0373
522.5	16.2581
523	16.5307
523.5	16.8928
524	17.3421
524.5	17.7803
525	18.0694
525.5	18.0621
526	17.7472
526.5	17.1534
527	16.4612
527.5	15.8637
528	15.604
528.5	15.7123
529	16.1414
529.5	16.6926
530	17.1039
530.5	17.1846
531	16.9585
531.5	16.6473
532	16.5767
532.5	16.8815
533	17.5019
533.5	18.224
534	18.7897
534.5	19.074
535	19.123
535.5	19.1034
536	19.1114
536.5	19.1032
537	18.9415
537.5	18.4461
538	17.7152
538.5	16.9996
539	16.6617
539.5	16.8134
540	17.4123
540.5	18.1577
541	18.7417
541.5	18.9436
542	18.8309
542.5	18.5574
543	18.2608
543.5	17.9618
544	17.5515
544.5	16.8892
545	16.017
545.5	15.1246
546	14.4924
546.5	14.2907
547	14.6354
547.5	15.2925
548	16.018
548.5	16.5196
549	16.6627
549.5	16.3848
550	15.795
550.5	15.1187
551	14.6358
551.5	14.5764
552	14.9967
552.5	15.8498
553	16.7568
553.5	17.3323
554	17.1895
554.5	16.3159
555	14.8255
555.5	13.1601
556	11.7444
556.5	10.9598
557	10.7512
557.5	10.925
558	11.1814
558.5	11.2889
559	11.2238
559.5	11.1213
560	11.1315
560.5	11.3402
561	11.6674
561.5	11.9803
562	12.1287
562.5	12.107
563	11.9629
563.5	11.7864
564	11.6332
564.5	11.4916
565	11.3244
565.5	11.1485
566	11.0757
566.5	11.2021
567	11.5372
567.5	11.9327
568	12.1045
568.5	11.777
569	10.8618
569.5	9.62627
570	8.50521
570.5	7.95047
571	8.14062
571.5	9.08787
572	10.283
572.5	11.3144
573	11.9157
573.5	12.1985
574	12.3432
574.5	12.5091
575	12.6665
575.5	12.5952
576	12.1395
576.5	11.3185
577	10.3858
577.5	9.75461
578	9.73288
578.5	10.3319
579	11.1421
579.5	11.6231
580	11.4196
580.5	10.6216
581	9.566
581.5	8.75704
582	8.45393
582.5	8.65234
583	8.99396
583.5	9.18448
584	9.12545
584.5	8.99403
585	9.09445
585.5	9.56253
586	10.2812
586.5	10.8997
587	11.1166
587.5	10.8878
588	10.5559
588.5	10.5689
589	11.2458
589.5	12.44
590	13.7181
590.5	14.5317
591	14.7042
591.5	14.3541
592	13.848
592.5	13.5541
593	13.561
593.5	13.6237
594	13.4042
594.5	12.6669
595	11.6462
595.5	10.8125
596	10.8021
596.5	11.687
597	13.3451
597.5	15.3306
598	17.0993
598.5	18.2397
599	18.649
599.5	18.4949
600	17.9787
600.5	17.4422
601	17.1113
601.5	17.1773
602	17.5847
602.5	18.2239
603	18.8413
603.5	19.188
604	19.055
604.5	18.4732
605	17.594
605.5	16.6178
606	15.7813
606.5	15.2543
607	15.1885
607.5	15.5626
608	16.3883
608.5	17.5267
609	18.7566
609.5	19.8126
610	20.5188
610.5	20.8267
611	20.7889
611.5	20.6536
612	20.5785
612.5	20.6019
613	20.6248
613.5	20.508
614	20.2014
614.5	19.7696
615	19.3392
615.5	19
616	18.7205
616.5	18.329
617	17.6621
617.5	16.6247
618	15.3703
618.5	14.233
619	13.687
619.5	13.9544
620	15.0262
620.5	16.7122
621	18.4329
621.5	19.7744
622	20.4483
622.5	20.5286
623	20.1304
623.5	19.5204
624	18.8865
624.5	18.3327
625	17.8769
625.5	17.54
626	17.3907
626.5	17.4541
627	17.751
627.5	18.1766
628	18.5334
628.5	18.564
629	18.162
629.5	17.381
630	16.4439
630.5	15.7044
631	15.4359
631.5	15.7823
632	16.5496
632.5	17.4581
633	18.1078
633.5	18.2339
634	17.6142
634.5	16.4826
635	15.1622
635.5	14.133
636	13.7073
636.5	14.0613
637	15.0204
637.5	16.1087
638	16.763
638.5	16.6231
639	15.6607
639.5	14.1209
640	12.6484
640.5	11.718
641	11.6333
641.5	12.1729
642	13.0171
642.5	13.736
643	14.1172
643.5	14.1274
644	14.0112
644.5	13.9676
645	14.0976
645.5	14.2837
646	14.3527
646.5	14.1704
647	13.7922
647.5	13.382
648	13.1609
648.5	13.2466
649	13.7183
649.5	14.4177
650	15.2203
650.5	15.9671
651	16.4999
651.5	16.5962
652	16.099
652.5	15.0548
653	13.6451
653.5	12.3708
654	11.7024
654.5	12.1353
655	13.4617
655.5	15.3357
656	17.1244
656.5	18.3342
657	18.6604
657.5	18.2866
658	17.5803
658.5	16.8894
659	16.4091
659.5	16.1643
660	16.1155
660.5	16.1989
661	16.4494
661.5	16.8783
662	17.4045
662.5	17.8641
663	18.0906
663.5	18.0217
664	17.6893
664.5	17.3111
665	17.0339
665.5	16.8913
666	16.7489
666.5	16.4164
667	15.8151
667.5	15.0593
668	14.4261
668.5	14.1606
669	14.343
669.5	14.8354
670	15.2607
670.5	15.3124
671	14.9091
671.5	14.2981
672	13.8104
672.5	13.6205
673	13.6202
673.5	13.4304
674	12.7318
674.5	11.4108
675	9.73184
675.5	8.2716
676	7.6176
676.5	7.98049
677	9.08088
677.5	10.4094
678	11.3311
678.5	11.5126
679	10.8703
679.5	9.86464
680	8.91667
680.5	8.39611
681	8.36754
681.5	8.79559
682	9.45116
682.5	10.1542
683	10.7687
683.5	11.2385
684	11.5275
684.5	11.6233
685	11.6095
685.5	11.5901
686	11.6759
686.5	11.8761
687	12.0689
687.5	12.039
688	11.6332
688.5	10.8292
689	9.9801
689.5	9.52987
690	9.8885
690.5	10.9912
691	12.4913
691.5	13.6726
692	14.0035
692.5	13.1007
693	11.5006
693.5	9.8611
694	8.96526
694.5	9.01336
695	9.84882
695.5	10.8225
696	11.3258
696.5	10.9463
697	9.94186
697.5	8.79741
698	8.08503
698.5	7.99365
699	8.49222
699.5	9.29282
700	10.0344
700.5	10.4779
701	10.5916
701.5	10.4838
702	10.2792
702.5	10.1092
703	10.0288
703.5	10.0573
704	10.1577
704.5	10.3077
705	10.4822
705.5	10.6629
706	10.8387
706.5	11.0034
707	11.1569
707.5	11.3081
708	11.4751
708.5	11.6736
709	11.8933
709.5	12.0737
710	12.091
710.5	11.8267
711	11.2547
711.5	10.4284
712	9.6298
712.5	9.14335
713	9.24575
713.5	9.81895
714	10.6076
714.5	11.16
715	11.1653
715.5	10.4492
716	9.29526
716.5	8.11096
717	7.37822
717.5	7.21711
718	7.57186
718.5	8.18282
719	8.7299
719.5	9.03917
720	9.12683
720.5	9.12024
721	9.11994
721.5	9.13334
722	9.08446
722.5	8.85572
723	8.4598
723.5	7.98527
724	7.62024
724.5	7.51269
725	7.78211
725.5	8.36166
726	9.10947
726.5	9.86426
727	10.4952
727.5	10.941
728	11.1816
728.5	11.2727
729	11.2197
729.5	11.0303
730	10.727
730.5	10.3513
731	10.0199
731.5	9.85136
732	9.97008
732.5	10.3003
733	10.713
733.5	11.0152
734	11.1231
734.5	11.0789
735	11.0777
735.5	11.2689
736	11.6718
736.5	12.0174
737	11.9731
737.5	11.2195
738	9.9088
738.5	8.36116
739	7.07437
739.5	6.31262
740	6.10474
740.5	6.06173
741	5.83524
741.5	5.23622
742	4.54074
742.5	4.15856
743	4.47996
743.5	5.41691
744	6.63097
744.5	7.54815
745	7.83356
745.5	7.38365
746	6.67874
746.5	6.21094
747	6.44433
747.5	7.31382
748	8.57666
748.5	9.77837
749	10.5962
749.5	10.8511
750	10.7022
750.5	10.3712
751	10.0216
751.5	9.70511
752	9.38288
752.5	9.02304
753	8.69381
753.5	8.57582
754	8.83749
754.5	9.47668
755	10.33
755.5	10.9959
756	11.1269
756.5	10.445
757	9.22063
757.5	7.82671
758	6.77369
758.5	6.33088
759	6.62738
759.5	7.42459
760	8.45899
760.5	9.56317
761	10.6526
761.5	11.6927
762	12.5664
762.5	13.1201
763	13.1293
763.5	12.5478
764	11.571
764.5	10.4909
765	9.63938
765.5	9.16435
766	9.07516
766.5	9.13021
767	9.17153
767.5	9.14704
768	9.14762
768.5	9.32087
769	9.70994
769.5	10.2148
770	10.6155
770.5	10.7392
771	10.5367
771.5	10.1253
772	9.76488
772.5	9.63727
773	9.7157
773.5	9.76118
774	9.42383
774.5	8.58643
775	7.40395
775.5	6.32372
776	5.80331
776.5	6.10458
777	7.09813
777.5	8.23417
778	8.96504
778.5	9.02589
779	8.56148
779.5	7.91054
780	7.46851
780.5	7.36855
781	7.53181
781.5	7.7098
782	7.75834
782.5	7.6738
783	7.55946
783.5	7.51697
784	7.5847
784.5	7.76351
785	8.07876
785.5	8.49215
786	8.92781
786.5	9.20202
787	9.16767
787.5	8.75046
788	8.15136
788.5	7.69421
789	7.73312
789.5	8.24569
790	9.0085
790.5	9.65996
791	10.0147
791.5	10.1244
792	10.2517
792.5	10.585
793	11.0994
793.5	11.5079
794	11.554
794.5	11.0683
795	10.3222
795.5	9.59691
796	9.13183
796.5	8.89725
797	8.76235
797.5	8.58581
798	8.36231
798.5	8.19161
799	8.14051
799.5	8.17398
800	8.17495
800.5	8.08087
801	7.95603
801.5	7.98868
802	8.30451
802.5	8.93475
803	9.68314
803.5	10.3254
804	10.6486
804.5	10.6849
805	10.5232
805.5	10.3041
806	10.1591
806.5	10.19
807	10.4502
807.5	10.9006
808	11.4204
808.5	11.7669
809	11.7314
809.5	11.1487
810	10.2594
810.5	9.37274
811	8.84716
811.5	8.76652
812	9.04374
812.5	9.38406
813	9.59116
813.5	9.62814
814	9.66069
814.5	9.81549
815	10.0942
815.5	10.3276
816	10.3441
816.5	10.1164
817	9.80557
817.5	9.62432
818	9.65009
818.5	9.78295
819	9.79022
819.5	9.54161
820	9.05251
820.5	8.50225
821	8.07722
821.5	7.84692
822	7.71668
822.5	7.5798
823	7.45207
823.5	7.48371
824	7.82735
824.5	8.51737
825	9.26283
825.5	9.69953
826	9.5661
826.5	8.99214
827	8.33836
827.5	8.06607
828	8.35509
828.5	9.1181
829	9.83778
829.5	10.1196
830	9.80052
830.5	9.1991
831	8.7382
831.5	8.73055
832	9.10756
832.5	9.51733
833	9.51361
833.5	8.895
834	7.75143
834.5	6.61617
835	5.99632
835.5	6.21981
836	7.1305
836.5	8.42933
837	9.64713
837.5	10.5236
838	10.9456
838.5	11.139
839	11.28
839.5	11.4686
840	11.6478
840.5	11.6685
841	11.417
841.5	10.9278
842	10.3285
842.5	9.83719
843	9.59609
843.5	9.68719
844	9.96006
844.5	10.2505
845	10.3674
845.5	10.2389
846	9.87136
846.5	9.44264
847	9.16775
847.5	9.32005
848	9.91714
848.5	10.8693
849	11.9156
849.5	12.7326
850	13.0679
850.5	12.878
851	12.3467
851.5	11.6726
852	11.0515
852.5	10.5384
853	10.114
853.5	9.71857
854	9.36476
854.5	9.12177
855	9.0233
855.5	9.06085
856	9.13469
856.5	9.16147
857	9.13531
857.5	9.16621
858	9.37378
858.5	9.81648
859	10.3361
859.5	10.7023
860	10.714
860.5	10.4049
861	9.96183
861.5	9.68385
862	9.70556
862.5	9.96185
863	10.1115
863.5	9.87357
864	9.1649
864.5	8.2947
865	7.68705
865.5	7.63983
866	8.07456
866.5	8.65176
867	8.90276
867.5	8.61078
868	7.84352
868.5	7.0537
869	6.62274
869.5	6.72462
870	7.17575
870.5	7.73364
871	8.18464
871.5	8.48903
872	8.66873
872.5	8.76378
873	8.72498
873.5	8.50335
874	8.21075
874.5	8.08982
875	8.40008
875.5	9.17044
876	10.2219
876.5	11.1065
877	11.4974
877.5	11.2324
878	10.6682
878.5	10.1939
879	10.1475
879.5	10.5117
880	11.0928
880.5	11.5735
881	11.8006
881.5	11.7556
882	11.6179
882.5	11.4803
883	11.3197
883.5	11.0387
884	10.565
884.5	9.99702
885	9.56697
885.5	9.59117
886	10.1323
886.5	11.0416
887	11.9629
887.5	12.5082
888	12.4455
888.5	11.8102
889	10.9518
889.5	10.2101
890	9.78728
890.5	9.63846
891	9.59458
891.5	9.45428
892	9.17091
892.5	8.84466
893	8.6356
893.5	8.63681
894	8.80118
894.5	8.99664
895	9.13112
895.5	9.22931
896	9.38691
896.5	9.72785
897	10.2223
897.5	10.7811
898	11.2593
898.5	11.5724
899	11.6596
899.5	11.5121
900	11.126
900.5	10.4572
901	9.64481
901.5	8.91945
902	8.65959
902.5	8.99615
903	9.88489
903.5	10.9105
904	11.567
904.5	11.4395
905	10.6558
905.5	9.6314
906	8.90854
906.5	8.67197
907	8.78203
907.5	8.8163
908	8.46976
908.5	7.73312
909	6.98981
909.5	6.6417
910	6.96111
910.5	7.67808
911	8.40388
911.5	8.74551
912	8.70849
912.5	8.48671
913	8.38594
913.5	8.54331
914	8.95341
914.5	9.47637
915	10.0329
915.5	10.6171
916	11.1877
916.5	11.5964
917	11.5648
917.5	11.0138
918	10.0125
918.5	8.95274
919	8.24246
919.5	8.19778
920	8.63837
920.5	9.26245
921	9.77623
921.5	10.13
922	10.4427
922.5	10.8773
923	11.4328
923.5	11.9523
924	12.2241
924.5	12.1597
925	11.7352
925.5	11.1212
926	10.4174
926.5	9.70218
927	9.06674
927.5	8.67457
928	8.70095
928.5	9.15963
929	9.9466
929.5	10.7116
930	11.1825
930.5	11.2159
931	11.0925
931.5	11.1529
932	11.6928
932.5	12.6291
933	13.6752
933.5	14.4177
934	14.6524
934.5	14.3289
935	13.7756
935.5	13.2728
936	13.0538
936.5	13.1142
937	13.3938
937.5	13.7711
938	14.1276
938.5	14.3412
939	14.3249
939.5	14.0362
940	13.4356
940.5	12.6749
941	11.8901
941.5	11.2391
942	10.7885
942.5	10.573
943	10.5373
943.5	10.5935
944	10.6608
944.5	10.677
945	10.6398
945.5	10.625
946	10.746
946.5	11.0997
947	11.66
947.5	12.2441
948	12.6061
948.5	12.6242
949	12.3757
949.5	12.0949
950	12.043
950.5	12.3177
951	12.8112
951.5	13.27
952	13.5468
952.5	13.6798
953	13.812
953.5	14.0361
954	14.2711
954.5	14.3621
955	14.1628
955.5	13.7824
956	13.3926
956.5	13.1473
957	13.0113
957.5	12.8473
958	12.5877
958.5	12.3769
959	12.6294
959.5	13.5638
960	15.1766
960.5	17.0967
961	18.7134
961.5	19.519
962	19.3533
962.5	18.4532
963	17.0443
963.5	15.4968
964	14.0932
964.5	13.2473
965	13.1675
965.5	14.0122
966	15.5701
966.5	17.1949
967	18.1803
967.5	18.1615
968	17.3231
968.5	16.162
969	15.3589
969.5	15.2516
970	15.8603
970.5	16.7357
971	17.5119
971.5	17.9595
972	18.1136
972.5	18.0867
973	18.0567
973.5	18.116
974	18.2966
974.5	18.5047
975	18.6209
975.5	18.532
976	18.2984
976.5	18.1301
977	18.3173
977.5	18.9899
978	20.1246
978.5	21.3393
979	22.311
979.5	22.8486
980	23.1618
980.5	23.5211
981	24.1174
981.5	24.8646
982	25.5443
982.5	26.0385
983	26.4827
983.5	27.2655
984	28.5666
984.5	30.2914
985	31.9498
985.5	33.0307
986	33.262
986.5	32.9888
987	32.8843
987.5	33.6347
988	35.2511
988.5	37.3393
989	39.1821
989.5	40.2624
990	40.3522
990.5	39.6435
991	38.6329
991.5	37.7151
992	37.1258
992.5	36.8886
993	36.9777
993.5	37.2074
994	37.4523
994.5	37.5923
995	37.5926
995.5	37.4531
996	37.2186
996.5	36.9101
997	36.4442
997.5	35.748
998	34.8025
998.5	33.6898
999	32.6424
999.5	31.8475
1000	31.3732
1000.5	31.0877
1001	30.8746
1001.5	30.7007
1002	30.6478
1002.5	30.8209
1003	31.0488
1003.5	30.9626
1004	30.0212
1004.5	28.1905
1005	25.7569
1005.5	23.5249
1006	22.2038
1006.5	22.3175
1007	23.4024
1007.5	24.7401
1008	25.5374
1008.5	25.5433
1009	24.8111
1009.5	23.6896
1010	22.6085
1010.5	21.857
1011	21.5336
1011.5	21.5637
1012	21.7923
1012.5	21.9087
1013	21.6716
1013.5	20.9736
1014	20.1401
1014.5	19.6694
1015	20.0527
1015.5	21.2906
1016	23.0251
1016.5	24.4866
1017	25.1782
1017.5	24.8119
1018	23.9121
1018.5	22.9525
1019	22.3447
1019.5	22.1085
1020	22.1157
1020.5	22.1926
1021	22.3241
1021.5	22.6617
1022	23.2666
1022.5	24.0452
1023	24.6925
1023.5	24.9206
1024	24.5675
1024.5	23.7834
1025	22.9964
1025.5	22.6513
1026	22.9382
1026.5	23.7603
1027	24.8689
1027.5	25.8512
1028	26.4566
1028.5	26.5875
1029	26.4465
1029.5	26.2394
1030	26.1267
1030.5	26.0783
1031	25.8781
1031.5	25.3131
1032	24.3288
1032.5	23.1153
1033	22.1629
1033.5	21.9031
1034	22.4679
1034.5	23.4312
1035	24.1407
1035.5	23.9965
1036	22.8578
1036.5	20.8806
1037	18.7977
1037.5	17.1568
1038	16.3452
1038.5	16.2124
1039	16.6035
1039.5	17.304
1040	18.172
1040.5	19.123
1041	19.9621
1041.5	20.4582
1042	20.3024
1042.5	19.5737
1043	18.4103
1043.5	17.1022
1044	15.9188
1044.5	15.0193
1045	14.4022
1045.5	13.9915
1046	13.754
1046.5	13.644
1047	13.6927
1047.5	13.9901
1048	14.5273
1048.5	15.2356
1049	15.8499
1049.5	16.0863
1050	15.6906
1050.5	14.8409
1051	13.946
1051.5	13.6322
1052	14.1131
1052.5	15.3186
1053	16.7684
1053.5	17.8646
1054	18.173
1054.5	17.6937
1055	16.7337
1055.5	15.6254
1056	14.6938
1056.5	14.0929
1057	13.9056
1057.5	13.9881
1058	14.186
1058.5	14.292
1059	14.2137
1059.5	13.9864
1060	13.7726
1060.5	13.6463
1061	13.4803
1061.5	13.0282
1062	12.1344
1062.5	10.9457
1063	9.95663
1063.5	9.68708
1064	10.2043
1064.5	11.1034
1065	11.8448
1065.5	12.1502
1066	12.1508
1066.5	12.2568
1067	12.7288
1067.5	13.4959
1068	14.1557
1068.5	14.3788
1069	14.07
1069.5	13.5546
1070	13.182
1070.5	13.1558
1071	13.2594
1071.5	13.2297
1072	12.846
1072.5	12.1697
1073	11.3454
1073.5	10.6054
1074	10.1379
1074.5	10.1797
1075	10.7542
1075.5	11.7395
1076	12.7796
1076.5	13.3745
1077	13.1305
1077.5	12.0926
1078	10.8802
1078.5	10.2382
1079	10.6329
1079.5	11.9746
1080	13.8675
1080.5	15.591
1081	16.721
1081.5	17.07
1082	16.9213
1082.5	16.4811
1083	15.9289
1083.5	15.3519
1084	14.828
1084.5	14.4693
1085	14.3679
1085.5	14.5756
1086	14.8955
1086.5	15.122
1087	15.0918
1087.5	14.8771
1088	14.6732
1088.5	14.6824
1089	14.9017
1089.5	15.1033
1090	14.9616
1090.5	14.3379
1091	13.3972
1091.5	12.6009
1092	12.3281
1092.5	12.6449
1093	13.2056
1093.5	13.5751
1094	13.5512
1094.5	13.3163
1095	13.3888
1095.5	14.1137
1096	15.5174
1096.5	17.1287
1097	18.2568
1097.5	18.4073
1098	17.6658
1098.5	16.5686
1099	15.8034
1099.5	15.7929
1100	16.5737
1100.5	17.8518
1101	18.9844
1101.5	19.4438
1102	18.9473
1102.5	17.7396
1103	16.3061
1103.5	15.289
1104	15.0355
1104.5	15.7036
1105	16.7552
1105.5	17.6436
1106	17.8187
1106.5	17.2701
1107	16.26
1107.5	15.3805
1108	15.0745
1108.5	15.5853
1109	16.4803
1109.5	17.2169
1110	17.2069
1110.5	16.4398
1111	15.1393
1111.5	13.829
1112	12.9455
1112.5	12.7231
1113	12.9737
1113.5	13.3705
1114	13.6147
1114.5	13.6292
1115	13.4871
1115.5	13.2962
1116	13.1
1116.5	12.8445
1117	12.4492
1117.5	11.8941
1118	11.1882
1118.5	10.427
1119	9.71657
1119.5	9.24197
1120	9.13175
1120.5	9.50407
1121	10.2983
1121.5	11.197
1122	11.805
1122.5	11.8439
1123	11.3589
1123.5	10.6415
1124	10.2038
1124.5	10.3776
1125	11.2684
1125.5	12.4637
1126	13.5103
1126.5	14.0481
1127	14.0662
1127.5	13.65
1128	13.0378
1128.5	12.3539
1129	11.6245
1129.5	10.8863
1130	10.2491
1130.5	9.9416
1131	10.1002
1131.5	10.7992
1132	11.7889
1132.5	12.7406
1133	13.348
1133.5	13.5919
1134	13.6017
1134.5	13.571
1135	13.6055
1135.5	13.6417
1136	13.5155
1136.5	13.1478
1137	12.5742
1137.5	11.9976
1138	11.5747
1138.5	11.4324
1139	11.5163
1139.5	11.7872
1140	12.1758
1140.5	12.539
1141	12.6635
1141.5	12.3549
1142	11.6238
1142.5	10.7393
1143	10.1869
1143.5	10.2801
1144	11.1007
1144.5	12.1476
1145	12.9466
1145.5	13.214
1146	13.1527
1146.5	13.1551
1147	13.5218
1147.5	14.1653
1148	14.6874
1148.5	14.7881
1149	14.4532
1149.5	13.9614
1150	13.6718
1150.5	13.7561
1151	14.1196
1151.5	14.5674
1152	15.0275
1152.5	15.5641
1153	16.2325
1153.5	16.9424
1154	17.4584
1154.5	17.5731
1155	17.2599
1155.5	16.7793
1156	16.4308
1156.5	16.3959
1157	16.6153
1157.5	16.8587
1158	16.8532
1158.5	16.475
1159	15.7529
1159.5	14.972
1160	14.4538
1160.5	14.4659
1161	14.9789
1161.5	15.7517
1162	16.2587
1162.5	16.0645
1163	14.9045
1163.5	13.2614
1164	11.6668
1164.5	10.7126
1165	10.5382
1165.5	11.0688
1166	11.8768
1166.5	12.5644
1167	12.808
1167.5	12.5824
1168	11.9836
1168.5	11.1779
1169	10.4424
1169.5	10.0475
1170	10.2075
1170.5	10.8935
1171	11.998
1171.5	13.1809
1172	14.1381
1172.5	14.5456
1173	14.4435
1173.5	13.8815
1174	12.9994
1174.5	12.0239
1175	11.1103
1175.5	10.343
1176	9.7006
1176.5	9.12641
1177	8.56557
1177.5	8.06373
1178	7.80192
1178.5	7.90783
1179	8.49874
1179.5	9.53662
1180	10.7847
1180.5	11.9636
1181	12.7939
1181.5	13.1163
1182	12.8156
1182.5	12.1626
1183	11.4057
1183.5	10.8504
1184	10.6342
1184.5	10.7642
1185	11.0216
1185.5	11.1233
1186	10.7763
1186.5	9.97459
1187	8.93408
1187.5	8.04161
1188	7.63324
1188.5	7.91827
1189	8.81144
1189.5	9.88
1190	10.653
1190.5	10.855
1191	10.6001
1191.5	10.2964
1192	10.359
1192.5	10.9111
1193	11.7513
1193.5	12.4411
1194	12.6763
1194.5	12.4764
1195	12.1451
1195.5	11.9928
1196	12.0461
1196.5	12.1159
1197	11.9171
1197.5	11.4185
1198	10.7613
1198.5	10.2555
1199	10.1234
1199.5	10.5059
1200	11.2986
1200.5	12.2564
1201	13.0945
1201.5	13.5504
1202	13.4314
1202.5	12.6307
1203	11.456
1203.5	10.265
1204	9.46091
1204.5	9.14191
1205	9.16875
1205.5	9.19421
1206	9
1206.5	8.4969
1207	7.86032
1207.5	7.21989
1208	6.64917
1208.5	6.15509
1209	5.82723
1209.5	5.84848
1210	6.36544
1210.5	7.49912
1211	8.95628
1211.5	10.3676
1212	11.286
1212.5	11.6018
1213	11.3413
1213.5	10.7331
1214	9.97917
1214.5	9.11404
1215	8.14904
1215.5	7.15616
1216	6.39568
1216.5	6.13253
1217	6.61506
1217.5	7.81076
1218	9.24745
1218.5	10.4355
1219	11.0133
1219.5	11.0232
1220	10.7401
1220.5	10.6211
1221	10.8719
1221.5	11.345
1222	11.5611
1222.5	11.1454
1223	10.0371
1223.5	8.63511
1224	7.42934
1224.5	6.76274
1225	6.64647
1225.5	7.00855
1226	7.63724
1226.5	8.61729
1227	10.1971
1227.5	12.365
1228	14.9802
1228.5	17.6199
1229	19.9024
1229.5	21.5048
1230	22.5117
1230.5	22.9832
1231	22.7259
1231.5	21.7081
1232	19.8372
1232.5	17.3193
1233	14.7127
1233.5	12.6207
1234	11.3105
1234.5	10.6294
1235	10.3262
1235.5	10.0609
1236	9.72836
1236.5	9.33113
1237	8.87192
1237.5	8.22609
1238	7.28658
1238.5	6.1627
1239	5.17299
1239.5	4.67067
1240	4.76795
1240.5	5.31887
1241	5.78283
1241.5	5.76175
1242	5.254
1242.5	4.71797
1243	4.66512
1243.5	5.311
1244	6.43193
1244.5	7.59102
1245	8.37703
1245.5	8.67468
1246	8.6455
1246.5	8.58122
1247	8.58422
1247.5	8.63038
1248	8.69404
1248.5	8.90044
1249	9.4405
1249.5	10.3581
1250	11.3582
1250.5	11.8729
1251	11.4269
1251.5	9.90141
1252	7.96994
1252.5	6.51701
1253	6.2962
1253.5	7.24406
1254	8.71112
1254.5	9.73528
1255	9.83289
1255.5	9.0291
1256	8.13023
1256.5	7.85348
1257	8.5896
1257.5	9.92657
1258	11.2758
1258.5	12.133
1259	12.382
1259.5	12.0601
1260	11.4632
1260.5	10.6777
1261	9.67904
1261.5	8.53516
1262	7.41463
1262.5	6.61292
1263	6.32946
1263.5	6.72075
1264	7.56459
1264.5	8.57539
1265	9.41999
1265.5	9.95129
1266	10.1142
1266.5	9.94882
1267	9.58075
1267.5	9.06908
1268	8.48813
1268.5	7.91411
1269	7.48503
1269.5	7.32192
1270	7.54086
1270.5	8.21744
1271	9.18076
1271.5	10.2303
1272	11.0773
1272.5	11.5505
1273	11.4784
1273.5	10.8914
1274	9.87031
1274.5	8.55242
1275	7.3166
1275.5	6.61926
1276	6.85992
1276.5	7.89035
1277	9.31779
1277.5	10.4052
1278	10.6523
1278.5	9.81983
1279	8.54099
1279.5	7.55474
1280	7.48287
1280.5	8.15156
1281	9.15929
1281.5	10.0043
1282	10.5614
1282.5	11.0619
1283	11.8372
1283.5	12.8337
1284	13.5326
1284.5	13.4187
1285	12.2355
1285.5	10.2599
1286	8.30969
1286.5	7.13376
1287	6.90534
1287.5	7.2923
1288	7.90948
1288.5	8.44361
1289	8.84169
1289.5	9.08866
1290	9.09887
1290.5	8.68276
1291	7.82254
1291.5	6.86972
1292	6.41079
1292.5	6.84184
1293	8.08135
1293.5	9.57958
1294	10.5312
1294.5	10.5587
1295	9.76256
1295.5	8.81091
1296	8.29662
1296.5	8.50104
1297	9.21144
1297.5	10.0315
1298	10.617
1298.5	10.859
1299	10.7548
1299.5	10.4723
1300	10.0954
1300.5	9.70713
1301	9.38032
1301.5	9.18836
1302	9.13749
1302.5	9.16487
1303	9.15843
1303.5	9.03599
1304	8.81997
1304.5	8.66446
1305	8.73074
1305.5	9.13494
1306	9.81035
1306.5	10.5347
1307	11.0058
1307.5	11.0768
1308	10.7662
1308.5	10.1407
1309	9.39523
1309.5	8.62541
1310	7.92117
1310.5	7.379
1311	7.15752
1311.5	7.3378
1312	7.87499
1312.5	8.67113
1313	9.50408
1313.5	10.2497
1314	10.85
1314.5	11.3216
1315	11.5753
1315.5	11.4612
1316	10.9213
1316.5	9.95528
1317	8.85257
1317.5	7.93397
1318	7.52394
1318.5	7.59311
1319	8.06236
1319.5	8.73331
1320	9.34293
1320.5	9.62766
1321	9.46277
1321.5	8.90749
1322	8.13098
1322.5	7.46631
1323	7.13698
1323.5	7.23361
1324	7.4839
1324.5	7.64603
1325	7.63484
1325.5	7.61667
1326	7.90023
1326.5	8.65082
1327	9.75103
1327.5	10.8105
1328	11.4601
1328.5	11.5398
1329	11.1564
1329.5	10.691
1330	10.4513
1330.5	10.498
1331	10.6588
1331.5	10.7359
1332	10.6722
1332.5	10.5553
1333	10.5365
1333.5	10.6198
1334	10.6464
1334.5	10.4076
1335	9.88186
1335.5	9.21494
1336	8.7244
1336.5	8.64206
1337	9.05676
1337.5	9.71202
1338	10.3949
1338.5	10.9179
1339	11.2365
1339.5	11.3106
1340	11.1368
1340.5	10.7395
1341	10.1331
1341.5	9.46372
1342	8.89791
1342.5	8.65648
1343	8.75844
1343.5	9.13401
1344	9.63026
1344.5	10.0929
1345	10.4506
1345.5	10.7269
1346	10.9595
1346.5	11.0912
1347	11.0179
1347.5	10.6461
1348	9.99988
1348.5	9.35983
1349	9.10287
1349.5	9.43162
1350	10.1903
1350.5	11.0438
1351	11.563
1351.5	11.5267
1352	10.82
1352.5	9.83226
1353	8.8793
1353.5	8.32228
1354	8.37545
1354.5	9.33411
1355	11.2889
1355.5	14.0339
1356	17.2623
1356.5	20.3807
1357	22.8539
1357.5	24.0224
1358	23.7295
1358.5	21.8785
1359	18.8338
1359.5	15.3093
1360	12.1077
1360.5	9.94035
1361	9.14723
1361.5	9.70209
1362	10.646
1362.5	11.241
1363	10.911
1363.5	9.82209
1364	8.45541
1364.5	7.49179
1365	7.15125
1365.5	7.33122
1366	7.56523
1366.5	7.57521
1367	7.33561
1367.5	7.15192
1368	7.269
1368.5	7.75574
1369	8.46418
1369.5	9.25352
1370	9.99648
1370.5	10.6205
1371	10.9953
1371.5	11.0784
1372	10.8479
1372.5	10.3461
1373	9.66855
1373.5	8.7628
1374	7.56207
1374.5	6.17662
1375	5.03593
1375.5	4.72691
1376	5.65861
1376.5	7.72811
1377	9.93849
1377.5	11.3666
1378	11.3911
1378.5	10.3589
1379	9.06245
1379.5	8.42013
1380	8.68477
1380.5	9.66315
1381	10.6252
1381.5	11.1069
1382	11.0506
1382.5	10.9332
1383	11.0934
1383.5	11.503
1384	11.7787
1384.5	11.4521
1385	10.7049
1385.5	10.1705
1386	10.753
1386.5	12.4623
1387	14.7391
1387.5	16.2646
1388	16.2462
1388.5	14.5369
1389	12.0549
1389.5	9.85767
1390	8.82222
1390.5	8.81772
1391	9.26088
1391.5	9.51413
1392	9.27059
1392.5	8.53289
1393	7.66783
1393.5	7.14539
1394	7.33961
1394.5	8.14047
1395	9.15512
1395.5	9.75243
1396	9.60483
1396.5	8.78856
1397	7.74181
1397.5	6.94594
1398	6.6978
1398.5	7.01492
1399	7.74877
1399.5	8.75843
1400	9.75692
1400.5	10.4146
1401	10.3191
1401.5	9.57871
1402	8.65492
1402.5	8.23244
1403	8.56986
1403.5	9.52336
1404	10.4382
1404.5	10.8456
1405	10.6666
1405.5	10.345
1406	10.1569
1406.5	10.1051
1407	9.90765
1407.5	9.35243
1408	8.56854
1408.5	7.88464
1409	7.67742
1409.5	8.01247
1410	8.72991
1410.5	9.4655
1411	9.85108
1411.5	9.61674
1412	8.74845
1412.5	7.67695
1413	7.05509
1413.5	7.30577
1414	8.34347
1414.5	9.68254
1415	10.534
1415.5	10.4938
1416	9.72541
1416.5	8.88721
1417	8.48832
1417.5	8.67397
1418	9.15124
1418.5	9.52957
1419	9.64117
1419.5	9.56638
1420	9.5096
1420.5	9.61789
1421	9.86348
1421.5	10.0664
1422	10.0648
1422.5	9.76002
1423	9.25462
1423.5	8.7687
1424	8.57041
1424.5	8.72549
1425	9.19754
1425.5	9.86456
1426	10.5458
1426.5	11.1493
1427	11.6328
1427.5	11.9777
1428	12.1191
1428.5	12.0624
1429	11.8766
1429.5	11.6433
1430	11.3856
1430.5	11.0043
1431	10.3248
1431.5	9.36206
1432	8.35666
1432.5	7.70923
1433	7.66874
1433.5	8.32948
1434	9.24051
1434.5	9.95378
1435	10.2005
1435.5	10.1699
1436	10.1408
1436.5	10.3163
1437	10.5513
1437.5	10.5461
1438	10.1851
1438.5	9.64662
1439	9.40596
1439.5	9.71494
1440	10.5139
1440.5	11.4333
1441	12.0499
1441.5	12.0787
1442	11.6097
1442.5	10.9191
1443	10.2361
1443.5	9.73781
1444	9.54114
1444.5	9.75217
1445	10.2333
1445.5	10.8509
1446	11.422
1446.5	11.8433
1447	12.067
1447.5	12.0892
1448	11.8396
1448.5	11.1265
1449	10.0229
1449.5	8.75586
1450	7.74726
1450.5	7.20154
1451	7.09889
1451.5	7.09396
1452	6.84112
1452.5	6.2536
1453	5.64834
1453.5	5.39376
1454	5.84644
1454.5	6.79898
1455	7.83316
1455.5	8.45588
1456	8.49755
1456.5	8.03666
1457	7.56175
1457.5	7.50111
1458	8.08301
1458.5	8.95142
1459	9.63115
1459.5	9.5843
1460	9.00506
1460.5	8.36845
1461	8.32053
1461.5	9.08294
1462	10.3975
1462.5	11.367
1463	11.3913
1463.5	10.158
1464	8.40528
1464.5	6.97348
1465	6.51191
1465.5	6.854
1466	7.55499
1466.5	8.03813
1467	8.13982
1467.5	8.08901
1468	8.19593
1468.5	8.47902
1469	8.62384
1469.5	8.30267
1470	7.49349
1470.5	6.5591
1471	5.9413
1471.5	5.97053
1472	6.48857
1472.5	7.13731
1473	7.60405
1473.5	7.8013
1474	7.73309
1474.5	7.49099
1475	7.23827
1475.5	7.15066
1476	7.36233
1476.5	7.82433
1477	8.22814
1477.5	8.22602
1478	7.7177
1478.5	6.95984
1479	6.55067
1479.5	6.85712
1480	7.69583
1480.5	8.4845
1481	8.69957
1481.5	8.39846
1482	8.12894
1482.5	8.48113
1483	9.33784
1483.5	10.1739
1484	10.1864
1484.5	9.39302
1485	8.28225
1485.5	7.69078
1486	8.06847
1486.5	9.34135
1487	10.6816
1487.5	11.4894
1488	11.36
1488.5	10.585
1489	9.54525
1489.5	8.64469
1490	8.07963
1490.5	8.00564
1491	8.42422
1491.5	9.18779
1492	10.0707
1492.5	10.7284
1493	10.8621
1493.5	10.244
1494	9.22662
1494.5	8.25395
1495	7.87981
1495.5	8.37743
1496	9.69326
1496.5	11.1232
1497	12.0311
1497.5	11.7988
1498	10.6644
1498.5	9.2012
1499	8.20932
1499.5	8.07451
1500	8.85101
1500.5	9.95199
1501	10.6968
1501.5	10.597
1502	9.87034
1502.5	8.95205
1503	8.361
1503.5	8.10849
1504	7.89938
1504.5	7.35819
1505	6.50115
1505.5	5.80942
1506	5.76279
1506.5	6.40213
1507	7.31617
1507.5	7.79406
1508	7.6161
1508.5	7.09505
1509	6.78223
1509.5	6.96081
1510	7.31596
1510.5	7.41895
1511	7.33024
1511.5	7.17819
1512	7.26125
1512.5	7.70855
1513	8.34753
1513.5	8.94394
1514	9.32442
1514.5	9.40082
1515	9.15061
1515.5	8.71493
1516	8.24058
1516.5	7.87393
1517	7.85175
1517.5	8.05955
1518	8.37252
1518.5	8.67294
1519	8.82192
1519.5	8.80536
1520	8.73198
1520.5	8.75493
1521	9.0976
1521.5	9.85861
1522	10.828
1522.5	11.8324
1523	12.7808
1523.5	13.6914
1524	14.5585
1524.5	15.2023
1525	15.3504
1525.5	14.7378
1526	13.5469
1526.5	12.3181
1527	11.5021
1527.5	11.3011
1528	11.4061
1528.5	11.2773
1529	10.685
1529.5	9.79727
1530	9.15736
1530.5	9.27234
1531	10.1438
1531.5	11.4435
1532	12.6658
1532.5	13.4131
1533	13.5412
1533.5	13.096
1534	12.1469
1534.5	10.9317
1535	9.81705
1535.5	9.22645
1536	9.44807
1536.5	10.3222
1537	11.4196
1537.5	12.2286
1538	12.5217
1538.5	12.4528
1539	12.2946
1539.5	12.2384
1540	12.2992
1540.5	12.4189
1541	12.5971
1541.5	12.8611
1542	13.1658
1542.5	13.3201
1543	13.2016
1543.5	12.8301
1544	12.3604
1544.5	11.9665
1545	11.5995
1545.5	11.1364
1546	10.5301
1546.5	9.95028
1547	9.66198
1547.5	9.68677
1548	9.84726
1548.5	9.88952
1549	9.83233
1549.5	10.0551
1550	10.8845
1550.5	12.3524
1551	13.9135
1551.5	14.7435
1552	14.4692
1552.5	13.2085
1553	11.5728
1553.5	10.3923
1554	10.0695
1554.5	10.5679
1555	11.5722
1555.5	12.5642
1556	13.1448
1556.5	13.1811
1557	12.7467
1557.5	12.114
1558	11.5384
1558.5	11.1686
1559	10.9724
1559.5	10.8306
1560	10.6591
1560.5	10.4506
1561	10.2745
1561.5	10.2145
1562	10.3035
1562.5	10.5228
1563	10.7637
1563.5	10.7641
1564	10.2978
1564.5	9.27516
1565	7.83861
1565.5	6.51691
1566	5.8986
1566.5	6.18809
1567	7.20803
1567.5	8.42349
1568	9.16676
1568.5	9.30184
1569	9.05291
1569.5	8.8204
1570	8.94135
1570.5	9.44033
1571	10.1731
1571.5	11.0527
1572	12.0463
1572.5	13.0284
1573	13.6531
1573.5	13.5315
1574	12.4925
1574.5	10.9906
1575	9.80194
1575.5	9.59967
1576	10.3502
1576.5	11.2247
1577	11.3836
1577.5	10.3598
1578	8.63062
1578.5	7.27326
1579	6.97403
1579.5	7.8675
1580	9.53464
1580.5	11.151
1581	12.3025
1581.5	12.9048
1582	13.048
1582.5	12.8936
1583	12.6444
1583.5	12.4341
1584	12.3146
1584.5	12.1634
1585	11.6554
1585.5	10.6072
1586	9.16703
1586.5	7.85594
1587	7.28737
1587.5	7.76675
1588	8.94167
1588.5	10.129
1589	10.7504
1589.5	10.6869
1590	10.1861
1590.5	9.68926
1591	9.4193
1591.5	9.33499
1592	9.3253
1592.5	9.32108
1593	9.33602
1593.5	9.36159
1594	9.34611
1594.5	9.25648
1595	9.19782
1595.5	9.40681
1596	10.0002
1596.5	10.8986
1597	11.8205
1597.5	12.4597
1598	12.8301
1598.5	13.1961
1599	13.8453
1599.5	14.801
1600	15.7522
1600.5	16.27
1601	16.1312
1601.5	15.4361
1602	14.4544
1602.5	13.3491
1603	12.0932
1603.5	10.589
1604	8.96422
1604.5	7.57669
1605	6.93015
1605.5	7.52507
1606	8.9776
1606.5	10.6703
1607	11.9243
1607.5	12.2708
1608	11.9817
1608.5	11.7651
1609	12.0737
1609.5	12.8697
1610	13.5056
1610.5	13.2592
1611	12.0931
1611.5	10.659
1612	9.93452
1612.5	10.3995
1613	11.8517
1613.5	13.4073
1614	14.156
1614.5	13.8642
1615	12.7449
1615.5	11.259
1616	9.95846
1616.5	9.12933
1617	8.85324
1617.5	9.05643
1618	9.51361
1618.5	9.89217
1619	10.0995
1619.5	10.2686
1620	10.5984
1620.5	11.066
1621	11.2925
1621.5	10.881
1622	9.81134
1622.5	8.58558
1623	7.83644
1623.5	7.88599
1624	8.51916
1624.5	9.12583
1625	9.39247
1625.5	9.37718
1626	9.32936
1626.5	9.46785
1627	9.70241
1627.5	9.92123
1628	10.1062
1628.5	10.3148
1629	10.5108
1629.5	10.4871
1630	10.0917
1630.5	9.41477
1631	8.90375
1631.5	9.06728
1632	10.1887
1632.5	12.0026
1633	13.8626
1633.5	15.1116
1634	15.3375
1634.5	14.4374
1635	12.8688
1635.5	11.3777
1636	10.4836
1636.5	10.3927
1637	10.9021
1637.5	11.37
1638	11.4064
1638.5	11.0077
1639	10.4875
1639.5	10.24
1640	10.3798
1640.5	10.68
1641	10.8259
1641.5	10.729
1642	10.6264
1642.5	10.9035
1643	11.9282
1643.5	13.5551
1644	15.2284
1644.5	16.3114
1645	16.271
1645.5	14.8372
1646	12.5483
1646.5	10.1064
1647	8.09663
1647.5	6.87459
1648	6.28153
1648.5	5.97497
1649	5.69884
1649.5	5.54219
1650	5.85612
1650.5	6.90579
1651	8.65897
1651.5	10.6206
1652	12.0729
1652.5	12.748
1653	12.8115
1653.5	12.7303
1654	12.9999
1654.5	13.6111
1655	14.2287
1655.5	14.5065
1656	14.2387
1656.5	13.5291
1657	12.5452
1657.5	11.5121
1658	10.7382
1658.5	10.5542
1659	11.1402
1659.5	12.3629
1660	13.5962
1660.5	14.0304
1661	13.3733
1661.5	11.8275
1662	9.98699
1662.5	8.5963
1663	8.03318
1663.5	8.25895
1664	9.09055
1664.5	10.2657
1665	11.4964
1665.5	12.5312
1666	13.1636
1666.5	13.2728
1667	12.901
1667.5	12.1185
1668	11.0627
1668.5	9.99626
1669	9.26762
1669.5	9.0317
1670	9.21664
1670.5	9.55412
1671	9.76312
1671.5	9.84654
1672	10.0509
1672.5	10.5837
1673	11.3547
1673.5	12.0307
1674	12.3179
1674.5	12.1068
1675	11.5617
1675.5	10.8285
1676	9.87834
1676.5	8.65017
1677	7.24388
1677.5	6.13192
1678	5.80647
1678.5	6.49359
1679	8.05691
1679.5	9.88972
1680	11.396
1680.5	12.1611
1681	12.1694
1681.5	11.7712
1682	11.3038
1682.5	10.9406
1683	10.6884
1683.5	10.4745
1684	10.3361
1684.5	10.3887
1685	10.6735
1685.5	11.0114
1686	11.0939
1686.5	10.7773
1687	10.312
1687.5	10.2348
1688	10.7713
1688.5	11.6663
1689	12.3361
1689.5	12.1575
1690	11.2631
1690.5	10.3419
1691	9.99466
1691.5	10.4086
1692	11.0993
1692.5	11.3891
1693	10.9426
1693.5	10.0503
1694	9.3301
1694.5	9.17131
1695	9.57143
1695.5	10.2427
1696	10.849
1696.5	11.3945
1697	12.0582
1697.5	12.9404
1698	13.8722
1698.5	14.4267
1699	14.2173
1699.5	13.2405
1700	11.8619
1700.5	10.6499
1701	9.96096
1701.5	9.85433
1702	10.1012
1702.5	10.2924
1703	10.2827
1703.5	10.2165
1704	10.4164
1704.5	11.1602
1705	12.3588
1705.5	13.6851
1706	14.869
1706.5	16.0746
1707	17.793
1707.5	20.3424
1708	23.526
1708.5	26.3773
1709	27.8526
1709.5	27.7897
1710	26.729
1710.5	25.5221
1711	24.5872
1711.5	23.5161
1712	21.5338
1712.5	18.3354
1713	14.5527
1713.5	11.208
1714	9.02999
1714.5	8.19721
1715	8.26638
1715.5	8.55455
1716	8.75951
1716.5	8.83266
1717	8.83417
1717.5	8.82922
1718	8.87368
1718.5	9.06412
1719	9.49755
1719.5	10.1132
1720	10.7122
1720.5	11.0242
1721	10.7887
1721.5	9.9895
1722	8.91212
1722.5	7.96449
1723	7.49501
1723.5	7.58944
1724	8.01968
1724.5	8.48859
1725	8.80092
1725.5	9.06047
1726	9.48703
1726.5	10.1357
1727	10.8443
1727.5	11.2898
1728	11.3203
1728.5	11.0317
1729	10.6542
1729.5	10.2854
1730	9.81248
1730.5	9.1137
1731	8.24084
1731.5	7.51579
1732	7.37946
1732.5	7.89147
1733	8.78522
1733.5	9.58609
1734	9.88675
1734.5	9.69061
1735	9.30817
1735.5	9.19702
1736	9.59528
1736.5	10.307
1737	10.9873
1737.5	11.3311
1738	11.2316
1738.5	10.9298
1739	10.7098
1739.5	10.7103
1740	10.8544
1740.5	10.8705
1741	10.4854
1741.5	9.52669
1742	8.02494
1742.5	6.47364
1743	5.53913
1743.5	5.71288
1744	7.08508
1744.5	9.06518
1745	10.7302
1745.5	11.3972
1746	10.9324
1746.5	9.93292
1747	9.11652
1747.5	8.85641
1748	9.17033
1748.5	9.77767
1749	10.2222
1749.5	10.127
1750	9.32643
1750.5	7.9114
1751	6.36348
1751.5	5.20283
1752	4.77029
1752.5	5.10952
1753	5.92244
1753.5	6.91026
1754	7.96335
1754.5	8.9743
1755	9.66607
1755.5	9.7541
1756	9.20318
1756.5	8.42916
1757	8.26327
1757.5	9.05881
1758	10.5631
1758.5	12.1169
1759	12.9692
1759.5	12.9177
1760	12.1721
1760.5	11.1011
1761	9.98264
1761.5	8.92259
1762	7.96751
1762.5	7.16574
1763	6.57332
1763.5	6.24938
1764	6.30209
1764.5	6.80833
1765	7.68232
1765.5	8.51581
1766	8.84055
1766.5	8.5004
1767	7.81643
1767.5	7.53715
1768	8.00154
1768.5	8.77805
1769	9.14956
1769.5	8.71033
1770	8.06058
1770.5	8.11184
1771	9.32233
1771.5	11.0452
1772	11.707
1772.5	10.6436
1773	8.41245
1773.5	6.49125
1774	6.1811
1774.5	7.37344
1775	9.00473
1775.5	9.77688
1776	9.35344
1776.5	8.39543
1777	7.5438
1777.5	7.06247
1778	6.83995
1778.5	6.77055
1779	7.03491
1779.5	7.83263
1780	8.95759
1780.5	9.81223
1781	10.0041
1781.5	9.5716
1782	8.94014
1782.5	8.52458
1783	8.27197
1783.5	7.84223
1784	7.05875
1784.5	6.26433
1785	6.02768
1785.5	6.6843
1786	8.10162
1786.5	9.61476
1787	10.5201
1787.5	10.5811
1788	10.0465
1788.5	9.37185
1789	8.85526
1789.5	8.48125
1790	8.07725
1790.5	7.47066
1791	6.66218
1791.5	5.74462
1792	4.82125
1792.5	4.05091
1793	3.70905
1793.5	4.05181
1794	5.13718
1794.5	6.67754
1795	8.05528
1795.5	8.91432
1796	9.44719
1796.5	10.116
1797	11.1649
1797.5	12.1795
1798	12.4893
1798.5	11.6746
1799	10.0318
1799.5	8.68964
1800	8.41646
1800.5	9.22865
1801	10.4065
1801.5	11.0055
1802	10.6677
1802.5	9.65289
1803	8.65398
1803.5	8.32387
1804	8.69446
1804.5	9.38791
1805	9.90703
1805.5	9.90961
1806	9.41015
1806.5	8.59788
1807	7.7379
1807.5	7.12535
1808	6.97562
1808.5	7.35286
1809	8.14003
1809.5	8.99998
1810	9.54082
1810.5	9.59618
1811	9.27023
1811.5	8.89187
1812	8.80154
1812.5	9.10495
1813	9.73807
1813.5	10.5828
1814	11.4706
1814.5	12.2118
1815	12.6185
1815.5	12.5581
1816	12.0577
1816.5	11.2732
1817	10.3216
1817.5	9.26206
1818	8.22863
1818.5	7.5104
1819	7.39879
1819.5	7.96364
1820	8.84145
1820.5	9.30403
1821	8.87525
1821.5	7.71566
1822	6.56537
1822.5	6.19538
1823	6.74929
1823.5	7.79531
1824	8.61525
1824.5	8.82129
1825	8.71595
1825.5	8.86488
1826	9.5131
1826.5	10.1627
1827	10.101
1827.5	9.08111
1828	7.53293
1828.5	6.41322
1829	6.27438
1829.5	6.92202
1830	7.64901
1830.5	7.75951
1831	7.34292
1831.5	6.8837
1832	6.84717
1832.5	7.42396
1833	8.35953
1833.5	9.27381
1834	9.85211
1834.5	9.90441
1835	9.49383
1835.5	8.8667
1836	8.23037
1836.5	7.69155
1837	7.24365
1837.5	6.88032
1838	6.67612
1838.5	6.71415
1839	6.9496
1839.5	7.17642
1840	7.34415
1840.5	7.66017
1841	8.45011
1841.5	9.60213
1842	10.5625
1842.5	10.7007
1843	9.79468
1843.5	8.5597
1844	7.97603
1844.5	8.56279
1845	9.91267
1845.5	11.0164
1846	11.2528
1846.5	10.6526
1847	9.70315
1847.5	8.94951
1848	8.5235
1848.5	8.29956
1849	8.17241
1849.5	8.27649
1850	8.78499
1850.5	9.67385
1851	10.6636
1851.5	11.294
1852	11.2897
1852.5	10.6888
1853	9.75757
1853.5	8.88282
1854	8.39156
1854.5	8.37197
1855	8.64949
1855.5	8.82355
1856	8.41133
1856.5	7.29867
1857	5.83922
1857.5	4.7755
1858	4.8605
1858.5	6.04314
1859	7.66629
1859.5	8.84424
1860	9.08432
1860.5	8.75244
1861	8.30159
1861.5	7.92134
1862	7.45341
1862.5	6.78719
1863	6.20895
1863.5	6.24083
1864	7.26428
1864.5	8.91311
1865	10.358
1865.5	11.0375
1866	10.9901
1866.5	10.8688
1867	11.2268
1867.5	12.0742
1868	12.884
1868.5	12.864
1869	11.7497
1869.5	9.85599
1870	7.90059
1870.5	6.66598
1871	6.30286
1871.5	6.593
1872	7.21282
1872.5	7.98025
1873	8.91914
1873.5	10.0578
1874	11.2104
1874.5	11.872
1875	11.4799
1875.5	9.94528
1876	7.8587
1876.5	6.27801
1877	6.10586
1877.5	7.19318
1878	8.63191
1878.5	9.27402
1879	8.53156
1879.5	7.11569
1880	6.11802
1880.5	6.26572
1881	7.35286
1881.5	8.24382
1882	8.24288
1882.5	7.36825
1883	6.2008
1883.5	5.38118
1884	5.15141
1884.5	5.52137
1885	6.43163
1885.5	7.67606
1886	8.8364
1886.5	9.39461
1887	8.97286
1887.5	7.84865
1888	6.7716
1888.5	6.32637
1889	6.65996
1889.5	7.36569
1890	7.80681
1890.5	7.65256
1891	6.99371
1891.5	6.37975
1892	6.48593
1892.5	7.6136
1893	9.48896
1893.5	11.177
1894	11.7187
1894.5	10.8824
1895	9.17025
1895.5	7.56466
1896	6.86482
1896.5	7.0418
1897	7.56053
1897.5	7.80987
1898	7.61131
1898.5	7.36169
1899	7.51875
1899.5	8.20679
1900	9.07506
1900.5	9.6565
1901	9.81471
1901.5	9.74346
1902	9.76802
1902.5	9.9354
1903	10.0033
1903.5	9.7385
1904	9.20992
1904.5	8.86877
1905	9.02584
1905.5	9.55203
1906	9.89927
1906.5	9.60628
1907	8.75741
1907.5	7.74662
1908	6.99664
1908.5	6.7321
1909	6.94426
1909.5	7.61242
1910	8.6533
1910.5	9.74306
1911	10.3564
1911.5	10.1545
1912	9.21607
1912.5	8.07437
1913	7.2185
1913.5	6.70848
1914	6.38038
1914.5	6.14741
1915	6.17555
1915.5	6.63882
1916	7.48034
1916.5	8.38687
1917	9.01172
1917.5	9.2901
1918	9.30702
1918.5	9.10282
1919	8.6097
1919.5	7.92371
1920	7.36742
1920.5	7.33628
1921	7.99221
1921.5	8.91393
1922	9.60396
1922.5	9.82083
1923	9.75938
1923.5	9.82219
1924	10.0366
1924.5	10.0334
1925	9.34975
1925.5	8.15861
1926	7.30648
1926.5	7.56499
1927	8.99338
1927.5	10.5543
1928	11.0739
1928.5	10.1782
1929	8.50703
1929.5	7.38113
1930	7.47611
1930.5	8.47852
1931	9.49085
1931.5	9.65153
1932	8.97794
1932.5	7.90283
1933	6.82643
1933.5	5.88276
1934	5.07925
1934.5	4.56535
1935	4.53757
1935.5	5.02853
1936	5.72115
1936.5	6.27604
1937	6.58091
1937.5	6.75315
1938	6.95749
1938.5	7.18451
1939	7.35595
1939.5	7.49447
1940	7.78138
1940.5	8.27369
1941	8.72665
1941.5	8.71752
1942	7.92167
1942.5	6.58511
1943	5.15354
1943.5	4.01853
1944	3.37998
1944.5	3.23496
1945	3.62617
1945.5	4.5957
1946	5.95933
1946.5	7.08416
1947	7.36365
1947.5	6.69392
1948	5.68101
1948.5	5.36983
1949	6.12161
1949.5	7.36467
1950	8.14709
1950.5	7.97229
1951	7.46005
1951.5	7.4361
1952	8.20075
1952.5	9.12283
1953	9.22229
1953.5	8.25355
1954	6.79578
1954.5	5.85929
1955	5.90314
1955.5	6.58423
1956	7.32811
1956.5	7.81247
1957	8.18778
1957.5	8.64313
1958	9.06188
1958.5	9.11093
1959	8.63355
1959.5	8.00912
1960	7.87839
1960.5	8.80975
1961	10.8562
1961.5	13.1166
1962	14.4239
1962.5	13.8934
1963	11.5031
1963.5	8.65305
1964	6.76428
1964.5	6.5141
1965	7.44043
1965.5	8.24131
1966	8.19638
1966.5	7.40906
1967	6.43398
1967.5	5.57356
1968	4.72269
1968.5	3.90567
1969	3.52723
1969.5	4.10149
1970	5.49229
1970.5	7.10778
1971	8.34871
1971.5	9.07017
1972	9.60823
1972.5	10.0908
1973	10.2995
1973.5	9.87996
1974	8.96872
1974.5	8.0272
1975	7.44818
1975.5	7.29268
1976	7.30646
1976.5	7.33189
1977	7.3488
1977.5	7.33308
1978	7.24874
1978.5	7.24896
1979	7.62951
1979.5	8.51758
1980	9.42972
1980.5	9.54968
1981	8.49853
1981.5	6.68682
1982	5.2351
1982.5	4.93136
1983	5.74773
1983.5	7.11899
1984	8.38425
1984.5	9.22388
1985	9.5859
1985.5	9.49276
1986	9.0512
1986.5	8.56511
1987	8.31893
1987.5	8.41566
1988	8.78266
1988.5	9.33115
1989	10.0146
1989.5	10.6739
1990	10.9765
1990.5	10.6812
1991	10.1221
1991.5	9.86852
1992	10.2133
1992.5	10.7112
1993	10.5329
1993.5	9.44226
1994	7.98493
1994.5	7.15366
1995	7.34107
1995.5	8.16536
1996	9.04732
1996.5	9.67228
1997	10.1031
1997.5	10.3642
1998	10.3109
1998.5	9.83813
1999	9.14583
1999.5	8.51838
2000	7.97886
2000.5	7.34363
2001	6.56544
2001.5	5.9626
2002	5.86639
2002.5	6.32987
2003	7.08919
2003.5	7.8347
2004	8.48103
2004.5	8.97497
2005	9.11369
2005.5	8.76663
2006	8.17109
2006.5	7.84603
2007	8.20977
2007.5	8.95764
2008	9.33049
2008.5	8.84181
2009	7.70097
2009.5	6.8052
2010	6.77111
2010.5	7.4764
2011	8.20626
2011.5	8.11447
2012	7.08108
2012.5	5.58744
2013	4.40821
2013.5	4.29053
2014	5.21908
2014.5	6.66979
2015	7.92419
2015.5	8.41526
2016	8.21349
2016.5	7.74275
2017	7.35782
2017.5	7.12942
2018	6.91573
2018.5	6.7541
2019	6.91314
2019.5	7.62916
2020	8.64157
2020.5	9.241
2021	8.91237
2021.5	7.75706
2022	6.64414
2022.5	6.44787
2023	7.33233
2023.5	8.76287
2024	9.81192
2024.5	9.9294
2025	9.10035
2025.5	7.59219
2026	5.78477
2026.5	4.18235
2027	3.29332
2027.5	3.47371
2028	4.66372
2028.5	6.10523
2029	6.92641
2029.5	6.71693
2030	5.72077
2030.5	4.72842
2031	4.33167
2031.5	4.60187
2032	5.28273
2032.5	6.10028
2033	6.98862
2033.5	7.96078
2034	8.88931
2034.5	9.4029
2035	9.19531
2035.5	8.25281
2036	6.87872
2036.5	5.61531
2037	4.95975
2037.5	5.04386
2038	5.63705
2038.5	6.20995
2039	6.24878
2039.5	5.79636
2040	5.39577
2040.5	5.758
2041	7.08136
2041.5	8.57322
2042	9.21429
2042.5	8.45692
2043	6.78181
2043.5	5.47497
2044	5.33744
2044.5	6.34021
2045	7.70779
2045.5	8.5924
2046	8.78224
2046.5	8.54434
2047	8.34095
2047.5	8.44092
2048	8.7459
2048.5	8.98362
2049	8.9361
2049.5	8.75339
2050	8.86347
2050.5	9.49516
2051	10.3075
2051.5	10.3233
2052	8.98675
2052.5	6.73738
2053	4.84016
2053.5	4.62654
2054	5.82442
2054.5	7.14621
2055	7.2995
2055.5	6.01337
2056	4.60598
2056.5	4.37994
2057	5.6979
2057.5	7.74083
2058	9.10191
2058.5	9.21162
2059	8.47749
2059.5	7.87771
2060	8.12233
2060.5	8.95338
2061	9.66545
2061.5	9.69125
2062	9.11181
2062.5	8.54072
2063	8.34552
2063.5	8.42912
2064	8.37428
2064.5	8.06631
2065	7.81978
2065.5	8.01905
2066	8.70871
2066.5	9.38968
2067	9.62606
2067.5	9.37183
2068	8.97394
2068.5	8.82357
2069	8.91794
2069.5	8.97036
2070	8.63928
2070.5	7.82523
2071	6.80008
2071.5	5.98486
2072	5.79049
2072.5	6.37616
2073	7.33839
2073.5	8.06029
2074	8.00711
2074.5	7.04715
2075	5.78689
2075.5	4.93088
2076	4.95669
2076.5	5.89679
2077	7.16411
2077.5	8.08411
2078	8.2138
2078.5	7.57258
2079	6.81208
2079.5	6.61525
2080	7.18075
2080.5	8.0559
2081	8.39256
2081.5	7.88709
2082	6.92859
2082.5	6.24588
2083	6.3155
2083.5	6.81409
2084	7.16855
2084.5	6.97144
2085	6.20429
2085.5	5.2827
2086	4.61715
2086.5	4.49344
2087	4.97405
2087.5	5.71358
2088	6.25978
2088.5	6.33615
2089	5.99162
2089.5	5.5317
2090	5.10041
2090.5	4.63985
2091	4.13462
2091.5	3.85967
2092	4.08685
2092.5	4.70326
2093	5.19415
2093.5	5.03842
2094	4.47131
2094.5	4.15199
2095	4.59893
2095.5	5.72514
2096	6.81245
2096.5	7.37418
2097	7.37317
2097.5	7.10661
2098	6.89153
2098.5	6.84685
2099	7.02718
2099.5	7.46513
2100	8.00382
2100.5	8.27634
2101	7.96943
2101.5	7.11279
2102	6.27906
2102.5	6.10784
2103	6.78821
2103.5	7.96654
2104	8.92177
2104.5	9.21184
2105	8.84818
2105.5	8.08253
2106	7.14935
2106.5	6.16801
2107	5.2628
2107.5	4.68489
2108	4.76042
2108.5	5.49971
2109	6.51122
2109.5	7.24637
2110	7.26954
2110.5	6.63338
2111	5.82934
2111.5	5.35442
2112	5.45694
2112.5	5.93844
2113	6.32719
2113.5	6.31816
2114	5.90149
2114.5	5.34147
2115	4.93477
2115.5	4.81034
2116	5.01153
2116.5	5.58637
2117	6.45968
2117.5	7.39997
2118	8.09045
2118.5	8.31586
2119	8.20279
2119.5	7.95402
2120	7.5421
2120.5	6.69408
2121	5.29249
2121.5	3.77661
2122	2.8139
2122.5	2.84679
2123	3.66904
2123.5	4.59329
2124	5.19181
2124.5	5.41051
2125	5.39939
2125.5	5.26321
2126	5.03013
2126.5	4.82383
2127	4.87943
2127.5	5.25366
2128	5.7641
2128.5	6.19421
2129	6.4803
2129.5	6.70657
2130	6.83998
2130.5	6.72018
2131	6.26823
2131.5	5.71866
2132	5.37409
2132.5	5.28476
2133	5.3076
2133.5	5.47062
2134	6.11035
2134.5	7.37179
2135	8.77057
2135.5	9.20867
2136	8.35304
2136.5	7.04744
2137	6.62866
2137.5	7.73248
2138	9.15998
2138.5	9.4145
2139	8.11625
2139.5	6.42997
2140	5.99136
2140.5	6.93565
2141	8.18329
2141.5	8.55111
2142	8.04581
2142.5	7.66021
2143	7.94919
2143.5	8.57407
2144	8.69502
2144.5	8.19062
2145	7.58506
2145.5	7.33497
2146	7.22017
2146.5	6.60518
2147	5.39801
2147.5	4.1795
2148	3.81178
2148.5	4.45691
2149	5.61014
2149.5	6.68265
2150	7.30936
2150.5	7.40116
2151	6.97519
2151.5	6.17944
2152	5.47383
2152.5	5.52627
2153	6.43744
2153.5	7.60545
2154	8.06166
2154.5	7.17587
2155	5.5155
2155.5	4.0694
2156	3.62536
2156.5	4.36143
2157	5.64206
2157.5	6.81442
2158	7.42596
2158.5	7.30758
2159	6.7323
2159.5	6.13809
2160	5.85062
2160.5	5.87533
2161	5.86492
2161.5	5.61864
2162	5.34191
2162.5	5.51101
2163	6.38637
2163.5	7.57467
2164	8.49761
2164.5	8.82585
2165	8.75832
2165.5	8.79307
2166	9.12391
2166.5	9.61989
2167	9.97562
2167.5	10.0038
2168	9.64806
2168.5	8.88184
2169	7.70217
2169.5	6.30448
2170	5.01779
2170.5	4.14413
2171	3.83682
2171.5	4.0098
2172	4.47923
2172.5	5.08366
2173	5.61742
2173.5	5.78904
2174	5.47609
2174.5	4.86196
2175	4.41718
2175.5	4.68135
2176	5.63339
2176.5	6.82671
2177	7.66931
2177.5	7.71531
2178	7.03835
2178.5	5.93167
2179	4.73984
2179.5	3.80392
2180	3.37693
2180.5	3.51325
2181	4.0761
2181.5	4.7997
2182	5.47087
2182.5	6.1002
2183	6.77267
2183.5	7.45395
2184	7.87252
2184.5	7.78777
2185	7.21931
2185.5	6.48065
2186	6.05301
2186.5	6.1556
2187	6.70544
2187.5	7.42886
2188	7.94074
2188.5	7.89833
2189	7.16272
2189.5	5.93978
2190	4.89833
2190.5	4.8468
2191	5.893
2191.5	7.44124
2192	8.56734
2192.5	8.80566
2193	8.54348
2193.5	8.28761
2194	8.15274
2194.5	7.73895
2195	6.79081
2195.5	5.52212
2196	4.41422
2196.5	3.90132
2197	4.02705
2197.5	4.73806
2198	5.89402
2198.5	7.1286
2199	7.91187
2199.5	8.0563
2200	7.82333
2200.5	7.6235
2201	7.38408
2201.5	6.65426
2202	5.37312
2202.5	4.24742
2203	4.28045
2203.5	5.43211
2204	6.77259
2204.5	7.28995
2205	6.8665
2205.5	6.38098
2206	6.40267
2206.5	6.75779
2207	6.74919
2207.5	6.16066
2208	5.38898
2208.5	4.91293
2209	4.83622
2209.5	4.84989
2210	4.83129
2210.5	4.94196
2211	5.31861
2211.5	5.64106
2212	5.4301
2212.5	4.58416
2213	3.61044
2213.5	3.36542
2214	4.08194
2214.5	5.27592
2215	6.15321
2215.5	6.26853
2216	6.0105
2216.5	5.84036
2217	5.80213
2217.5	5.44849
2218	4.63533
2218.5	3.92789
2219	4.15421
2219.5	5.65211
2220	7.46272
2220.5	8.44969
2221	8.12078
2221.5	6.8138
2222	5.36731
2222.5	4.3157
2223	3.87375
2223.5	4.12894
2224	4.94773
2224.5	5.78447
2225	6.03956
2225.5	5.49778
2226	4.68169
2226.5	4.36654
2227	4.72439
2227.5	5.33873
2228	5.67885
2228.5	5.81426
2229	6.08201
2229.5	6.60614
2230	7.18764
2230.5	7.62912
2231	7.97596
2231.5	8.25568
2232	8.25438
2232.5	7.70252
2233	6.76583
2233.5	5.95835
2234	5.81258
2234.5	6.4568
2235	7.49392
2235.5	8.43878
2236	8.87176
2236.5	8.57268
2237	7.84286
2237.5	7.19883
2238	7.05513
2238.5	7.38531
2239	7.71791
2239.5	7.82144
2240	7.80799
2240.5	7.82532
2241	7.66814
2241.5	7.13234
2242	6.48864
2242.5	6.43005
2243	7.21916
2243.5	8.08658
2244	8.24219
2244.5	7.69207
2245	7.39552
2245.5	7.90107
2246	8.6802
2246.5	8.69686
2247	7.41366
2247.5	5.63038
2248	4.25927
2248.5	3.67818
2249	3.67723
2249.5	3.94417
2250	4.52024
2250.5	5.45704
2251	6.52184
2251.5	7.25721
2252	7.41472
2252.5	6.98604
2253	6.07912
2253.5	4.86934
2254	3.61911
2254.5	2.65562
2255	2.31814
2255.5	2.86125
2256	4.24827
2256.5	6.27041
2257	8.41553
2257.5	9.78957
2258	9.83476
2258.5	8.70119
2259	7.21691
2259.5	6.4412
2260	6.59439
2260.5	7.00513
2261	6.86121
2261.5	5.90794
2262	4.82818
2262.5	4.338
2263	4.5228
2263.5	4.81371
2264	4.59432
2264.5	3.95792
2265	3.38386
2265.5	3.26884
2266	3.59099
2266.5	4.06518
2267	4.65155
2267.5	5.52569
2268	6.72807
2268.5	7.68954
2269	7.69516
2269.5	6.50309
2270	4.89538
2270.5	4.23316
2271	5.07736
2271.5	6.91268
2272	8.47217
2272.5	8.77601
2273	7.96528
2273.5	6.77825
2274	5.98821
2274.5	5.88198
2275	6.14525
2275.5	6.3121
2276	6.03359
2276.5	5.34817
2277	4.7618
2277.5	4.78515
2278	5.60763
2278.5	6.88318
2279	7.86289
2279.5	8.04968
2280	7.35866
2280.5	6.13705
2281	5.03923
2281.5	4.46372
2282	4.30972
2282.5	4.05555
2283	3.31567
2283.5	2.47262
2284	2.31318
2284.5	3.31242
2285	4.85482
2285.5	5.78083
2286	5.64265
2286.5	5.01154
2287	4.97697
2287.5	5.58759
2288	6.03664
2288.5	5.65195
2289	4.73814
2289.5	4.4385
2290	5.25981
2290.5	6.64848
2291	7.3253
2291.5	6.65723
2292	5.29165
2292.5	4.38676
2293	4.66259
2293.5	5.69134
2294	6.60991
2294.5	6.94375
2295	6.71904
2295.5	6.25307
2296	5.79505
2296.5	5.46715
2297	5.33211
2297.5	5.33911
2298	5.33466
2298.5	5.35038
2299	5.62865
2299.5	6.34545
2300	7.08311
2300.5	7.22056
2301	6.53087
2301.5	5.53134
2302	5.1034
2302.5	5.457
2303	6.09936
2303.5	6.29628
2304	5.80259
2304.5	4.94092
2305	4.08998
2305.5	3.46296
2306	3.06422
2306.5	2.85766
2307	2.97356
2307.5	3.64984
2308	4.95676
2308.5	6.26086
2309	6.7952
2309.5	6.25606
2310	5.22375
2310.5	4.78636
2311	5.37407
2311.5	6.69022
2312	8.12185
2312.5	9.24333
2313	9.77932
2313.5	9.4148
2314	8.07323
2314.5	6.50646
2315	5.76125
2315.5	6.23537
2316	7.45544
2316.5	8.5721
2317	9.33732
2317.5	9.87387
2318	10.0409
2318.5	9.29157
2319	7.70897
2319.5	6.095
2320	5.40311
2320.5	6.01714
2321	7.22084
2321.5	8.1364
2322	8.1913
2322.5	7.20457
2323	5.63085
2323.5	4.28806
2324	3.95002
2324.5	4.9226
2325	6.53862
2325.5	7.69885
2326	7.7795
2326.5	6.91892
2327	5.94774
2327.5	5.62546
2328	6.1088
2328.5	7.09843
2329	8.03154
2329.5	8.50307
2330	8.4744
2330.5	8.17276
2331	7.91433
2331.5	7.80477
2332	7.65228
2332.5	7.18595
2333	6.29938
2333.5	5.30586
2334	4.70404
2334.5	4.81934
2335	5.60659
2335.5	6.61899
2336	7.41442
2336.5	7.78763
2337	7.69663
2337.5	7.16566
2338	6.44087
2338.5	5.91547
2339	5.96142
2339.5	6.65582
2340	7.5468
2340.5	8.17491
2341	8.29228
2341.5	7.81715
2342	6.79212
2342.5	5.38866
2343	4.00337
2343.5	3.19439
2344	3.23476
2344.5	3.85554
2345	4.59008
2345.5	5.08603
2346	5.28929
2346.5	5.32218
2347	5.30721
2347.5	5.3917
2348	5.78157
2348.5	6.57479
2349	7.71774
2349.5	8.9494
2350	9.78107
2350.5	9.75132
2351	8.71677
2351.5	7.07079
2352	5.78382
2352.5	5.69828
2353	6.6562
2353.5	7.64606
2354	7.58342
2354.5	6.49391
2355	5.3875
2355.5	5.08536
2356	5.56811
2356.5	5.95694
2357	5.65623
2357.5	4.88558
2358	4.30461
2358.5	4.3472
2359	4.84947
2359.5	5.54971
2360	6.25384
2360.5	6.75827
2361	6.85279
2361.5	6.51305
2362	5.99539
2362.5	5.61151
2363	5.40242
2363.5	5.25533
2364	5.21748
2364.5	5.53381
2365	6.26468
2365.5	6.98856
2366	7.19514
2366.5	6.64153
2367	5.51193
2367.5	4.26933
2368	3.38753
2368.5	3.31767
2369	4.27639
2369.5	5.59754
2370	6.36732
2370.5	6.06227
2371	4.98253
2371.5	4.06536
2372	3.79115
2372.5	4.07633
2373	4.62583
2373.5	5.33194
2374	6.14178
2374.5	6.7499
2375	6.67679
2375.5	5.80507
2376	4.67121
2376.5	4.01604
2377	4.40831
2377.5	5.74229
2378	7.19526
2378.5	7.825
2379	7.0523
2379.5	5.21641
2380	3.63434
2380.5	3.18011
2381	3.61797
2381.5	3.92757
2382	3.60574
2382.5	3.11976
2383	3.08908
2383.5	3.53601
2384	3.83392
2384.5	3.80063
2385	3.88021
2385.5	4.52626
2386	5.53968
2386.5	6.34265
2387	6.61551
2387.5	6.33022
2388	5.53294
2388.5	4.47399
2389	3.67504
2389.5	3.70946
2390	4.56399
2390.5	5.235
2391	5.00574
2391.5	4.13932
2392	3.76865
2392.5	4.33478
2393	5.18504
2393.5	5.50214
2394	5.13493
2394.5	4.78577
2395	4.94549
2395.5	5.44571
2396	5.87273
2396.5	6.10633
2397	6.36659
2397.5	6.79774
2398	7.31423
2398.5	7.67256
2399	7.8151
2399.5	7.8434
2400	7.83626
2400.5	7.65321
2401	7.0801
2401.5	6.19208
2402	5.46479
2402.5	5.40095
2403	5.71101
2403.5	5.6687
2404	4.93644
2404.5	4.03908
2405	3.91133
2405.5	4.59652
2406	5.40953
2406.5	5.90704
2407	6.47067
2407.5	7.45971
2408	8.39779
2408.5	8.29595
2409	6.90694
2409.5	5.49413
2410	5.08859
2410.5	5.68616
2411	6.31817
2411.5	6.37327
2412	6.25761
2412.5	6.5911
2413	7.28555
2413.5	7.47872
2414	6.66851
2414.5	5.14149
2415	3.81515
2415.5	3.53389
2416	4.2169
2416.5	5.26359
2417	5.88149
2417.5	5.56371
2418	4.6093
2418.5	3.8039
2419	3.94304
2419.5	5.20101
2420	6.84596
2420.5	8.14621
2421	8.80124
2421.5	9.11186
2422	9.73773
2422.5	11.0841
2423	13.2552
2423.5	15.9039
2424	17.9112
2424.5	17.9748
2425	15.4072
2425.5	11.1501
2426	7.53096
2426.5	6.00085
2427	6.33167
2427.5	7.07605
2428	6.87899
2428.5	5.98945
2429	5.3436
2429.5	5.46041
2430	6.00939
2430.5	6.33375
2431	6.33002
2431.5	6.35392
2432	6.64409
2432.5	6.76595
2433	6.18665
2433.5	4.89896
2434	3.65568
2434.5	3.34629
2435	3.8013
2435.5	4.26476
2436	4.17769
2436.5	3.8838
2437	4.01988
2437.5	4.60543
2438	4.97778
2438.5	4.62332
2439	3.90707
2439.5	3.40954
2440	3.38253
2440.5	3.64282
2441	3.98767
2441.5	4.45608
2442	5.00508
2442.5	5.33751
2443	5.24946
2443.5	4.94595
2444	4.87939
2444.5	5.4078
2445	6.49861
2445.5	7.81257
2446	8.83073
2446.5	8.90437
2447	7.83196
2447.5	6.23835
2448	4.96323
2448.5	4.53323
2449	4.76737
2449.5	5.16873
2450	5.6846
2450.5	6.51703
2451	7.53687
2451.5	8.06547
2452	7.67694
2452.5	6.6688
2453	5.95684
2453.5	5.9323
2454	6.21489
2454.5	6.33097
2455	6.2757
2455.5	6.45907
2456	6.77498
2456.5	6.61545
2457	5.49622
2457.5	3.91925
2458	3.0644
2458.5	3.61374
2459	5.1166
2459.5	6.4183
2460	6.89963
2460.5	6.817
2461	6.75253
2461.5	6.80261
2462	6.40879
2462.5	5.3807
2463	4.31896
2463.5	4.28829
2464	5.32474
2464.5	6.19104
2465	5.95454
2465.5	5.02477
2466	4.902
2466.5	5.92761
2467	6.79444
2467.5	5.9747
2468	3.87939
2468.5	2.48572
2469	2.93678
2469.5	4.61673
2470	5.69745
2470.5	5.63122
2471	5.0348
2471.5	4.5531
2472	4.11561
2472.5	3.37614
2473	2.65941
2473.5	2.66595
2474	3.79451
2474.5	5.3877
2475	6.42667
2475.5	6.40927
2476	5.68204
2476.5	5.05558
2477	4.8256
2477.5	4.69809
2478	4.28762
2478.5	3.84061
2479	3.88202
2479.5	4.49694
2480	5.29741
2480.5	5.9677
2481	6.75969
2481.5	7.7314
2482	8.29875
2482.5	7.54254
2483	5.73866
2483.5	4.22541
2484	4.1403
2484.5	5.47559
2485	6.96138
2485.5	7.56803
2486	7.12114
2486.5	6.36379
2487	6.21004
2487.5	6.76774
2488	7.33071
2488.5	6.89811
2489	5.52734
2489.5	4.5766
2490	5.03438
2490.5	6.59965
2491	7.71101
2491.5	7.61031
2492	7.02915
2492.5	6.89925
2493	7.25003
2493.5	7.1791
2494	6.28982
2494.5	4.99556
2495	3.89201
2495.5	3.28837
2496	3.43403
2496.5	4.64663
2497	6.68756
2497.5	8.38283
2498	8.71436
2498.5	7.71204
2499	6.41659
2499.5	5.86524
2500	5.86629
2500.5	5.80712
2501	5.38398
2501.5	4.86144
2502	4.5362
2502.5	4.34428
2503	4.19731
2503.5	4.29687
2504	4.89069
2504.5	5.67409
2505	5.9312
2505.5	5.09465
2506	3.66716
2506.5	2.88939
2507	3.55655
2507.5	5.28571
2508	6.69155
2508.5	6.94986
2509	6.41231
2509.5	6.19881
2510	6.92319
2510.5	7.96575
2511	8.4869
2511.5	8.14845
2512	7.43728
2512.5	6.95596
2513	6.79677
2513.5	6.80101
2514	6.88527
2514.5	7.12842
2515	7.51257
2515.5	7.81977
2516	7.66337
2516.5	6.7269
2517	5.17582
2517.5	3.57146
2518	2.7082
2518.5	3.06214
2519	4.26072
2519.5	5.57178
2520	6.53503
2520.5	7.10603
2521	7.31124
2521.5	6.96863
2522	6.12211
2522.5	5.3904
2523	5.48026
2523.5	6.3976
2524	7.4284
2524.5	7.72186
2525	7.19463
2525.5	6.23192
2526	5.25827
2526.5	4.69905
2527	4.93676
2527.5	5.99733
2528	7.3463
2528.5	7.96487
2529	7.26668
2529.5	5.90986
2530	4.89057
2530.5	4.80651
2531	5.28685
2531.5	5.4028
2532	4.87368
2532.5	4.10091
2533	3.84078
2533.5	4.24238
2534	4.74768
2534.5	4.72963
2535	3.96725
2535.5	2.9819
2536	2.40676
2536.5	2.50222
2537	3.16903
2537.5	4.10888
2538	5.10985
2538.5	6.02801
2539	6.70379
2539.5	6.98961
2540	6.89477
2540.5	6.51358
2541	5.98554
2541.5	5.48884
2542	5.30647
2542.5	5.69995
2543	6.54545
2543.5	7.10699
2544	6.6723
2544.5	5.33995
2545	4.07429
2545.5	3.99205
2546	4.90911
2546.5	5.67492
2547	5.3041
2547.5	3.95079
2548	2.98044
2548.5	3.26932
2549	4.63377
2549.5	6.0206
2550	6.4164
2550.5	5.96867
2551	5.42092
2551.5	5.47405
2552	6.0624
2552.5	6.34662
2553	5.83342
2553.5	4.73611
2554	3.95534
2554.5	4.00087
2555	4.54203
2555.5	4.95026
2556	4.9102
2556.5	4.84077
2557	5.09161
2557.5	5.48213
2558	5.51726
2558.5	5.15861
2559	5.08822
2559.5	5.74926
2560	6.8461
2560.5	7.4378
2561	7.2007
2561.5	6.53053
2562	5.8099
2562.5	4.93612
2563	3.87897
2563.5	3.28358
2564	3.87609
2564.5	5.47218
2565	6.44235
2565.5	5.77181
2566	3.93269
2566.5	2.53005
2567	2.84592
2567.5	4.60146
2568	6.72108
2568.5	8.15703
2569	8.3254
2569.5	7.34531
2570	5.80938
2570.5	4.48199
2571	4.05923
2571.5	4.67518
2572	5.92146
2572.5	7.18544
2573	7.82612
2573.5	7.6597
2574	6.93709
2574.5	6.0455
2575	5.25052
2575.5	4.7149
2576	4.62766
2576.5	4.98513
2577	5.36203
2577.5	5.16016
2578	4.56263
2578.5	4.49658
2579	5.64004
2579.5	7.27795
2580	7.8377
2580.5	6.78162
2581	4.90948
2581.5	3.53728
2582	2.98169
2582.5	2.77634
2583	2.68006
2583.5	3.03982
2584	4.00699
2584.5	5.15527
2585	5.98484
2585.5	6.45763
2586	6.9347
2586.5	7.51951
2587	8.0546
2587.5	8.41907
2588	8.52247
2588.5	8.00925
2589	6.60821
2589.5	4.72922
2590	3.69466
2590.5	4.22721
2591	5.41017
2591.5	5.65089
2592	4.34464
2592.5	3.10929
2593	3.57155
2593.5	5.77992
2594	8.06914
2594.5	8.82056
2595	8.31175
2595.5	7.67967
2596	7.68709
2596.5	7.78664
2597	7.13645
2597.5	5.67393
2598	4.23355
2598.5	3.94299
2599	4.91256
2599.5	6.50062
2600	7.86702
2600.5	8.42583
2601	8.19898
2601.5	7.43438
2602	6.58069
2602.5	6.40192
2603	7.17224
2603.5	8.30685
2604	8.72767
2604.5	7.59467
2605	5.7403
2605.5	4.32431
2606	3.83023
2606.5	3.85128
2607	3.835
2607.5	3.95301
2608	4.47398
2608.5	5.15707
2609	5.38165
2609.5	5.10017
2610	4.59058
2610.5	3.899
2611	2.83645
2611.5	1.86559
2612	1.90106
2612.5	3.33697
2613	4.90961
2613.5	5.26506
2614	4.60671
2614.5	4.2728
2615	4.98662
2615.5	5.61831
2616	5.19404
2616.5	4.09218
2617	3.74014
2617.5	4.50917
2618	5.56196
2618.5	6.20022
2619	6.66665
2619.5	7.43641
2620	8.18353
2620.5	8.17569
2621	7.15963
2621.5	5.58961
2622	4.11971
2622.5	3.14391
2623	2.82699
2623.5	3.14837
2624	3.72402
2624.5	4.24864
2625	4.74978
2625.5	5.44868
2626	6.32764
2626.5	6.84662
2627	6.99442
2627.5	6.94325
2628	6.67206
2628.5	5.92637
2629	4.98962
2629.5	4.24457
2630	4.20376
2630.5	4.50833
2631	5.32434
2631.5	6.01098
2632	6.52368
2632.5	6.69827
2633	6.84771
2633.5	7.17552
2634	7.81349
2634.5	8.65079
2635	9.4945
2635.5	10.0902
2636	10.309
2636.5	9.98926
2637	9.47957
2637.5	8.7602
2638	8.00724
2638.5	7.22987
2639	6.33692
2639.5	5.43945
2640	4.53968
2640.5	3.98527
2641	3.64382
2641.5	3.87109
2642	4.27076
2642.5	4.81166
2643	5.19237
2643.5	5.50791
2644	5.71442
2644.5	6.04054
2645	6.41848
2645.5	6.85201
2646	7.08481
2646.5	7.13245
2647	6.78239
2647.5	6.43905
2648	6.19445
2648.5	6.31535
2649	6.6114
2649.5	7.09751
2650	7.44468
2650.5	7.64759
2651	7.53647
2651.5	7.37729
2652	7.19968
2652.5	7.15633
2653	7.19591
2653.5	7.4814
2654	7.91432
2654.5	8.51956
2655	9.36649
2655.5	10.2354
2656	11.0471
2656.5	11.3813
2657	11.4152
2657.5	10.5348
2658	9.52672
2658.5	8.35064
2659	7.60547
2659.5	7.06165
2660	6.90963
2660.5	6.6831
2661	6.40853
2661.5	5.98659
2662	5.73693
2662.5	5.74356
2663	6.10779
2663.5	6.55695
2664	6.97769
2664.5	7.3514
2665	7.69165
2665.5	8.25171
2666	8.74042
2666.5	9.1007
2667	8.56403
2667.5	7.59492
2668	5.7936
2668.5	4.17773
2669	2.71072
2669.5	2.681
2670	3.17406
2670.5	4.52033
2671	6.14548
2671.5	7.79893
2672	8.98018
2672.5	9.7244
2673	10.0735
2673.5	9.87576
2674	9.55694
2674.5	9.07803
2675	8.54367
2675.5	7.99001
2676	7.46846
2676.5	7.04094
2677	6.70909
2677.5	6.4894
2678	6.29817
2678.5	6.14368
2679	6.17529
2679.5	6.31592
2680	6.72203
2680.5	6.9986
2681	7.12676
2681.5	6.95399
2682	6.87352
2682.5	7.2072
2683	7.99452
2683.5	9.00019
2684	9.38139
2684.5	9.15083
2685	8.1307
2685.5	7.03755
2686	6.18842
2686.5	6.23239
2687	6.45069
2687.5	6.76633
2688	6.31422
2688.5	5.81982
2689	5.26379
2689.5	5.41571
2690	5.82168
2690.5	6.55039
2691	6.88407
2691.5	6.94242
2692	6.2275
2692.5	5.50041
2693	4.77478
2693.5	4.588
2694	4.6676
2694.5	5.28531
2695	5.88451
2695.5	6.46916
2696	6.48501
2696.5	6.39547
2697	6.16001
2697.5	6.21754
2698	6.38541
2698.5	6.60699
2699	6.54009
2699.5	6.21757
2700	5.71222
2700.5	5.30333
2701	5.13297
2701.5	4.96427
2702	4.76097
2702.5	4.26216
2703	3.89741
2703.5	3.66637
2704	4.09933
2704.5	4.67368
2705	5.40386
2705.5	5.83298
2706	6.08072
2706.5	5.82972
2707	5.44989
2707.5	4.92543
2708	4.66548
2708.5	4.64727
2709	5.20189
2709.5	5.93599
2710	6.73818
2710.5	6.99646
2711	7.17689
2711.5	7.25886
2712	7.94023
2712.5	8.73978
2713	9.54043
2713.5	9.4746
2714	8.86991
2714.5	7.36612
2715	6.23457
2715.5	5.63417
2716	5.95725
2716.5	6.48087
2717	6.9184
2717.5	6.9863
2718	6.80187
2718.5	6.30582
2719	5.81281
2719.5	5.33059
2720	5.30233
2720.5	5.51765
2721	6.282
2721.5	6.71165
2722	6.88335
2722.5	5.82441
2723	4.7868
2723.5	3.88509
2724	4.17219
2724.5	4.93085
2725	6.10954
2725.5	6.81473
2726	7.10876
2726.5	7.068
2727	7.03563
2727.5	7.07405
2728	6.79067
2728.5	6.35875
2729	5.75296
2729.5	5.56316
2730	5.78001
2730.5	6.41719
2731	6.92535
2731.5	7.01101
2732	6.84284
2732.5	6.58321
2733	6.58816
2733.5	6.50966
2734	6.33935
2734.5	5.62182
2735	4.90529
2735.5	4.41861
2736	4.82945
2736.5	5.74016
2737	7.26895
2737.5	8.3583
2738	8.90313
2738.5	8.42492
2739	7.72535
2739.5	6.93613
2740	6.56712
2740.5	6.45311
2741	6.63829
2741.5	6.83251
2742	7.03934
2742.5	7.50305
2743	8.05898
2743.5	8.74042
2744	9.06217
2744.5	9.14348
2745	8.7936
2745.5	8.66496
2746	8.89052
2746.5	9.46602
2747	9.9811
2747.5	9.75408
2748	9.03611
2748.5	7.94748
2749	7.42984
2749.5	7.24531
2750	7.61986
2750.5	7.92745
2751	8.1283
2751.5	7.83454
2752	7.37635
2752.5	6.77822
2753	6.18754
2753.5	5.74863
2754	5.61897
2754.5	5.86047
2755	6.23939
2755.5	6.57961
2756	6.71201
2756.5	6.64532
2757	6.43543
2757.5	6.23417
2758	6.08847
2758.5	6.06552
2759	6.10997
2759.5	6.29105
2760	6.51666
2760.5	6.79031
2761	7.22484
2761.5	7.66386
2762	8.05289
2762.5	7.97315
2763	7.61942
2763.5	6.67267
2764	5.86939
2764.5	5.2403
2765	5.2918
2765.5	5.60323
2766	6.34509
2766.5	6.99014
2767	7.55825
2767.5	7.39624
2768	7.11674
2768.5	6.67639
2769	6.58293
2769.5	6.556
2770	6.4855
2770.5	6.33484
2771	6.13172
2771.5	6.68349
2772	7.30191
2772.5	8.02167
2773	7.77877
2773.5	7.19274
2774	6.23485
2774.5	5.79014
2775	5.72502
2775.5	5.9777
2776	6.14142
2776.5	6.13114
2777	6.13274
2777.5	6.12802
2778	6.06633
2778.5	5.91246
2779	5.6817
2779.5	5.69701
2780	5.83812
2780.5	6.1989
2781	6.43792
2781.5	6.58666
2782	6.41277
2782.5	6.26083
2783	6.12952
2783.5	6.60578
2784	7.22682
2784.5	8.04151
2785	8.37269
2785.5	8.43502
2786	7.90924
2786.5	7.42571
2787	6.98684
2787.5	6.50812
2788	5.97318
2788.5	5.30389
2789	4.96016
2789.5	4.83414
2790	5.55079
2790.5	6.46191
2791	7.60441
2791.5	8.29342
2792	8.59506
2792.5	7.94735
2793	6.96198
2793.5	5.80243
2794	5.12995
2794.5	4.67325
2795	4.50597
2795.5	4.60857
2796	4.78994
2796.5	5.04417
2797	4.67193
2797.5	3.89559
2798	2.39404
2798.5	1.66569
2799	2.1089
2799.5	3.96053
2800	5.91958
2800.5	6.72491
2801	6.41168
2801.5	5.28795
2802	4.85928
2802.5	4.85343
2803	5.54171
2803.5	6.13267
2804	6.64548
2804.5	6.90018
2805	7.01963
2805.5	7.02857
2806	6.77276
2806.5	6.6359
2807	6.76195
2807.5	7.06502
2808	7.30096
2808.5	6.62857
2809	5.57992
2809.5	4.18504
2810	3.8706
2810.5	4.06398
2811	5.16833
2811.5	5.84069
2812	6.20281
2812.5	5.37712
2813	4.6986
2813.5	4.17252
2814	4.75385
2814.5	5.52567
2815	6.41879
2815.5	6.91747
2816	7.21889
2816.5	7.43703
2817	7.61654
2817.5	7.75102
2818	7.58291
2818.5	7.37185
2819	7.1849
2819.5	7.03804
2820	6.90074
2820.5	6.44438
2821	5.89718
2821.5	5.2306
2822	4.54313
2822.5	3.95848
2823	3.75324
2823.5	4.48199
2824	5.80279
2824.5	7.81276
2825	9.00548
2825.5	8.98556
2826	7.38271
2826.5	5.47055
2827	3.95974
2827.5	3.33411
2828	3.33672
2828.5	3.89767
2829	4.43422
2829.5	4.9096
2830	4.97924
2830.5	4.9069
2831	4.73657
2831.5	5.10961
2832	5.91771
2832.5	7.26938
2833	8.21015
2833.5	8.31035
2834	7.36038
2834.5	6.05333
2835	4.85486
2835.5	4.2944
2836	4.30934
2836.5	4.93099
2837	5.51743
2837.5	5.91147
2838	6.09509
2838.5	6.2288
2839	6.68623
2839.5	7.21452
2840	7.81474
2840.5	7.99343
2841	8.08231
2841.5	8.07584
2842	8.25058
2842.5	8.49091
2843	8.47255
2843.5	8.12902
2844	7.41394
2844.5	6.52288
2845	5.67635
2845.5	5.04321
2846	4.72904
2846.5	4.60637
2847	4.90534
2847.5	5.32139
2848	5.88819
2848.5	6.50806
2849	7.03516
2849.5	7.20636
2850	6.73026
2850.5	5.85094
2851	4.56822
2851.5	3.76246
2852	3.64979
2852.5	4.45791
2853	5.39145
2853.5	5.90486
2854	5.80949
2854.5	5.29092
2855	4.73389
2855.5	4.32998
2856	4.17892
2856.5	3.81751
2857	3.33367
2857.5	2.54708
2858	2.12445
2858.5	1.98738
2859	2.93064
2859.5	4.03177
2860	5.33163
2860.5	6.08382
2861	6.55376
2861.5	6.43989
2862	6.279
2862.5	6.07655
2863	6.24494
2863.5	6.65532
2864	7.51802
2864.5	8.4672
2865	9.33042
2865.5	9.18799
2866	8.45809
2866.5	7.14373
2867	6.1721
2867.5	5.51157
2868	5.51641
2868.5	5.51805
2869	5.4974
2869.5	5.22954
2870	5.15263
2870.5	5.28953
2871	5.62909
2871.5	5.84911
2872	5.63933
2872.5	5.04088
2873	4.24032
2873.5	3.50947
2874	2.96846
2874.5	2.66692
2875	2.72609
2875.5	2.89355
2876	3.18692
2876.5	3.40791
2877	3.58469
2877.5	3.72469
2878	3.93149
2878.5	4.23339
2879	4.61888
2879.5	5.04036
2880	5.52532
2880.5	6.14584
2881	6.85867
2881.5	7.53055
2882	7.92439
2882.5	7.87124
2883	7.18656
2883.5	6.33264
2884	5.53573
2884.5	5.32067
2885	5.55289
2885.5	6.44456
2886	7.15531
2886.5	7.48439
2887	7.13564
2887.5	6.55754
2888	5.97593
2888.5	5.65261
2889	5.55302
2889.5	5.5971
2890	5.69392
2890.5	5.87819
2891	6.07152
2891.5	6.15165
2892	5.3081
2892.5	3.90748
2893	1.96368
2893.5	1.11897
2894	1.17347
2894.5	3.09091
2895	5.38458
2895.5	7.68112
2896	8.12144
2896.5	7.73746
2897	6.44882
2897.5	5.2261
2898	4.2079
2898.5	3.73
2899	3.44784
2899.5	3.26339
2900	3.01563
2900.5	2.80412
2901	2.63743
2901.5	3.00561
2902	3.64102
2902.5	4.81668
2903	5.87967
2903.5	6.85958
2904	7.14588
2904.5	7.40451
2905	7.62456
2905.5	7.95588
2906	8.13653
2906.5	7.63642
2907	6.52541
2907.5	5.00705
2908	4.11761
2908.5	3.98596
2909	5.04294
2909.5	6.98585
2910	9.06262
2910.5	10.6126
2911	11.0658
2911.5	10.6931
2912	8.43349
2912.5	6.09264
2913	3.73068
2913.5	2.8875
2914	2.80081
2914.5	4.21068
2915	5.45125
2915.5	6.54809
2916	6.40278
2916.5	6.0502
2917	5.45117
2917.5	5.19734
2918	5.08052
2918.5	5.00029
2919	4.64916
2919.5	4.03913
2920	3.32402
2920.5	2.82089
2921	2.83918
2921.5	3.44875
2922	4.31098
2922.5	5.08459
2923	5.51114
2923.5	5.56441
2924	5.46846
2924.5	5.48269
2925	5.85202
2925.5	6.23437
2926	6.57218
2926.5	6.08175
2927	5.29567
2927.5	4.1515
2928	3.54463
2928.5	3.3265
2929	4.0283
2929.5	5.0304
2930	6.18964
2930.5	6.81154
2931	7.15086
2931.5	7.10426
2932	6.8291
2932.5	6.47299
2933	6.00581
2933.5	5.47129
2934	4.89279
2934.5	4.57584
2935	4.43225
2935.5	4.55585
2936	4.68959
2936.5	4.77002
2937	4.5975
2937.5	4.48054
2938	4.40457
2938.5	4.74587
2939	5.1017
2939.5	5.45999
2940	5.56112
2940.5	5.58314
2941	5.62248
2941.5	5.83825
2942	6.20076
2942.5	6.49346
2943	6.62177
2943.5	6.4313
2944	6.04779
2944.5	5.60974
2945	5.29734
2945.5	5.10873
2946	5.03606
2946.5	5.08407
2947	5.13709
2947.5	5.17448
2948	5.09221
2948.5	4.93619
2949	4.56344
2949.5	4.1401
2950	3.66343
2950.5	3.34611
2951	3.18002
2951.5	3.35585
2952	3.73586
2952.5	4.18164
2953	4.10534
2953.5	3.5309
2954	2.36527
2954.5	1.02573
2955	0
2955.5	0.03225
2956	1.06363
2956.5	2.66911
2957	4.5908
2957.5	6.22208
2958	7.46482
2958.5	8.06099
2959	8.31824
2959.5	7.85376
2960	6.80162
2960.5	5.37425
2961	4.0615
2961.5	3.35237
2962	3.55548
2962.5	4.599
2963	5.73988
2963.5	6.34401
2964	6.22864
2964.5	5.59327
2965	4.98632
2965.5	4.70929
2966	4.99599
2966.5	5.32824
2967	5.52193
2967.5	4.89448
2968	3.96
2968.5	2.77526
2969	2.44911
2969.5	2.66306
2970	3.83226
2970.5	5.34001
2971	6.85253
2971.5	7.55318
2972	7.62585
2972.5	7.12206
2973	6.51285
2973.5	6.11104
2974	6.19354
2974.5	6.3605
2975	6.48221
2975.5	5.85786
2976	4.97063
2976.5	3.81182
2977	3.3588
2977.5	3.33675
2978	4.18914
2978.5	5.12508
2979	6.04224
2979.5	6.15107
2980	5.98385
2980.5	5.49555
2981	5.25574
2981.5	5.20551
2982	5.59782
2982.5	6.11263
2983	6.6884
2983.5	7.10071
2984	7.4136
2984.5	7.59617
2985	7.55595
2985.5	7.39516
2986	6.9738
2986.5	6.40195
2987	5.73547
2987.5	5.02243
2988	4.3296
2988.5	3.66668
2989	3.10171
2989.5	2.64084
2990	2.51457
2990.5	2.81074
2991	3.40598
2991.5	4.50048
2992	5.51254
2992.5	6.36897
2993	6.61349
2993.5	6.58382
2994	6.09281
2994.5	5.61851
2995	5.15756
2995.5	4.78926
2996	4.33729
2996.5	3.71654
2997	3.01845
2997.5	2.37338
2998	2.25582
2998.5	2.58887
2999	3.32728
2999.5	4.18973
3000	4.84795
3000.5	5.03789
3001	4.77062
3001.5	4.30814
3002	3.78201
3002.5	3.34446
3003	2.9966
3003.5	2.76216
3004	2.64337
3004.5	2.77984
3005	3.36241
3005.5	4.17249
3006	5.19464
3006.5	5.85784
3007	6.11194
3007.5	5.43908
3008	4.58563
3008.5	3.64048
3009	3.35934
3009.5	3.48058
3010	4.56979
3010.5	5.64674
3011	6.70794
3011.5	6.98521
3012	6.87115
3012.5	5.95935
3013	4.77486
3013.5	3.42844
3014	2.44183
3014.5	1.82823
3015	1.75529
3015.5	2.32952
3016	3.08286
3016.5	3.91669
3017	4.45018
3017.5	4.7754
3018	4.70184
3018.5	4.67104
3019	4.7206
3019.5	5.01525
3020	5.38171
3020.5	5.74696
3021	5.97451
3021.5	6.09428
3022	6.1166
3022.5	6.13787
3023	6.16574
3023.5	6.00981
3024	5.728
3024.5	5.05433
3025	4.34051
3025.5	3.59131
3026	3.38328
3026.5	3.43931
3027	3.96478
3027.5	4.51002
3028	4.99648
3028.5	4.93085
3029	4.56896
3029.5	3.91304
3030	3.19814
3030.5	2.58156
3031	2.22235
3031.5	2.16921
3032	2.28405
3032.5	2.71309
3033	3.22327
3033.5	3.82406
3034	4.36374
3034.5	4.81457
3035	5.04002
3035.5	5.04609
3036	4.92993
3036.5	4.68682
3037	4.47245
3037.5	4.29422
3038	4.17677
3038.5	4.07669
3039	3.99504
3039.5	4.02001
3040	4.11756
3040.5	4.65726
3041	5.35588
3041.5	6.28012
3042	7.03736
3042.5	7.57331
3043	7.39011
3043.5	6.61558
3044	5.43947
3044.5	4.02954
3045	2.93045
3045.5	2.33451
3046	2.71582
3046.5	3.4894
3047	4.80784
3047.5	5.84689
3048	6.67172
3048.5	6.3035
3049	5.58402
3049.5	4.31445
3050	3.10583
3050.5	2.0228
3051	1.57277
3051.5	1.49972
3052	1.75238
3052.5	2.22361
3053	2.67091
3053.5	3.03449
3054	3.31769
3054.5	3.57772
3055	3.90292
3055.5	4.25714
3056	4.63959
3056.5	4.89294
3057	5.06416
3057.5	5.07308
3058	5.05941
3058.5	5.05893
3059	5.31573
3059.5	5.74807
3060	6.37258
3060.5	7.0487
3061	7.64449
3061.5	7.99705
3062	8.07269
3062.5	7.99351
3063	7.7041
3063.5	7.41325
3064	7.12063
3064.5	6.85552
3065	6.58459
3065.5	6.2781
3066	5.95861
3066.5	5.63305
3067	5.37022
3067.5	5.1154
3068	4.87172
3068.5	4.48256
3069	3.99691
3069.5	3.26955
3070	2.50806
3070.5	1.72389
3071	1.30093
3071.5	1.09981
3072	1.24442
3072.5	1.71311
3073	2.28582
3073.5	2.92427
3074	3.48111
3074.5	3.97666
3075	4.3015
3075.5	4.54078
3076	4.63846
3076.5	4.50812
3077	4.26412
3077.5	3.79458
3078	3.3718
3078.5	2.9886
3079	3.05903
3079.5	3.36891
3080	4.10216
3080.5	5.13759
3081	6.27991
3081.5	7.35916
3082	8.19785
3082.5	8.80724
3083	8.86105
3083.5	8.69395
3084	8.1461
3084.5	7.37552
3085	6.50718
3085.5	5.6424
3086	4.88221
3086.5	4.23427
3087	3.85194
3087.5	3.59272
3088	3.56442
3088.5	3.72464
3089	3.992
3089.5	4.45213
3090	4.90888
3090.5	5.36154
3091	5.47097
3091.5	5.36043
3092	4.75257
3092.5	3.84729
3093	2.77254
3093.5	1.74326
3094	1.00966
3094.5	0.67883
3095	1.03401
3095.5	1.66467
3096	2.75101
3096.5	3.92
3097	5.1428
3097.5	6.03573
3098	6.70051
3098.5	7.0142
3099	6.81767
3099.5	6.39993
3100	5.60522
3100.5	4.88674
3101	4.22437
3101.5	4.19429
3102	4.47564
3102.5	5.2666
3103	6.27531
3103.5	7.27825
3104	7.86325
3104.5	7.98597
3105	7.72511
3105.5	6.90723
3106	6.11954
3106.5	5.46179
3107	5.25904
3107.5	5.29558
3108	5.8316
3108.5	6.36077
3109	6.88354
3109.5	6.99865
3110	6.91038
3110.5	6.44967
3111	5.88775
3111.5	5.31537
3112	5.06419
3112.5	5.14202
3113	5.56583
3113.5	6.49829
3114	7.50453
3114.5	8.52501
3115	9.16485
3115.5	9.55909
3116	9.10406
3116.5	8.41946
3117	7.46307
3117.5	6.6525
3118	6.07068
3118.5	6.11201
3119	6.59571
3119.5	7.33107
3120	8.1512
3120.5	8.66017
3121	8.7539
3121.5	8.14581
3122	7.29462
3122.5	6.11203
3123	5.19769
3123.5	4.45836
3124	4.54781
3124.5	4.92027
3125	5.71934
3125.5	6.49661
3126	7.16524
3126.5	7.38629
3127	7.18144
3127.5	6.66957
3128	5.92646
3128.5	5.26636
3129	4.7581
3129.5	4.66739
3130	4.75734
3130.5	5.1214
3131	5.45448
3131.5	5.76237
3132	5.65424
3132.5	5.35696
3133	4.73855
3133.5	3.90059
3134	3.00567
3134.5	2.26536
3135	1.82884
3135.5	1.67052
3136	2.27674
3136.5	3.13059
3137	4.37939
3137.5	5.69793
3138	6.99875
3138.5	7.86874
3139	8.40005
3139.5	8.58231
3140	8.32494
3140.5	8.01196
3141	7.70064
3141.5	7.60745
3142	7.63341
3142.5	7.84875
3143	8.01192
3143.5	8.11455
3144	7.9199
3144.5	7.63603
3145	7.23401
3145.5	6.98271
3146	6.83072
3146.5	7.08062
3147	7.44012
3147.5	7.94291
3148	8.2585
3148.5	8.42535
3149	8.20674
3149.5	7.70518
3150	7.02707
3150.5	6.35835
3151	5.86689
3151.5	5.6371
3152	5.81491
3152.5	6.15486
3153	6.74267
3153.5	7.28779
3154	7.80277
3154.5	8.03557
3155	8.13516
3155.5	8.02158
3156	7.79415
3156.5	7.53595
3157	7.29601
3157.5	7.11019
3158	6.96749
3158.5	6.87231
3159	6.75214
3159.5	6.57979
3160	6.29712
3160.5	5.96439
3161	5.55959
3161.5	5.20008
3162	4.88121
3162.5	4.81299
3163	4.84408
3163.5	5.0443
3164	5.32737
3164.5	5.6364
3165	5.87601
3165.5	6.04035
3166	6.12866
3166.5	6.1928
3167	6.28706
3167.5	6.46399
3168	6.71051
3168.5	6.98291
3169	7.16866
3169.5	7.18609
3170	7.01213
3170.5	6.42354
3171	5.68985
3171.5	4.7275
3172	3.78901
3172.5	2.8812
3173	2.35825
3173.5	2.06718
3174	2.07313
3174.5	2.4532
3175	2.95168
3175.5	3.5974
3176	4.20882
3176.5	4.7969
3177	5.22608
3177.5	5.59658
3178	5.88223
3178.5	6.13823
3179	6.38974
3179.5	6.65266
3180	6.87914
3180.5	7.08041
3181	7.00812
3181.5	6.77571
3182	6.28797
3182.5	5.47543
3183	4.54691
3183.5	3.51494
3184	2.65533
3184.5	1.93027
3185	1.74922
3185.5	1.79849
3186	2.22902
3186.5	2.85012
3187	3.51676
3187.5	4.05809
3188	4.41986
3188.5	4.62371
3189	4.61573
3189.5	4.60904
3190	4.64094
3190.5	4.86865
3191	5.20158
3191.5	5.75586
3192	6.29256
3192.5	6.81186
3193	7.00905
3193.5	7.0428
3194	6.76836
3194.5	6.2504
3195	5.61831
3195.5	4.96255
3196	4.43442
3196.5	4.04851
3197	3.93768
3197.5	3.94202
3198	4.15287
3198.5	4.41448
3199	4.69875
3199.5	4.90488
3200	5.04378
3200.5	5.0983
3201	5.03372
3201.5	4.92582
3202	4.75082
3202.5	4.56821
3203	4.38216
3203.5	4.25074
3204	4.15692
3204.5	4.11634
3205	4.17472
3205.5	4.2683
3206	4.40797
3206.5	4.51825
3207	4.60863
3207.5	4.53547
3208	4.37476
3208.5	4.07639
3209	3.66064
3209.5	3.22092
3210	2.82647
3210.5	2.6144
3211	2.54181
3211.5	2.82454
3212	3.23087
3212.5	3.83554
3213	4.43968
3213.5	5.00119
3214	5.30831
3214.5	5.3832
3215	5.25792
3215.5	4.86962
3216	4.45496
3216.5	4.02593
3217	3.74909
3217.5	3.56416
3218	3.63343
3218.5	3.76469
3219	3.95609
3219.5	4.07417
3220	4.12622
3220.5	4.04004
3221	3.88699
3221.5	3.71193
3222	3.625
3222.5	3.64391
3223	3.77838
3223.5	4.09156
3224	4.43978
3224.5	4.81236
3225	5.08036
3225.5	5.27849
3226	5.19759
3226.5	5.02753
3227	4.74781
3227.5	4.42072
3228	4.10699
3228.5	3.86491
3229	3.71175
3229.5	3.61414
3230	3.65427
3230.5	3.72641
3231	3.84294
3231.5	4.00011
3232	4.17589
3232.5	4.3871
3233	4.60964
3233.5	4.83971
3234	5.03098
3234.5	5.18157
3235	5.26864
3235.5	5.26088
3236	5.21447
3236.5	5.11041
3237	5.04588
3237.5	5.01096
3238	5.16572
3238.5	5.41105
3239	5.80554
3239.5	6.28321
3240	6.7748
3240.5	7.19022
3241	7.46514
3241.5	7.62139
3242	7.50394
3242.5	7.30023
3243	6.95943
3243.5	6.65895
3244	6.40382
3244.5	6.37195
3245	6.51115
3245.5	6.81303
3246	7.2593
3246.5	7.6909
3247	8.05386
3247.5	8.17853
3248	8.16545
3248.5	7.81324
3249	7.34151
3249.5	6.74187
3250	6.20089
3250.5	5.74505
3251	5.49592
3251.5	5.49551
3252	5.62753
3252.5	5.8754
3253	6.05152
3253.5	6.14116
3254	5.84564
3254.5	5.39445
3255	4.67213
3255.5	3.87444
3256	3.04215
3256.5	2.48845
3257	2.14169
3257.5	2.07613
3258	2.41442
3258.5	2.90218
3259	3.61149
3259.5	4.27984
3260	4.92148
3260.5	5.30432
3261	5.57039
3261.5	5.65717
3262	5.65038
3262.5	5.62065
3263	5.60061
3263.5	5.60994
3264	5.64083
3264.5	5.63118
3265	5.56732
3265.5	5.41122
3266	5.11624
3266.5	4.77293
3267	4.40623
3267.5	4.12494
3268	3.91435
3268.5	4.04821
3269	4.3018
3269.5	4.75007
3270	5.29253
3270.5	5.85141
3271	6.27884
3271.5	6.53566
3272	6.63345
3272.5	6.40689
3273	6.06551
3273.5	5.53479
3274	4.96573
3274.5	4.39009
3275	3.9095
3275.5	3.52689
3276	3.24707
3276.5	3.15001
3277	3.11817
3277.5	3.19325
3278	3.33949
3278.5	3.52484
3279	3.77014
3279.5	4.01555
3280	4.2611
3280.5	4.45542
3281	4.60575
3281.5	4.64878
3282	4.59564
3282.5	4.48487
3283	4.27122
3283.5	4.05167
3284	3.82428
3284.5	3.68152
3285	3.58927
3285.5	3.61354
3286	3.7153
3286.5	3.86653
3287	4.05165
3287.5	4.20438
3288	4.30839
3288.5	4.31018
3289	4.26555
3289.5	4.13513
3290	4.00884
3290.5	3.88553
3291	3.87291
3291.5	3.92206
3292	4.07175
3292.5	4.31912
3293	4.59246
3293.5	4.84342
3294	5.00591
3294.5	5.09666
3295	4.94074
3295.5	4.68687
3296	4.2703
3296.5	3.78406
3297	3.28118
3297.5	2.83638
3298	2.51914
3298.5	2.31843
3299	2.38552
3299.5	2.54846
3300	2.86997
3300.5	3.27331
3301	3.70711
3301.5	4.10635
3302	4.43643
3302.5	4.69542
3303	4.8054
3303.5	4.85536
3304	4.80035
3304.5	4.68037
3305	4.5268
3305.5	4.34166
3306	4.15038
3306.5	3.95198
3307	3.74455
3307.5	3.53355
3308	3.31641
3308.5	3.10615
3309	2.90129
3309.5	2.73506
3310	2.6006
3310.5	2.50759
3311	2.4869
3311.5	2.4944
3312	2.54804
3312.5	2.61914
3313	2.70117
3313.5	2.78875
3314	2.88141
3314.5	2.98157
3315	3.11842
3315.5	3.28028
3316	3.50817
3316.5	3.79295
3317	4.11782
3317.5	4.50881
3318	4.89578
3318.5	5.27388
3319	5.58751
3319.5	5.86153
3320	6.0317
3320.5	6.12989
3321	6.17087
3321.5	6.15843
3322	6.14125
3322.5	6.12031
3323	6.1064
3323.5	6.0907
3324	6.04725
3324.5	5.94915
3325	5.80212
3325.5	5.52485
3326	5.19933
3326.5	4.79324
3327	4.37553
3327.5	3.969
3328	3.6998
3328.5	3.55736
3329	3.54262
3329.5	3.76103
3330	4.05201
3330.5	4.4537
3331	4.81363
3331.5	5.13408
3332	5.20766
3332.5	5.12229
3333	4.85665
3333.5	4.35635
3334	3.7984
3334.5	3.18173
3335	2.69572
3335.5	2.29546
3336	2.22756
3336.5	2.31188
3337	2.59071
3337.5	3.04001
3338	3.51659
3338.5	3.96987
3339	4.26601
3339.5	4.4617
3340	4.35859
3340.5	4.16049
3341	3.82539
3341.5	3.42324
3342	3.01964
3342.5	2.67667
3343	2.41898
3343.5	2.22011
3344	2.11998
3344.5	2.03009
3345	1.95459
3345.5	1.85758
3346	1.75374
3346.5	1.64724
3347	1.59536
3347.5	1.58603
3348	1.74909
3348.5	1.98689
3349	2.34863
3349.5	2.78781
3350	3.24458
3350.5	3.64559
3351	3.92504
3351.5	4.09784
3352	4.0376
3352.5	3.9072
3353	3.66728
3353.5	3.43074
3354	3.21401
3354.5	3.14824
3355	3.20892
3355.5	3.3945
3356	3.70908
3356.5	4.03515
3357	4.35323
3357.5	4.56713
3358	4.71682
3358.5	4.67677
3359	4.56549
3359.5	4.37504
3360	4.19431
3360.5	4.04977
3361	4.0031
3361.5	4.06621
3362	4.19246
3362.5	4.42425
3363	4.65698
3363.5	4.89091
3364	5.03429
3364.5	5.13326
3365	5.14322
3365.5	5.11401
3366	5.06167
3366.5	5.02069
3367	5.00281
3367.5	5.01758
3368	5.06563
3368.5	5.11512
3369	5.13927
3369.5	5.10678
3370	5.03601
3370.5	4.8592
3371	4.65688
3371.5	4.41536
3372	4.18072
3372.5	3.96003
3373	3.79662
3373.5	3.67957
3374	3.5979
3374.5	3.54207
3375	3.47797
3375.5	3.39701
3376	3.28222
3376.5	3.15438
3377	3.01627
3377.5	2.909
3378	2.82825
3378.5	2.87351
3379	2.97005
3379.5	3.15358
3380	3.38132
3380.5	3.62222
3381	3.83177
3381.5	3.9836
3382	4.07956
3382.5	4.05604
3383	3.99489
3383.5	3.87513
3384	3.76453
3384.5	3.66454
3385	3.63512
3385.5	3.63862
3386	3.67797
3386.5	3.7147
3387	3.72473
3387.5	3.66243
3388	3.49306
3388.5	3.26038
3389	2.88413
3389.5	2.49046
3390	2.07539
3390.5	1.75743
3391	1.51228
3391.5	1.44316
3392	1.54574
3392.5	1.75432
3393	2.18284
3393.5	2.65964
3394	3.20327
3394.5	3.73409
3395	4.23432
3395.5	4.62906
3396	4.92543
3396.5	5.1567
3397	5.24108
3397.5	5.28465
3398	5.26534
3398.5	5.20519
3399	5.13259
3399.5	5.05435
3400	4.9936
3400.5	4.94592
3401	4.96271
3401.5	5.01583
3402	5.1294
3402.5	5.31507
3403	5.53489
3403.5	5.81587
3404	6.10626
3404.5	6.4046
3405	6.65015
3405.5	6.85054
3406	6.96684
3406.5	6.96409
3407	6.89741
3407.5	6.69192
3408	6.43795
3408.5	6.13802
3409	5.83744
3409.5	5.558
3410	5.32775
3410.5	5.17047
3411	5.05372
3411.5	5.02424
3412	5.02136
3412.5	5.04688
3413	5.0781
3413.5	5.10334
3414	5.11041
3414.5	5.10119
3415	5.08445
3415.5	5.07803
3416	5.09548
3416.5	5.14162
3417	5.25274
3417.5	5.39178
3418	5.58178
3418.5	5.78531
3419	5.99506
3419.5	6.15667
3420	6.26615
3420.5	6.30498
3421	6.20267
3421.5	6.03049
3422	5.71548
3422.5	5.31893
3423	4.86952
3423.5	4.38742
3424	3.93234
3424.5	3.51864
3425	3.22449
3425.5	2.99777
3426	2.92921
3426.5	2.96765
3427	3.08445
3427.5	3.33128
3428	3.60374
3428.5	3.91407
3429	4.21586
3429.5	4.5061
3430	4.74758
3430.5	4.94819
3431	5.11506
3431.5	5.23276
3432	5.33767
3432.5	5.42326
3433	5.49597
3433.5	5.56067
3434	5.60248
3434.5	5.61814
3435	5.60951
3435.5	5.53091
3436	5.41844
3436.5	5.2445
3437	5.01779
3437.5	4.76507
3438	4.47937
3438.5	4.20263
3439	3.93527
3439.5	3.73748
3440	3.58167
3440.5	3.51141
3441	3.52726
3441.5	3.59285
3442	3.76637
3442.5	3.97764
3443	4.23338
3443.5	4.51938
3444	4.80629
3444.5	5.08014
3445	5.31058
3445.5	5.513
3446	5.6136
3446.5	5.66232
3447	5.64216
3447.5	5.53471
3448	5.39509
3448.5	5.20706
3449	5.01901
3449.5	4.83131
3450	4.70603
3450.5	4.61637
3451	4.58015
3451.5	4.59746
3452	4.62979
3452.5	4.66704
3453	4.66174
3453.5	4.62592
3454	4.45667
3454.5	4.2269
3455	3.89981
3455.5	3.48615
3456	3.04233
3456.5	2.57993
3457	2.16672
3457.5	1.7933
3458	1.5923
3458.5	1.47827
3459	1.51361
3459.5	1.70445
3460	1.97049
3460.5	2.36564
3461	2.79441
3461.5	3.2538
3462	3.70264
3462.5	4.13327
3463	4.52575
3463.5	4.87538
3464	5.20248
3464.5	5.48744
3465	5.75683
3465.5	6.01024
3466	6.23799
3466.5	6.45037
3467	6.63182
3467.5	6.7665
3468	6.87192
3468.5	6.88652
3469	6.84578
3469.5	6.74116
3470	6.52707
3470.5	6.2649
3471	5.91386
3471.5	5.50445
3472	5.06153
3472.5	4.58096
3473	4.11509
3473.5	3.66833
3474	3.32184
3474.5	3.04149
3475	2.9196
3475.5	2.95526
3476	3.09149
3476.5	3.47319
3477	3.92271
3477.5	4.47183
3478	5.03244
3478.5	5.56418
3479	5.9633
3479.5	6.18396
3480	6.27924
3480.5	6.02371
3481	5.64961
3481.5	5.08935
3482	4.42352
3482.5	3.73857
3483	3.11737
3483.5	2.64756
3484	2.29774
3484.5	2.31083
3485	2.46948
3485.5	2.86857
3486	3.44185
3486.5	4.08036
3487	4.74503
3487.5	5.31546
3488	5.80174
3488.5	5.9901
3489	6.03895
3489.5	5.84061
3490	5.43573
3490.5	4.9318
3491	4.30017
3491.5	3.68279
3492	3.07975
3492.5	2.62711
3493	2.26144
3493.5	2.06708
3494	2.03236
3494.5	2.08499
3495	2.29258
3495.5	2.53391
3496	2.81343
3496.5	3.07757
3497	3.31954
3497.5	3.50456
3498	3.62752
3498.5	3.71366
3499	3.72419
3499.5	3.71542
3500	3.68205
