#Imported=	16.12.2021 13:56:06
50	26.6562
50.5	25.7528
51	25.0279
51.5	24.5584
52	24.3118
52.5	24.2655
53	24.4
53.5	24.7378
54	25.4141
54.5	26.4965
55	27.8814
55.5	29.3808
56	30.6499
56.5	31.3853
57	31.2816
57.5	30.4505
58	29.3081
58.5	28.2368
59	27.6302
59.5	27.5979
60	28.1267
60.5	28.9375
61	29.7503
61.5	30.4743
62	31.1424
62.5	31.8696
63	32.7401
63.5	33.6907
64	34.5038
64.5	34.9981
65	35.0567
65.5	34.8523
66	34.6393
66.5	34.8903
67	35.7275
67.5	37.1108
68	38.8341
68.5	40.5143
69	41.8863
69.5	42.7213
70	43.234
70.5	43.6694
71	44.3056
71.5	45.2699
72	46.5975
72.5	48.2808
73	50.1399
73.5	52.0668
74	54.0179
74.5	55.9712
75	57.9143
75.5	59.7983
76	61.5382
76.5	63.0325
77	64.1117
77.5	64.7561
78	64.9486
78.5	64.6597
79	64.0725
79.5	63.3787
80	62.8004
80.5	62.4478
81	62.3376
81.5	62.4151
82	62.4865
82.5	62.3557
83	61.8592
83.5	61.0418
84	59.9948
84.5	58.8221
85	57.6392
85.5	56.4777
86	55.2932
86.5	54.0525
87	52.8012
87.5	51.7158
88	51.0426
88.5	51.0175
89	52.0224
89.5	53.872
90	56.2729
90.5	58.8924
91	61.346
91.5	63.4372
92	65.1331
92.5	66.7873
93	68.8022
93.5	71.564
94	75.1727
94.5	79.433
95	83.9842
95.5	88.1287
96	91.3093
96.5	92.9997
97	92.9964
97.5	91.4504
98	88.4335
98.5	84.3547
99	79.8581
99.5	75.5699
100	72.0091
100.5	69.3891
101	67.8341
101.5	67.137
102	66.8112
102.5	66.4168
103	65.7498
103.5	64.9605
104	64.4143
104.5	64.6345
105	65.917
105.5	68.4306
106	71.7396
106.5	75.1776
107	78.2003
107.5	80.3597
108	81.6645
108.5	82.2335
109	82.4428
109.5	82.6707
110	83.0565
110.5	83.6201
111	84.2569
111.5	84.873
112	85.3901
112.5	85.8257
113	86.2122
113.5	86.5842
114	86.9788
114.5	87.4405
115	88.0594
115.5	88.9014
116	89.9833
116.5	91.2427
117	92.488
117.5	93.5316
118	94.1457
118.5	94.3396
119	94.2494
119.5	94.2031
120	94.4759
120.5	95.2127
121	96.4762
121.5	97.9894
122	99.471
122.5	100.536
123	101.13
123.5	101.281
124	101.062
124.5	100.699
125	100.309
125.5	99.9687
126	99.6714
126.5	99.4062
127	99.2028
127.5	99.1027
128	99.155
128.5	99.4244
129	99.8569
129.5	100.347
130	100.756
130.5	100.993
131	101.033
131.5	100.905
132	100.765
132.5	100.803
133	101.218
133.5	101.996
134	103.015
134.5	104.02
135	104.674
135.5	104.706
136	103.82
136.5	102.343
137	100.69
137.5	99.406
138	98.9224
138.5	99.4031
139	100.897
139.5	102.969
140	105.086
140.5	106.911
141	108.356
141.5	109.537
142	110.63
142.5	111.806
143	113.051
143.5	114.184
144	115.025
144.5	115.531
145	115.759
145.5	115.925
146	116.236
146.5	116.784
147	117.396
147.5	117.832
148	117.862
148.5	117.413
149	116.623
149.5	115.678
150	114.791
150.5	113.987
151	113.175
151.5	112.256
152	111.269
152.5	110.419
153	110.095
153.5	110.58
154	111.897
154.5	113.697
155	115.4
155.5	116.46
156	116.46
156.5	115.505
157	113.86
157.5	112.072
158	110.493
158.5	109.244
159	108.3
159.5	107.542
160	106.99
160.5	106.913
161	107.507
161.5	108.914
162	111.098
162.5	113.63
163	116.105
163.5	118.063
164	119.373
164.5	120.163
165	120.765
165.5	121.527
166	122.659
166.5	124.32
167	126.407
167.5	128.842
168	131.465
168.5	134.001
169	136.177
169.5	137.529
170	137.893
170.5	137.143
171	135.191
171.5	132.626
172	129.985
172.5	127.788
173	126.194
173.5	125.193
174	124.651
174.5	124.204
175	123.617
175.5	122.757
176	121.719
176.5	120.619
177	119.63
177.5	118.884
178	118.479
178.5	118.571
179	119.058
179.5	119.797
180	120.604
180.5	121.26
181	121.634
181.5	121.641
182	121.421
182.5	121.179
183	121.151
183.5	121.444
184	122.082
184.5	123.112
185	124.487
185.5	126.203
186	128.384
186.5	130.993
187	133.999
187.5	137.458
188	141.395
188.5	145.906
189	151.285
189.5	157.698
190	165.052
190.5	172.973
191	180.724
191.5	187.558
192	192.542
192.5	195.174
193	195.408
193.5	192.984
194	188.524
194.5	182.578
195	175.385
195.5	167.384
196	159.074
196.5	151.004
197	143.885
197.5	138.16
198	134.067
198.5	131.402
199	129.583
199.5	128.11
200	126.507
200.5	124.625
201	122.649
201.5	121.041
202	120.088
202.5	119.945
203	120.468
203.5	121.24
204	121.863
204.5	121.951
205	121.45
205.5	120.493
206	119.309
206.5	118.155
207	117.208
207.5	116.606
208	116.349
208.5	116.475
209	116.935
209.5	117.568
210	118.229
210.5	118.707
211	118.861
211.5	118.584
212	117.819
212.5	116.73
213	115.489
213.5	114.271
214	113.189
214.5	112.291
215	111.574
215.5	110.926
216	110.221
216.5	109.266
217	108.023
217.5	106.5
218	104.79
218.5	103.105
219	101.62
219.5	100.529
220	99.8089
220.5	99.378
221	99.1563
221.5	99.0773
222	99.1854
222.5	99.6243
223	100.388
223.5	101.415
224	102.478
224.5	103.253
225	103.571
225.5	103.338
226	102.809
226.5	102.231
227	101.895
227.5	101.906
228	102.245
228.5	102.808
229	103.476
229.5	104.242
230	105.156
230.5	106.189
231	107.222
231.5	107.936
232	107.969
232.5	107.161
233	105.437
233.5	103.176
234	100.805
234.5	98.8428
235	97.6371
235.5	97.3252
236	98.0258
236.5	99.3752
237	101.082
237.5	102.899
238	104.587
238.5	106.006
239	107.024
239.5	107.631
240	107.874
240.5	107.804
241	107.531
241.5	107.178
242	106.908
242.5	106.946
243	107.501
243.5	108.888
244	111.285
244.5	114.524
245	118.481
245.5	122.895
246	127.546
246.5	132.355
247	137.294
247.5	142.312
248	147.191
248.5	151.471
249	154.722
249.5	156.402
250	156.241
250.5	154.494
251	151.381
251.5	147.36
252	142.928
252.5	138.302
253	133.53
253.5	128.608
254	123.554
254.5	118.504
255	113.669
255.5	109.313
256	105.742
256.5	103.001
257	101.138
257.5	100.201
258	100.002
258.5	100.445
259	101.351
259.5	102.399
260	103.324
260.5	103.853
261	103.994
261.5	103.795
262	103.356
262.5	102.818
263	102.231
263.5	101.589
264	100.882
264.5	100.114
265	99.3444
265.5	98.6328
266	97.9989
266.5	97.4171
267	96.8188
267.5	96.1693
268	95.5024
268.5	94.9625
269	94.7225
269.5	94.9888
270	95.7095
270.5	96.8237
271	98.2563
271.5	99.8254
272	101.446
272.5	103.031
273	104.465
273.5	105.597
274	106.142
274.5	106.056
275	105.368
275.5	104.217
276	103.027
276.5	102.125
277	101.846
277.5	102.014
278	102.302
278.5	102.262
279	101.636
279.5	100.383
280	98.6149
280.5	96.7407
281	95.083
281.5	93.9294
282	93.1657
282.5	92.6033
283	92.0292
283.5	91.29
284	90.3551
284.5	89.2631
285	88.1495
285.5	87.1456
286	86.4014
286.5	85.9692
287	85.8527
287.5	86.0503
288	86.4336
288.5	86.8492
289	87.1238
289.5	87.1396
290	86.8791
290.5	86.4146
291	85.9066
291.5	85.4822
292	85.2498
292.5	85.255
293	85.4918
293.5	85.9667
294	86.6126
294.5	87.2854
295	87.7631
295.5	87.8341
296	87.443
296.5	86.6403
297	85.7222
297.5	85.0589
298	85.0066
298.5	85.7103
299	86.9234
299.5	88.2573
300	89.3383
300.5	90.0502
301	90.4525
301.5	90.7704
302	91.1918
302.5	91.7334
303	92.1801
303.5	92.254
304	91.8231
304.5	91.0093
305	90.1748
305.5	89.6652
306	89.7401
306.5	90.3113
307	91.2022
307.5	92.1572
308	93.0384
308.5	93.8918
309	94.8083
309.5	95.7564
310	96.5574
310.5	96.877
311	96.5807
311.5	95.6895
312	94.552
312.5	93.7883
313	93.794
313.5	94.7136
314	96.0683
314.5	97.349
315	97.9547
315.5	97.785
316	97.0108
316.5	96.1442
317	95.7943
317.5	96.1987
318	97.3626
318.5	98.8076
319	100.167
319.5	101.081
320	101.56
320.5	101.725
321	101.775
321.5	101.892
322	102.079
322.5	102.242
323	102.3
323.5	102.253
324	102.207
324.5	102.335
325	102.772
325.5	103.647
326	104.837
326.5	106.167
327	107.457
327.5	108.621
328	109.672
328.5	110.687
329	111.76
329.5	112.923
330	114.129
330.5	115.246
331	116.161
331.5	116.789
332	117.164
332.5	117.311
333	117.166
333.5	116.668
334	115.754
334.5	114.382
335	112.805
335.5	111.457
336	110.941
336.5	111.54
337	113.189
337.5	115.636
338	118.253
338.5	120.54
339	122.171
339.5	123.263
340	124.179
340.5	125.285
341	126.629
341.5	127.941
342	128.75
342.5	128.7
343	127.803
343.5	126.298
344	124.775
344.5	123.746
345	123.563
345.5	123.985
346	124.501
346.5	124.594
347	123.9
347.5	122.446
348	120.394
348.5	118.132
349	116.029
349.5	114.353
350	113.223
350.5	112.514
351	112.167
351.5	112.1
352	112.204
352.5	112.401
353	112.561
353.5	112.553
354	112.239
354.5	111.524
355	110.533
355.5	109.467
356	108.614
356.5	108.161
357	108.207
357.5	108.708
358	109.396
358.5	110.031
359	110.379
359.5	110.398
360	110.153
360.5	109.775
361	109.395
361.5	109.073
362	108.862
362.5	108.78
363	108.87
363.5	109.168
364	109.566
364.5	109.858
365	109.672
365.5	108.88
366	107.499
366.5	105.79
367	104.293
367.5	103.438
368	103.646
368.5	104.65
369	106.074
369.5	107.264
370	107.76
370.5	107.463
371	106.438
371.5	105.162
372	103.934
372.5	102.995
373	102.307
373.5	101.766
374	101.254
374.5	100.751
375	100.367
375.5	100.329
376	100.708
376.5	101.462
377	102.407
377.5	103.176
378	103.471
378.5	102.971
379	101.792
379.5	100.206
380	98.6852
380.5	97.6412
381	97.1996
381.5	97.3064
382	97.5782
382.5	97.698
383	97.4579
383.5	96.9863
384	96.5705
384.5	96.5822
385	97.1294
385.5	97.9639
386	98.6138
386.5	98.6621
387	98.0033
387.5	96.773
388	95.4861
388.5	94.61
389	94.5029
389.5	95.07
390	95.914
390.5	96.5079
391	96.5076
391.5	95.9295
392	94.9573
392.5	93.9713
393	93.2691
393.5	93.051
394	93.2944
394.5	93.8028
395	94.339
395.5	94.6033
396	94.4146
396.5	93.6671
397	92.4488
397.5	91.0345
398	89.7581
398.5	88.9964
399	88.9248
399.5	89.6537
400	91.078
400.5	92.898
401	94.8887
401.5	96.8465
402	98.7035
402.5	100.479
403	102.317
403.5	104.47
404	107.373
404.5	111.663
405	117.641
405.5	125.602
406	135.41
406.5	145.962
407	155.93
407.5	163.661
408	168.368
408.5	169.399
409	166.387
409.5	160.362
410	151.946
410.5	141.886
411	131.306
411.5	120.989
412	111.949
412.5	104.534
413	98.9728
413.5	95.3806
414	93.0693
414.5	91.608
415	90.6356
415.5	89.8529
416	89.2385
416.5	88.8973
417	88.8156
417.5	88.9178
418	89.0036
418.5	88.912
419	88.5981
419.5	88.1067
420	87.6145
420.5	87.245
421	87.1102
421.5	87.1628
422	87.34
422.5	87.5602
423	87.7354
423.5	87.8128
424	87.7256
424.5	87.4625
425	87.0102
425.5	86.3486
426	85.5611
426.5	84.7491
427	84.1077
427.5	83.8344
428	84.1036
428.5	85.137
429	86.7735
429.5	88.6523
430	90.2207
430.5	91.0041
431	90.8003
431.5	89.6184
432	88.0809
432.5	86.8544
433	86.6585
433.5	87.6308
434	89.4341
434.5	91.3526
435	92.4721
435.5	92.3937
436	91.0339
436.5	89.028
437	87.1122
437.5	85.9904
438	85.9163
438.5	86.684
439	87.9038
439.5	89.0202
440	89.7251
440.5	89.9243
441	89.8668
441.5	89.8046
442	89.8336
442.5	89.8578
443	89.7056
443.5	89.2351
444	88.5154
444.5	87.8043
445	87.4317
445.5	87.6103
446	88.2278
446.5	88.9564
447	89.2921
447.5	89.0052
448	88.0871
448.5	86.8681
449	85.7887
449.5	85.168
450	85.0688
450.5	85.216
451	85.2699
451.5	84.9218
452	84.184
452.5	83.2913
453	82.7272
453.5	82.8039
454	83.6738
454.5	85.205
455	86.9252
455.5	88.3701
456	89.0609
456.5	88.9224
457	88.0337
457.5	86.7375
458	85.554
458.5	84.8725
459	84.9377
459.5	85.4783
460	86.2072
460.5	86.7915
461	87.1078
461.5	87.2141
462	87.3244
462.5	87.6425
463	88.2365
463.5	89.0195
464	89.7415
464.5	90.2179
465	90.3325
465.5	90.2789
466	90.2564
466.5	90.49
467	91.0149
467.5	91.8009
468	92.7918
468.5	93.8785
469	95.0367
469.5	96.2878
470	97.6158
470.5	98.9844
471	100.295
471.5	101.448
472	102.388
472.5	103.072
473	103.583
473.5	103.983
474	104.32
474.5	104.621
475	104.861
475.5	104.936
476	104.757
476.5	104.243
477	103.287
477.5	101.989
478	100.498
478.5	99.0229
479	97.7227
479.5	96.6293
480	95.6723
480.5	94.6672
481	93.4824
481.5	92.059
482	90.5403
482.5	89.1298
483	88.0695
483.5	87.4121
484	87.0481
484.5	86.7727
485	86.3797
485.5	85.8593
486	85.378
486.5	85.1898
487	85.4328
487.5	86.1182
488	86.9649
488.5	87.6398
489	87.8447
489.5	87.5597
490	87.0128
490.5	86.5122
491	86.2923
491.5	86.2813
492	86.1654
492.5	85.5684
493	84.3634
493.5	82.6443
494	80.8714
494.5	79.5541
495	79.1407
495.5	79.73
496	80.9784
496.5	82.4316
497	83.5191
497.5	83.9257
498	83.4928
498.5	82.4582
499	81.2559
499.5	80.2723
500	79.842
500.5	80.0258
501	80.8135
501.5	82.0515
502	83.4894
502.5	84.9763
503	86.4025
503.5	87.7198
504	88.8638
504.5	89.7177
505	90.2262
505.5	90.3975
506	90.4244
506.5	90.6516
507	91.4089
507.5	92.9313
508	94.9771
508.5	97.1587
509	98.8625
509.5	99.7343
510	99.6567
510.5	98.8266
511	97.8783
511.5	97.3276
512	97.6816
512.5	98.8456
513	100.599
513.5	102.6
514	104.457
514.5	105.944
515	106.863
515.5	107.313
516	107.38
516.5	107.167
517	106.855
517.5	106.523
518	106.195
518.5	105.829
519	105.355
519.5	104.636
520	103.645
520.5	102.355
521	100.745
521.5	98.9916
522	97.3017
522.5	96.0503
523	95.4568
523.5	95.6152
524	96.4931
524.5	97.6121
525	98.5455
525.5	98.8487
526	98.5133
526.5	97.7356
527	96.8398
527.5	96.0883
528	95.487
528.5	94.8845
529	94.1202
529.5	93.179
530	92.1851
530.5	91.3318
531	90.7012
531.5	90.2642
532	89.8646
532.5	89.4261
533	89.0251
533.5	88.8419
534	88.9693
534.5	89.2942
535	89.383
535.5	88.8769
536	87.5821
536.5	85.8764
537	84.3806
537.5	83.7955
538	84.3547
538.5	85.7236
539	87.2617
539.5	88.1954
540	88.1989
540.5	87.3229
541	86.1758
541.5	85.3924
542	85.4131
542.5	86.1489
543	87.0883
543.5	87.7205
544	87.7172
544.5	87.1437
545	86.2185
545.5	85.2959
546	84.6017
546.5	84.2101
547	84.0304
547.5	83.9106
548	83.7775
548.5	83.6594
549	83.6545
549.5	83.8782
550	84.3826
550.5	85.07
551	85.798
551.5	86.3915
552	86.7515
552.5	86.8123
553	86.5622
553.5	86.0987
554	85.5179
554.5	84.9843
555	84.6616
555.5	84.6902
556	85.1347
556.5	85.8173
557	86.5029
557.5	86.8698
558	86.7975
558.5	86.3179
559	85.6938
559.5	85.2481
560	85.1397
560.5	85.3575
561	85.6513
561.5	85.8325
562	85.8158
562.5	85.7538
563	85.8364
563.5	86.2291
564	86.7994
564.5	87.3016
565	87.3601
565.5	86.9041
566	86.054
566.5	85.1749
567	84.682
567.5	84.7493
568	85.344
568.5	86.0584
569	86.6104
569.5	86.8056
570	86.8174
570.5	86.9055
571	87.4351
571.5	88.4741
572	89.9167
572.5	91.4546
573	92.661
573.5	93.2333
574	92.8446
574.5	91.6142
575	89.6803
575.5	87.1545
576	84.3358
576.5	81.4705
577	78.9149
577.5	77.0302
578	76.1487
578.5	76.7385
579	78.665
579.5	81.5701
580	84.8609
580.5	87.6838
581	89.4401
581.5	89.6201
582	88.4926
582.5	86.6085
583	84.6283
583.5	83.1484
584	82.3616
584.5	82.2119
585	82.2984
585.5	82.3216
586	82.2545
586.5	82.3794
587	83.0339
587.5	84.5131
588	86.6366
588.5	88.8812
589	90.5384
589.5	91.0797
590	90.5101
590.5	89.1493
591	87.7539
591.5	86.9293
592	86.9917
592.5	87.6933
593	88.4671
593.5	88.7909
594	88.4702
594.5	87.8148
595	87.3549
595.5	87.5869
596	88.5769
596.5	90.1694
597	91.9588
597.5	93.6105
598	95.025
598.5	96.3521
599	97.8367
599.5	99.639
600	101.699
600.5	103.708
601	105.267
601.5	105.968
602	105.768
602.5	104.725
603	103.143
603.5	101.527
604	100.297
604.5	99.816
605	100.006
605.5	100.666
606	101.364
606.5	101.63
607	101.125
607.5	99.6716
608	97.6255
608.5	95.4025
609	93.5739
609.5	92.4359
610	92.0547
610.5	92.2507
611	92.5491
611.5	92.6551
612	92.43
612.5	92.0716
613	91.8002
613.5	91.7802
614	91.863
614.5	91.7853
615	91.2576
615.5	90.4188
616	89.5836
616.5	89.259
617	89.5436
617.5	90.2321
618	90.7471
618.5	90.5992
619	89.6849
619.5	88.3574
620	87.4326
620.5	87.4689
621	88.7842
621.5	90.7024
622	92.4927
622.5	93.3696
623	93.3441
623.5	92.8587
624	92.7196
624.5	93.4979
625	95.3073
625.5	97.9415
626	100.751
626.5	103.347
627	105.465
627.5	107.113
628	108.317
628.5	109.007
629	109.278
629.5	109.284
630	109.277
630.5	109.505
631	110.008
631.5	110.603
632	110.908
632.5	110.657
633	109.737
633.5	108.473
634	107.297
634.5	106.622
635	106.526
635.5	106.803
636	107.129
636.5	107.19
637	106.883
637.5	106.209
638	105.269
638.5	104.134
639	102.803
639.5	101.332
640	99.8512
640.5	98.5821
641	97.7406
641.5	97.3715
642	97.3926
642.5	97.4631
643	97.1928
643.5	96.2124
644	94.4103
644.5	92.0587
645	89.5777
645.5	87.5373
646	86.2547
646.5	85.8329
647	85.9612
647.5	86.0793
648	85.7141
648.5	84.6504
649	83.1917
649.5	81.8395
650	81.1657
650.5	81.3301
651	82.2383
651.5	83.4463
652	84.4105
652.5	84.7691
653	84.3944
653.5	83.5715
654	82.6019
654.5	81.8206
655	81.3733
655.5	81.2869
656	81.493
656.5	81.8224
657	82.1672
657.5	82.4234
658	82.5361
658.5	82.4567
659	82.1428
659.5	81.6687
660	81.1347
660.5	80.7301
661	80.607
661.5	80.864
662	81.505
662.5	82.2836
663	82.9716
663.5	83.297
664	83.231
664.5	82.841
665	82.3057
665.5	81.8748
666	81.6878
666.5	81.8367
667	82.1794
667.5	82.5658
668	82.7613
668.5	82.62
669	82.0631
669.5	81.0595
670	79.8634
670.5	78.731
671	78.0129
671.5	77.8119
672	78.0739
672.5	78.5942
673	79.0238
673.5	79.1734
674	78.9782
674.5	78.6306
675	78.2888
675.5	77.999
676	77.6216
676.5	76.9966
677	76.0399
677.5	74.9882
678	74.1826
678.5	74.0396
679	74.582
679.5	75.5415
680	76.4135
680.5	76.6886
681	76.1619
681.5	74.8448
682	73.2105
682.5	71.7465
683	70.9318
683.5	70.9304
684	71.6415
684.5	72.8642
685	74.1632
685.5	75.1473
686	75.4274
686.5	74.8972
687	73.7419
687.5	72.3034
688	71.1099
688.5	70.5162
689	70.7181
689.5	71.507
690	72.4802
690.5	73.2772
691	73.7103
691.5	73.8655
692	73.8808
692.5	73.8485
693	73.7082
693.5	73.2739
694	72.4192
694.5	71.2589
695	70.0578
695.5	69.1887
696	68.8148
696.5	68.9066
697	69.1696
697.5	69.2853
698	69.133
698.5	68.8984
699	68.9487
699.5	69.6097
700	70.9326
700.5	72.4973
701	73.7598
701.5	74.1621
702	73.6855
702.5	72.5906
703	71.4843
703.5	70.9132
704	71.14
704.5	72.074
705	73.2022
705.5	74.0966
706	74.439
706.5	74.348
707	74.0719
707.5	73.9711
708	74.2285
708.5	74.8342
709	75.583
709.5	76.1753
710	76.4264
710.5	76.2708
711	75.9455
711.5	75.6932
712	75.7659
712.5	76.1213
713	76.5718
713.5	76.7674
714	76.5452
714.5	75.9628
715	75.3673
715.5	75.2045
716	75.7072
716.5	76.8727
717	78.128
717.5	78.9837
718	78.9853
718.5	78.3883
719	77.6288
719.5	77.3291
720	77.6969
720.5	78.5764
721	79.4866
721.5	79.9158
722	79.6702
722.5	78.7915
723	77.7158
723.5	76.731
724	75.9797
724.5	75.3629
725	74.7918
725.5	74.3187
726	74.1149
726.5	74.334
727	75.0458
727.5	75.968
728	76.7707
728.5	77.1341
729	77.0845
729.5	76.8506
730	76.7639
730.5	77.043
731	77.6831
731.5	78.5322
732	79.2938
732.5	79.745
733	79.6833
733.5	79.1105
734	78.1456
734.5	76.9588
735	75.842
735.5	75.0354
736	74.7525
736.5	74.9802
737	75.5418
737.5	76.2304
738	76.8222
738.5	77.2056
739	77.3065
739.5	77.1109
740	76.6428
740.5	75.9288
741	75.1392
741.5	74.5305
742	74.3985
742.5	74.8656
743	75.7203
743.5	76.5796
744	76.9732
744.5	76.7507
745	76.046
745.5	75.3506
746	75.1163
746.5	75.5435
747	76.3853
747.5	77.0979
748	77.227
748.5	76.6586
749	75.831
749.5	75.3412
750	75.7748
750.5	77.1262
751	79.093
751.5	81.0248
752	82.3602
752.5	82.7893
753	82.2736
753.5	81.1776
754	79.7573
754.5	78.2556
755	76.8809
755.5	75.8457
756	75.4609
756.5	75.7867
757	76.7704
757.5	78.0608
758	79.0578
758.5	79.2963
759	78.4837
759.5	77.0518
760	75.5333
760.5	74.6209
761	74.5299
761.5	75.1652
762	76.1418
762.5	76.9314
763	77.2843
763.5	77.1326
764	76.7674
764.5	76.4032
765	76.2126
765.5	76.1859
766	76.2776
766.5	76.4426
767	76.6242
767.5	76.7775
768	76.8159
768.5	76.7024
769	76.4433
769.5	76.1
770	75.7688
770.5	75.4546
771	75.0285
771.5	74.3441
772	73.3501
772.5	72.1762
773	71.2069
773.5	70.786
774	71.2282
774.5	72.3056
775	73.6384
775.5	74.7243
776	75.2419
776.5	75.1246
777	74.3958
777.5	73.3118
778	72.0688
778.5	70.8765
779	69.9926
779.5	69.665
780	70.2141
780.5	71.5822
781	73.4733
781.5	75.4218
782	76.9118
782.5	77.6997
783	77.6991
783.5	77.1778
784	76.418
784.5	75.5826
785	74.7434
785.5	73.9149
786	73.1446
786.5	72.5124
787	72.0585
787.5	71.7647
788	71.5056
788.5	71.1694
789	70.7268
789.5	70.278
790	69.9504
790.5	69.8129
791	69.7716
791.5	69.6374
792	69.2261
792.5	68.4961
793	67.5979
793.5	66.7386
794	66.1262
794.5	65.8227
795	65.8426
795.5	66.1451
796	66.6622
796.5	67.3768
797	68.2286
797.5	69.0932
798	69.8364
798.5	70.3472
799	70.6511
799.5	70.821
800	70.9675
800.5	71.1442
801	71.3132
801.5	71.3604
802	71.2088
802.5	70.8204
803	70.2239
803.5	69.5365
804	68.852
804.5	68.283
805	67.9102
805.5	67.8311
806	68.1582
806.5	68.8279
807	69.7411
807.5	70.6834
808	71.4167
808.5	71.7853
809	71.7067
809.5	71.3545
810	70.877
810.5	70.3992
811	69.9317
811.5	69.3925
812	68.6574
812.5	67.7784
813	66.9384
813.5	66.5614
814	66.9064
814.5	68.08
815	69.9844
815.5	71.9898
816	73.5806
816.5	74.1904
817	73.9214
817.5	73.0234
818	71.8697
818.5	70.822
819	69.9737
819.5	69.3075
820	68.7551
820.5	68.3798
821	68.3977
821.5	68.8498
822	69.6249
822.5	70.4131
823	70.8675
823.5	70.8631
824	70.483
824.5	70.0769
825	69.8513
825.5	69.7889
826	69.5935
826.5	69.0122
827	67.9579
827.5	66.7949
828	65.9746
828.5	65.9379
829	66.5975
829.5	67.5555
830	68.2663
830.5	68.3903
831	67.9797
831.5	67.3323
832	66.8765
832.5	66.7962
833	67.0429
833.5	67.3081
834	67.3438
834.5	67.0547
835	66.6327
835.5	66.3636
836	66.5203
836.5	67.1421
837	68.0403
837.5	68.9416
838	69.5638
838.5	69.7986
839	69.6205
839.5	69.1456
840	68.5154
840.5	67.8101
841	67.1065
841.5	66.4857
842	66.0726
842.5	65.9836
843	66.2156
843.5	66.704
844	67.2622
844.5	67.7087
845	67.9382
845.5	67.9554
846	67.8566
846.5	67.7032
847	67.5296
847.5	67.3637
848	67.2728
848.5	67.3747
849	67.7021
849.5	68.175
850	68.5082
850.5	68.406
851	67.6816
851.5	66.4359
852	65.1522
852.5	64.3208
853	64.3473
853.5	65.067
854	66.1305
854.5	66.9873
855	67.2993
855.5	66.9909
856	66.2469
856.5	65.4957
857	65.0474
857.5	65.1407
858	65.6579
858.5	66.4049
859	67.0442
859.5	67.301
860	67.0452
860.5	66.3137
861	65.4988
861.5	64.9554
862	65.0454
862.5	65.6526
863	66.5145
863.5	67.1692
864	67.3183
864.5	66.8929
865	65.9957
865.5	65.0154
866	64.1855
866.5	63.6673
867	63.3662
867.5	63.1746
868	63.0053
868.5	62.8494
869	62.7712
869.5	62.8988
870	63.264
870.5	63.8443
871	64.5529
871.5	65.2143
872	65.6976
872.5	65.8824
873	65.8237
873.5	65.6231
874	65.4203
874.5	65.3418
875	65.4462
875.5	65.776
876	66.2817
876.5	66.9094
877	67.599
877.5	68.2581
878	68.8088
878.5	69.1591
879	69.2876
879.5	69.2004
880	68.8711
880.5	68.3083
881	67.5169
881.5	66.4918
882	65.3391
882.5	64.2157
883	63.3419
883.5	62.8915
884	62.9241
884.5	63.4716
885	64.3626
885.5	65.3359
886	66.0569
886.5	66.2001
887	65.6337
887.5	64.3468
888	62.7176
888.5	61.2886
889	60.6322
889.5	61.035
890	62.279
890.5	63.9408
891	65.3914
891.5	66.2633
892	66.4656
892.5	66.278
893	66.0946
893.5	66.137
894	66.3574
894.5	66.4937
895	66.2803
895.5	65.619
896	64.712
896.5	63.8335
897	63.2477
897.5	62.9709
898	62.8816
898.5	62.7609
899	62.4897
899.5	62.0963
900	61.7432
900.5	61.5762
901	61.6527
901.5	61.9214
902	62.2499
902.5	62.5884
903	62.9669
903.5	63.4316
904	63.977
904.5	64.488
905	64.8189
905.5	64.8876
906	64.7424
906.5	64.6096
907	64.6723
907.5	65.0188
908	65.4635
908.5	65.7716
909	65.685
909.5	65.2492
910	64.6256
910.5	64.088
911	63.7994
911.5	63.7707
912	63.9146
912.5	64.0833
913	64.2483
913.5	64.4704
914	64.7906
914.5	65.1749
915	65.4736
915.5	65.5597
916	65.4075
916.5	65.1161
917	64.8934
917.5	64.8193
918	64.776
918.5	64.4565
919	63.6052
919.5	62.0682
920	60.2401
920.5	58.6247
921	57.9049
921.5	58.2584
922	59.5482
922.5	61.4137
923	63.2377
923.5	64.6546
924	65.4096
924.5	65.5988
925	65.3496
925.5	64.7506
926	64.0092
926.5	63.3519
927	63.1122
927.5	63.4611
928	64.3291
928.5	65.376
929	65.9875
929.5	65.6982
930	64.1748
930.5	61.7712
931	59.1243
931.5	57.0025
932	55.9352
932.5	55.992
933	57.0454
933.5	58.557
934	60.0317
934.5	61.0981
935	61.6445
935.5	61.7973
936	61.7482
936.5	61.7444
937	61.9107
937.5	62.2496
938	62.6151
938.5	62.8402
939	62.8027
939.5	62.5336
940	62.2014
940.5	62.0133
941	62.1394
941.5	62.5823
942	63.2636
942.5	63.9796
943	64.5232
943.5	64.7212
944	64.5044
944.5	63.9949
945	63.3761
945.5	62.9327
946	62.8646
946.5	63.2652
947	64.0193
947.5	64.8131
948	65.3409
948.5	65.3578
949	64.9245
949.5	64.2075
950	63.499
950.5	63.0161
951	62.8223
951.5	62.8071
952	62.7362
952.5	62.4449
953	61.8943
953.5	61.2831
954	60.8549
954.5	60.8612
955	61.2489
955.5	61.8304
956	62.2573
956.5	62.3013
957	61.9243
957.5	61.3027
958	60.7886
958.5	60.6119
959	60.9028
959.5	61.4814
960	62.198
960.5	62.9405
961	63.6699
961.5	64.3658
962	64.8995
962.5	65.1103
963	64.8469
963.5	64.0148
964	62.9169
964.5	61.847
965	61.1813
965.5	61.025
966	61.3863
966.5	62.2799
967	63.5302
967.5	65.013
968	66.4778
968.5	67.5537
969	67.9154
969.5	67.2486
970	65.8975
970.5	64.3687
971	63.3774
971.5	63.2718
972	63.9851
972.5	65.1219
973	66.0238
973.5	66.3196
974	65.8522
974.5	64.9587
975	63.9911
975.5	63.258
976	62.8674
976.5	62.8144
977	63.1344
977.5	63.8009
978	64.7794
978.5	65.9958
979	67.241
979.5	68.3258
980	69.0883
980.5	69.5498
981	69.8459
981.5	70.1656
982	70.6955
982.5	71.5159
983	72.6384
983.5	73.8934
984	75.0396
984.5	75.7808
985	75.9495
985.5	75.6162
986	74.9957
986.5	74.4958
987	74.4185
987.5	74.9162
988	75.8028
988.5	76.7079
989	77.2818
989.5	77.3738
990	77.1448
990.5	76.861
991	76.7932
991.5	76.9717
992	77.2352
992.5	77.3174
993	77.1133
993.5	76.7082
994	76.3996
994.5	76.441
995	76.9297
995.5	77.6908
996	78.3842
996.5	78.7663
997	78.8112
997.5	78.773
998	78.9107
998.5	79.3492
999	79.9007
999.5	80.2817
1000	80.2567
1000.5	79.9603
1001	79.7182
1001.5	79.9811
1002	80.8542
1002.5	82.2093
1003	83.6812
1003.5	84.9301
1004	85.8551
1004.5	86.5261
1005	87.0556
1005.5	87.3392
1006	87.0498
1006.5	86.1017
1007	84.6224
1007.5	83.1382
1008	82.2949
1008.5	82.4799
1009	83.7964
1009.5	85.5939
1010	87.3326
1010.5	88.5099
1011	89.1293
1011.5	89.3128
1012	89.1455
1012.5	88.7021
1013	87.9376
1013.5	86.8485
1014	85.724
1014.5	84.854
1015	84.5379
1015.5	84.6217
1016	84.8178
1016.5	84.7616
1017	84.3623
1017.5	83.7206
1018	83.0154
1018.5	82.3428
1019	81.6382
1019.5	80.7866
1020	79.8825
1020.5	79.2042
1021	79.2361
1021.5	80.0724
1022	81.4649
1022.5	82.7824
1023	83.3235
1023.5	82.7736
1024	81.1416
1024.5	79.127
1025	77.3685
1025.5	76.4075
1026	76.2666
1026.5	76.7497
1027	77.7111
1027.5	79.0332
1028	80.6995
1028.5	82.6535
1029	84.5473
1029.5	85.9214
1030	86.1866
1030.5	85.2064
1031	83.2967
1031.5	81.0642
1032	79.384
1032.5	78.8274
1033	79.7561
1033.5	81.8199
1034	84.3279
1034.5	86.5707
1035	88.0825
1035.5	88.9549
1036	89.6698
1036.5	91.0265
1037	93.5372
1037.5	97.4164
1038	102.304
1038.5	107.62
1039	113.046
1039.5	118.576
1040	124.416
1040.5	130.747
1041	137.406
1041.5	143.955
1042	150.05
1042.5	155.832
1043	162.009
1043.5	169.548
1044	179.103
1044.5	190.164
1045	201.7
1045.5	212.153
1046	220.637
1046.5	226.77
1047	230.894
1047.5	233.774
1048	235.455
1048.5	235.473
1049	233.619
1049.5	229.738
1050	224.19
1050.5	217.984
1051	211.72
1051.5	205.545
1052	199.044
1052.5	191.61
1053	182.689
1053.5	172.615
1054	161.934
1054.5	151.53
1055	142.084
1055.5	134.023
1056	127.765
1056.5	122.991
1057	119.584
1057.5	117.42
1058	115.87
1058.5	114.443
1059	112.55
1059.5	110.002
1060	106.899
1060.5	103.688
1061	100.96
1061.5	99.0619
1062	98.163
1062.5	97.7199
1063	97.2413
1063.5	96.1734
1064	94.4702
1064.5	92.3275
1065	90.2103
1065.5	88.5945
1066	87.7198
1066.5	87.7266
1067	88.237
1067.5	88.8863
1068	89.233
1068.5	89.0718
1069	88.4168
1069.5	87.4417
1070	86.4933
1070.5	85.7652
1071	85.3363
1071.5	85.0782
1072	84.9017
1072.5	84.8307
1073	84.9259
1073.5	85.1645
1074	85.2869
1074.5	84.9138
1075	83.8431
1075.5	82.1511
1076	80.4806
1076.5	79.4791
1077	79.6845
1077.5	80.8334
1078	82.2753
1078.5	83.273
1079	83.5416
1079.5	83.3837
1080	83.4329
1080.5	84.1903
1081	85.5877
1081.5	87.0911
1082	87.9254
1082.5	87.7873
1083	86.847
1083.5	85.8388
1084	85.4052
1084.5	85.9173
1085	87.1609
1085.5	88.632
1086	89.9081
1086.5	90.8311
1087	91.5598
1087.5	92.328
1088	93.278
1088.5	94.3198
1089	95.2182
1089.5	95.7153
1090	95.7496
1090.5	95.3996
1091	94.9483
1091.5	94.7027
1092	94.9248
1092.5	95.7274
1093	96.9309
1093.5	98.2436
1094	99.2212
1094.5	99.5802
1095	99.1763
1095.5	98.1253
1096	96.7825
1096.5	95.367
1097	93.9499
1097.5	92.4569
1098	90.8346
1098.5	89.263
1099	88.0987
1099.5	87.7163
1100	88.3027
1100.5	89.4249
1101	90.5045
1101.5	90.7912
1102	90.0303
1102.5	88.2645
1103	85.8998
1103.5	83.631
1104	81.9555
1104.5	81.2942
1105	81.5058
1105.5	82.3863
1106	83.5224
1106.5	84.4246
1107	84.7926
1107.5	84.4174
1108	83.5486
1108.5	82.4424
1109	81.4131
1109.5	80.6384
1110	80.1665
1110.5	80.039
1111	80.2005
1111.5	80.6791
1112	81.5289
1112.5	82.5526
1113	83.4933
1113.5	83.9452
1114	83.816
1114.5	83.2008
1115	82.4135
1115.5	81.8733
1116	81.7619
1116.5	82.0379
1117	82.3106
1117.5	82.2811
1118	81.7888
1118.5	81.1168
1119	80.6155
1119.5	80.6337
1120	81.0898
1120.5	81.7053
1121	82.174
1121.5	82.4827
1122	82.8526
1122.5	83.6037
1123	84.725
1123.5	85.9182
1124	86.6889
1124.5	86.8355
1125	86.5626
1125.5	86.3707
1126	86.6915
1126.5	87.5132
1127	88.4507
1127.5	89.0218
1128	89.2224
1128.5	89.5297
1129	90.5729
1129.5	92.5251
1130	95.0436
1130.5	97.2447
1131	98.5393
1131.5	98.84
1132	98.9058
1132.5	99.5883
1133	101.434
1133.5	104.082
1134	106.61
1134.5	108.057
1135	108.107
1135.5	107.192
1136	105.923
1136.5	104.892
1137	104.223
1137.5	103.707
1138	102.948
1138.5	101.742
1139	100.075
1139.5	98.195
1140	96.4212
1140.5	95.0093
1141	94.0678
1141.5	93.4464
1142	92.9636
1142.5	92.3963
1143	91.6452
1143.5	90.7404
1144	89.8468
1144.5	89.1225
1145	88.6268
1145.5	88.2531
1146	87.7825
1146.5	87.0319
1147	85.9319
1147.5	84.6518
1148	83.4094
1148.5	82.4311
1149	81.7704
1149.5	81.4061
1150	81.2309
1150.5	81.0814
1151	80.8705
1151.5	80.5928
1152	80.3608
1152.5	80.3266
1153	80.6462
1153.5	81.2326
1154	81.8649
1154.5	82.1444
1155	81.8653
1155.5	81.005
1156	79.8005
1156.5	78.7599
1157	78.2775
1157.5	78.6966
1158	79.7764
1158.5	81.1821
1159	82.3413
1159.5	82.7933
1160	82.2454
1160.5	80.6107
1161	78.514
1161.5	76.5377
1162	75.4746
1162.5	75.5043
1163	76.4835
1163.5	77.8863
1164	78.8959
1164.5	79.0464
1165	78.1143
1165.5	76.6858
1166	75.374
1166.5	74.8614
1167	75.1769
1167.5	76.062
1168	77.0559
1168.5	77.7247
1169	77.9482
1169.5	77.8384
1170	77.7549
1170.5	77.9182
1171	78.3684
1171.5	78.8297
1172	79.0052
1172.5	78.6598
1173	77.9676
1173.5	77.2034
1174	76.6249
1174.5	76.2551
1175	75.9499
1175.5	75.5545
1176	75.1135
1176.5	74.8515
1177	75.0853
1177.5	75.8238
1178	76.7595
1178.5	77.3655
1179	77.3145
1179.5	76.7029
1180	75.9039
1180.5	75.4175
1181	75.4338
1181.5	75.8428
1182	76.2109
1182.5	76.1895
1183	75.6124
1183.5	74.6778
1184	73.7393
1184.5	73.1027
1185	72.8592
1185.5	72.8727
1186	72.9284
1186.5	72.767
1187	72.2516
1187.5	71.3175
1188	70.0699
1188.5	68.723
1189	67.4877
1189.5	66.5542
1190	65.9822
1190.5	65.802
1191	65.9927
1191.5	66.4563
1192	67.1127
1192.5	67.8167
1193	68.4135
1193.5	68.775
1194	68.8313
1194.5	68.6453
1195	68.2869
1195.5	67.8701
1196	67.512
1196.5	67.2913
1197	67.2418
1197.5	67.2849
1198	67.3099
1198.5	67.1925
1199	66.9353
1199.5	66.6274
1200	66.4163
1200.5	66.3286
1201	66.2406
1201.5	65.9132
1202	65.3106
1202.5	64.6104
1203	64.2513
1203.5	64.5108
1204	65.4101
1204.5	66.6103
1205	67.5368
1205.5	67.8603
1206	67.5417
1206.5	67.0845
1207	66.8968
1207.5	67.2082
1208	67.7538
1208.5	68.2184
1209	68.28
1209.5	68.0017
1210	67.5831
1210.5	67.3358
1211	67.382
1211.5	67.6476
1212	67.7997
1212.5	67.4894
1213	66.5353
1213.5	64.9452
1214	63.2701
1214.5	62.0639
1215	61.9645
1215.5	62.8235
1216	64.1554
1216.5	65.1063
1217	65.1049
1217.5	64.2131
1218	63.0361
1218.5	62.3684
1219	62.5171
1219.5	63.3196
1220	64.0556
1220.5	64.2434
1221	63.7406
1221.5	63.0412
1222	62.638
1222.5	62.8133
1223	63.233
1223.5	63.484
1224	63.2806
1224.5	62.8059
1225	62.4279
1225.5	62.5023
1226	62.9907
1226.5	63.5816
1227	63.8561
1227.5	63.6053
1228	62.9531
1228.5	62.1219
1229	61.3255
1229.5	60.6078
1230	59.9246
1230.5	59.252
1231	58.6663
1231.5	58.3367
1232	58.3478
1232.5	58.5989
1233	58.8458
1233.5	58.8373
1234	58.5494
1234.5	58.1779
1235	58.1044
1235.5	58.5606
1236	59.5504
1236.5	60.6408
1237	61.2594
1237.5	60.8719
1238	59.5025
1238.5	57.7489
1239	56.3091
1239.5	55.755
1240	56.035
1240.5	56.7568
1241	57.2367
1241.5	57.0705
1242	56.2285
1242.5	55.1637
1243	54.4695
1243.5	54.4933
1244	55.2383
1244.5	56.3263
1245	57.4414
1245.5	58.3605
1246	59.0739
1246.5	59.591
1247	59.8234
1247.5	59.6338
1248	58.8823
1248.5	57.6047
1249	56.1937
1249.5	55.082
1250	54.7062
1250.5	55.0126
1251	55.7502
1251.5	56.4588
1252	56.811
1252.5	56.8026
1253	56.7443
1253.5	56.9763
1254	57.6073
1254.5	58.4603
1255	59.1166
1255.5	59.283
1256	58.8157
1256.5	58.0209
1257	57.1687
1257.5	56.453
1258	55.8307
1258.5	55.2314
1259	54.6808
1259.5	54.3008
1260	54.1833
1260.5	54.2724
1261	54.2499
1261.5	53.8706
1262	53.1278
1262.5	52.536
1263	52.5784
1263.5	53.6544
1264	55.3122
1264.5	56.9304
1265	57.7388
1265.5	57.6383
1266	56.9268
1266.5	56.1481
1267	55.6599
1267.5	55.4109
1268	55.1955
1268.5	54.9394
1269	54.8163
1269.5	55.1505
1270	55.9137
1270.5	56.7653
1271	57.0699
1271.5	56.6089
1272	55.6587
1272.5	54.8358
1273	54.6502
1273.5	55.098
1274	55.7322
1274.5	55.8928
1275	55.31
1275.5	54.1304
1276	53.0383
1276.5	52.5006
1277	52.7087
1277.5	53.3655
1278	54.1242
1278.5	54.8208
1279	55.5467
1279.5	56.4731
1280	57.6695
1280.5	58.8641
1281	59.694
1281.5	59.84
1282	59.3773
1282.5	58.7138
1283	58.3879
1283.5	58.8154
1284	59.9815
1284.5	61.5939
1285	63.0046
1285.5	63.7465
1286	63.5281
1286.5	62.454
1287	60.9289
1287.5	59.3243
1288	57.9641
1288.5	56.9474
1289	56.2984
1289.5	55.9505
1290	55.8484
1290.5	56.021
1291	56.4518
1291.5	56.9913
1292	57.4148
1292.5	57.4311
1293	56.9247
1293.5	55.9018
1294	54.6174
1294.5	53.4216
1295	52.6036
1295.5	52.4043
1296	52.8102
1296.5	53.7944
1297	55.2021
1297.5	56.6787
1298	57.8754
1298.5	58.4636
1299	58.4655
1299.5	57.9977
1300	57.2572
1300.5	56.3992
1301	55.3614
1301.5	53.962
1302	52.2574
1302.5	50.5445
1303	49.402
1303.5	49.1299
1304	49.771
1304.5	51.0573
1305	52.3925
1305.5	53.4612
1306	54.1693
1306.5	54.7656
1307	55.3902
1307.5	55.9685
1308	56.275
1308.5	56.1211
1309	55.4015
1309.5	54.4262
1310	53.4886
1310.5	52.9552
1311	52.8329
1311.5	53.0144
1312	53.2626
1312.5	53.296
1313	52.9629
1313.5	52.2122
1314	51.3194
1314.5	50.5858
1315	50.3084
1315.5	50.4113
1316	50.6956
1316.5	50.9262
1317	51.0608
1317.5	51.2719
1318	51.8944
1318.5	53.0141
1319	54.4206
1319.5	55.6276
1320	56.2382
1320.5	56.1357
1321	55.3712
1321.5	54.3061
1322	53.1957
1322.5	52.2145
1323	51.4626
1323.5	51.0165
1324	51.0107
1324.5	51.3746
1325	51.8929
1325.5	52.2478
1326	52.2405
1326.5	51.9636
1327	51.8032
1327.5	52.1743
1328	53.157
1328.5	54.5231
1329	55.6875
1329.5	56.1834
1330	55.7159
1330.5	54.5218
1331	53.1361
1331.5	52.1353
1332	51.8884
1332.5	52.4107
1333	53.5784
1333.5	54.9719
1334	56.129
1334.5	56.606
1335	56.2021
1335.5	55.2279
1336	54.1272
1336.5	53.4661
1337	53.5057
1337.5	54.2528
1338	55.3455
1338.5	56.3343
1339	56.9612
1339.5	57.273
1340	57.4823
1340.5	57.6843
1341	57.7819
1341.5	57.586
1342	56.9481
1342.5	55.9616
1343	55.0069
1343.5	54.4357
1344	54.4245
1344.5	54.7782
1345	55.2452
1345.5	55.5812
1346	55.7497
1346.5	55.8267
1347	55.8891
1347.5	55.8865
1348	55.6881
1348.5	55.1981
1349	54.5605
1349.5	54.002
1350	53.7717
1350.5	53.8054
1351	53.826
1351.5	53.4472
1352	52.631
1352.5	51.6169
1353	50.9648
1353.5	51.0336
1354	51.8518
1354.5	52.958
1355	53.6429
1355.5	53.5877
1356	52.8697
1356.5	52.1575
1357	51.9472
1357.5	52.5045
1358	53.3181
1358.5	53.8211
1359	53.538
1359.5	52.768
1360	51.9852
1360.5	51.8183
1361	52.3443
1361.5	53.3211
1362	54.179
1362.5	54.4776
1363	54.0899
1363.5	53.0653
1364	51.8614
1364.5	50.9002
1365	50.7566
1365.5	51.6137
1366	53.302
1366.5	55.2771
1367	56.7708
1367.5	57.3506
1368	56.8903
1368.5	55.9953
1369	55.2227
1369.5	54.8846
1370	54.6879
1370.5	54.2659
1371	53.4218
1371.5	52.4623
1372	51.8286
1372.5	51.9152
1373	52.576
1373.5	53.395
1374	54.0532
1374.5	54.5597
1375	55.1254
1375.5	55.9478
1376	56.9347
1376.5	57.7791
1377	58.1084
1377.5	57.8235
1378	57.0466
1378.5	55.9488
1379	54.8204
1379.5	53.9382
1380	53.6658
1380.5	54.199
1381	55.3505
1381.5	56.7414
1382	57.7738
1382.5	58.0761
1383	57.5033
1383.5	56.384
1384	55.2975
1384.5	54.8477
1385	55.4881
1385.5	57.272
1386	60.0588
1386.5	63.1269
1387	65.5045
1387.5	66.1957
1388	65.0741
1388.5	63.0102
1389	61.0404
1389.5	60.0194
1390	59.8135
1390.5	59.6981
1391	58.6813
1391.5	56.7026
1392	54.3483
1392.5	52.5814
1393	51.8148
1393.5	51.9058
1394	52.2274
1394.5	52.2542
1395	52.0021
1395.5	51.8747
1396	52.173
1396.5	52.942
1397	54.0079
1397.5	55.1331
1398	56.2343
1398.5	57.2123
1399	57.8663
1399.5	57.8957
1400	57.0539
1400.5	55.6872
1401	54.311
1401.5	53.6659
1402	53.8482
1402.5	54.5898
1403	55.2891
1403.5	55.4164
1404	54.7604
1404.5	53.4095
1405	52.0192
1405.5	51.2127
1406	51.6775
1406.5	53.2759
1407	55.6042
1407.5	57.8344
1408	59.243
1408.5	59.64
1409	59.4115
1409.5	59.2913
1410	59.5069
1410.5	59.7621
1411	59.4808
1411.5	58.4018
1412	56.8037
1412.5	55.5073
1413	54.8891
1413.5	54.8664
1414	54.8041
1414.5	54.3658
1415	53.7205
1415.5	53.5173
1416	54.0405
1416.5	55.0351
1417	55.6911
1417.5	55.5135
1418	54.5079
1418.5	53.5265
1419	53.2547
1419.5	53.9037
1420	54.8671
1420.5	55.5367
1421	55.5361
1421.5	55.127
1422	54.7572
1422.5	54.7711
1423	55.1379
1423.5	55.6941
1424	56.3065
1424.5	56.868
1425	57.2537
1425.5	57.2206
1426	56.6817
1426.5	55.7606
1427	54.7294
1427.5	53.9048
1428	53.3713
1428.5	53.0269
1429	52.6619
1429.5	52.2452
1430	51.9079
1430.5	51.8004
1431	51.9373
1431.5	52.2693
1432	52.7217
1432.5	53.2642
1433	53.8541
1433.5	54.2967
1434	54.3536
1434.5	53.8441
1435	52.9498
1435.5	52.1535
1436	51.8434
1436.5	52.0242
1437	52.3063
1437.5	52.2922
1438	51.8764
1438.5	51.4336
1439	51.4528
1439.5	52.1728
1440	53.3257
1440.5	54.5139
1441	55.3517
1441.5	55.7805
1442	55.9173
1442.5	55.8973
1443	55.7486
1443.5	55.3846
1444	54.7087
1444.5	53.7593
1445	52.6238
1445.5	51.5183
1446	50.7052
1446.5	50.4637
1447	51.0105
1447.5	52.0943
1448	53.2913
1448.5	54.0193
1449	54.1555
1449.5	53.9021
1450	53.7252
1450.5	53.9067
1451	54.3484
1451.5	54.5596
1452	54.2386
1452.5	53.4287
1453	52.514
1453.5	51.9329
1454	51.8333
1454.5	52.0802
1455	52.3004
1455.5	52.3694
1456	52.3335
1456.5	52.3499
1457	52.4829
1457.5	52.7266
1458	53.016
1458.5	53.3647
1459	53.8034
1459.5	54.2314
1460	54.4574
1460.5	54.1347
1461	53.3106
1461.5	52.2444
1462	51.4402
1462.5	51.2618
1463	51.7594
1463.5	52.5971
1464	53.0076
1464.5	52.5216
1465	50.9803
1465.5	49.1177
1466	47.7817
1466.5	47.9562
1467	49.6007
1467.5	51.9325
1468	53.8834
1468.5	54.7077
1469	54.3213
1469.5	53.0447
1470	51.6454
1470.5	50.5482
1471	49.9291
1471.5	49.7573
1472	50.0703
1472.5	51.0438
1473	52.5466
1473.5	54.1169
1474	55.0872
1474.5	55.0466
1475	54.0736
1475.5	52.5925
1476	51.3803
1476.5	50.8714
1477	51.1635
1477.5	51.8831
1478	52.5909
1478.5	52.9449
1479	52.859
1479.5	52.5172
1480	52.1189
1480.5	51.8057
1481	51.5829
1481.5	51.4079
1482	51.2906
1482.5	51.3398
1483	51.7048
1483.5	52.354
1484	53.012
1484.5	53.288
1485	52.9332
1485.5	52.2345
1486	51.7065
1486.5	51.8298
1487	52.5735
1487.5	53.5645
1488	54.189
1488.5	54.2709
1489	54.0184
1489.5	53.8383
1490	53.8731
1490.5	53.9004
1491	53.4707
1491.5	52.5942
1492	51.6912
1492.5	51.4507
1493	52.07
1493.5	53.2155
1494	53.8787
1494.5	53.4228
1495	51.8526
1495.5	49.9163
1496	48.5882
1496.5	48.3591
1497	49.0187
1497.5	49.6329
1498	49.7265
1498.5	49.3853
1499	49.2871
1499.5	50.0065
1500	51.6417
1500.5	53.3495
1501	54.3983
1501.5	54.251
1502	53.3241
1502.5	52.1909
1503	51.4779
1503.5	51.2256
1504	51.2492
1504.5	51.3146
1505	51.3257
1505.5	51.3174
1506	51.318
1506.5	51.3064
1507	51.3104
1507.5	51.5153
1508	52.0589
1508.5	52.9133
1509	53.6808
1509.5	53.9206
1510	53.4652
1510.5	52.4642
1511	51.5138
1511.5	50.9678
1512	50.8425
1512.5	50.795
1513	50.6803
1513.5	50.6887
1514	51.1835
1514.5	52.2617
1515	53.5381
1515.5	54.3186
1516	54.1907
1516.5	53.0774
1517	51.671
1517.5	50.6182
1518	50.3348
1518.5	50.6438
1519	51.2241
1519.5	51.7735
1520	52.1366
1520.5	52.334
1521	52.3915
1521.5	52.3544
1522	52.2451
1522.5	52.0669
1523	51.8441
1523.5	51.6113
1524	51.4214
1524.5	51.3023
1525	51.2059
1525.5	50.9652
1526	50.5627
1526.5	50.2097
1527	50.1128
1527.5	50.4041
1528	50.9907
1528.5	51.6563
1529	52.0931
1529.5	52.3082
1530	52.3879
1530.5	52.4412
1531	52.3734
1531.5	52.0177
1532	51.2412
1532.5	50.2189
1533	49.3753
1533.5	49.1675
1534	49.8074
1534.5	51.1893
1535	53.1883
1535.5	55.0692
1536	56.3153
1536.5	56.5667
1537	56.0699
1537.5	55.203
1538	54.5937
1538.5	54.5058
1539	54.8829
1539.5	55.3443
1540	55.5654
1540.5	55.2916
1541	54.7117
1541.5	54.0995
1542	53.7023
1542.5	53.5581
1543	53.5993
1543.5	53.6572
1544	53.6633
1544.5	53.6495
1545	53.6952
1545.5	53.8394
1546	54.0684
1546.5	54.2959
1547	54.4828
1547.5	54.638
1548	54.7989
1548.5	54.9878
1549	55.1674
1549.5	55.2766
1550	55.2439
1550.5	55.064
1551	54.7505
1551.5	54.3373
1552	53.9008
1552.5	53.5021
1553	53.2084
1553.5	53.0513
1554	53.0565
1554.5	53.1701
1555	53.3352
1555.5	53.5215
1556	53.7169
1556.5	53.9178
1557	54.0903
1557.5	54.1936
1558	54.2042
1558.5	54.1686
1559	54.1732
1559.5	54.3393
1560	54.6764
1560.5	55.1017
1561	55.4707
1561.5	55.6671
1562	55.6163
1562.5	55.3316
1563	54.959
1563.5	54.6677
1564	54.6442
1564.5	54.9917
1565	55.7619
1565.5	56.6371
1566	57.2396
1566.5	57.1548
1567	56.3279
1567.5	54.8794
1568	53.3449
1568.5	52.2147
1569	51.8137
1569.5	52.0453
1570	52.6901
1570.5	53.4656
1571	54.1359
1571.5	54.5963
1572	54.7471
1572.5	54.5289
1573	53.8453
1573.5	52.7689
1574	51.5768
1574.5	50.6443
1575	50.2198
1575.5	50.403
1576	51.1432
1576.5	52.1515
1577	53.1963
1577.5	54.1016
1578	54.7557
1578.5	54.9679
1579	54.5683
1579.5	53.5344
1580	52.124
1580.5	50.9383
1581	50.5589
1581.5	51.4178
1582	53.1668
1582.5	54.8842
1583	55.5123
1583.5	54.6806
1584	52.5077
1584.5	50.118
1585	48.6153
1585.5	48.6642
1586	49.8131
1586.5	51.4534
1587	52.8376
1587.5	53.6531
1588	53.8999
1588.5	53.83
1589	53.5308
1589.5	53.0069
1590	52.4052
1590.5	51.9906
1591	52.0724
1591.5	52.537
1592	53.0498
1592.5	53.126
1593	52.5961
1593.5	51.6352
1594	50.8973
1594.5	50.7324
1595	51.2029
1595.5	51.8861
1596	52.3772
1596.5	52.4132
1597	52.2002
1597.5	52.003
1598	52.0055
1598.5	52.1787
1599	52.3449
1599.5	52.2989
1600	52.0045
1600.5	51.5777
1601	51.2399
1601.5	51.1982
1602	51.542
1602.5	52.0939
1603	52.5039
1603.5	52.4949
1604	52.0401
1604.5	51.3878
1605	51.0672
1605.5	51.4888
1606	52.6599
1606.5	54.1746
1607	55.5688
1607.5	56.4347
1608	56.6448
1608.5	56.2207
1609	55.4209
1609.5	54.397
1610	53.3405
1610.5	52.4665
1611	52.01
1611.5	52.0773
1612	52.5266
1612.5	53.1779
1613	53.7748
1613.5	54.1608
1614	54.1853
1614.5	53.9284
1615	53.5227
1615.5	53.1988
1616	53.1151
1616.5	53.2807
1617	53.3264
1617.5	52.7538
1618	51.1535
1618.5	48.8277
1619	46.41
1619.5	44.9229
1620	44.9552
1620.5	46.501
1621	48.7895
1621.5	51.0094
1622	52.6091
1622.5	53.553
1623	54.1337
1623.5	54.6991
1624	55.2873
1624.5	55.6651
1625	55.419
1625.5	54.4123
1626	52.7119
1626.5	50.9643
1627	49.8399
1627.5	49.9057
1628	51.0407
1628.5	52.7665
1629	54.2831
1629.5	55.0408
1630	55.0609
1630.5	54.7838
1631	54.6438
1631.5	54.7893
1632	54.9346
1632.5	54.6863
1633	53.8728
1633.5	52.8658
1634	52.0951
1634.5	51.9565
1635	52.3408
1635.5	52.8896
1636	53.0836
1636.5	52.7823
1637	52.0573
1637.5	51.2549
1638	50.647
1638.5	50.4524
1639	50.5323
1639.5	50.7035
1640	50.773
1640.5	50.7074
1641	50.6272
1641.5	50.8387
1642	51.5652
1642.5	52.8211
1643	54.1985
1643.5	55.2356
1644	55.4156
1644.5	54.7631
1645	53.5894
1645.5	52.6079
1646	52.1945
1646.5	52.4346
1647	52.9109
1647.5	53.1438
1648	52.6299
1648.5	51.5412
1649	50.2638
1649.5	49.3531
1650	49.0922
1650.5	49.5461
1651	50.3712
1651.5	51.0837
1652	51.3043
1652.5	51.0531
1653	50.5653
1653.5	50.2479
1654	50.3837
1654.5	51.0682
1655	52.0397
1655.5	52.9598
1656	53.5645
1656.5	53.767
1657	53.6289
1657.5	53.2072
1658	52.6041
1658.5	51.8612
1659	51.0604
1659.5	50.3621
1660	49.9687
1660.5	50.0608
1661	50.6377
1661.5	51.5588
1662	52.5229
1662.5	53.29
1663	53.5939
1663.5	53.397
1664	52.7036
1664.5	51.7253
1665	50.8059
1665.5	50.2976
1666	50.4721
1666.5	51.3573
1667	52.8462
1667.5	54.4052
1668	55.5139
1668.5	55.6774
1669	54.9323
1669.5	53.4865
1670	51.8852
1670.5	50.6337
1671	50.0723
1671.5	50.032
1672	50.2568
1672.5	50.5685
1673	50.9801
1673.5	51.659
1674	52.773
1674.5	54.0706
1675	55.0592
1675.5	55.1739
1676	54.2494
1676.5	52.4044
1677	50.4184
1677.5	49.0901
1678	49.0555
1678.5	49.9953
1679	51.3313
1679.5	52.1565
1680	51.9927
1680.5	50.7721
1681	49.3073
1681.5	48.4415
1682	48.8414
1682.5	50.2664
1683	52.1978
1683.5	53.831
1684	54.6411
1684.5	54.4266
1685	53.4481
1685.5	52.0708
1686	50.6303
1686.5	49.4598
1687	48.7407
1687.5	48.5733
1688	48.6552
1688.5	48.7291
1689	48.6903
1689.5	48.7087
1690	49.0638
1690.5	49.8236
1691	50.6412
1691.5	50.8338
1692	50.1567
1692.5	48.8538
1693	47.6592
1693.5	47.2111
1694	47.7276
1694.5	48.7292
1695	49.5132
1695.5	49.7487
1696	49.6833
1696.5	49.677
1697	49.9316
1697.5	50.1477
1698	49.8489
1698.5	48.8051
1699	47.4741
1699.5	46.5411
1700	46.6264
1700.5	47.7329
1701	49.4272
1701.5	50.7249
1702	51.0488
1702.5	50.2814
1703	49.1134
1703.5	48.2945
1704	48.531
1704.5	49.8446
1705	51.8772
1705.5	53.7511
1706	54.9703
1706.5	55.2576
1707	54.8846
1707.5	54.0717
1708	52.9736
1708.5	51.6735
1709	50.2907
1709.5	49.1692
1710	48.6464
1710.5	49.0481
1711	50.2022
1711.5	51.7026
1712	52.8831
1712.5	53.2852
1713	52.7877
1713.5	51.605
1714	50.2213
1714.5	49.1102
1715	48.6064
1715.5	48.6928
1716	49.049
1716.5	49.1178
1717	48.6333
1717.5	47.6676
1718	46.7417
1718.5	46.4032
1719	46.97
1719.5	48.1536
1720	49.3088
1720.5	49.8343
1721	49.5767
1721.5	48.6816
1722	47.7246
1722.5	47.1517
1723	47.3173
1723.5	48.094
1724	49.2175
1724.5	50.2385
1725	50.8093
1725.5	50.6275
1726	49.8331
1726.5	48.7681
1727	48.0588
1727.5	48.0417
1728	48.764
1728.5	49.8576
1729	50.7987
1729.5	51.1083
1730	50.6428
1730.5	49.5789
1731	48.3387
1731.5	47.41
1732	47.1091
1732.5	47.6225
1733	48.7218
1733.5	50.0657
1734	51.0908
1734.5	51.4146
1735	50.8886
1735.5	49.8312
1736	48.61
1736.5	47.6374
1737	47.1167
1737.5	47.1532
1738	47.7713
1738.5	48.7925
1739	49.9733
1739.5	50.8905
1740	51.2137
1740.5	50.6672
1741	49.5274
1741.5	48.2152
1742	47.3361
1742.5	47.0534
1743	47.2817
1743.5	47.6989
1744	48.0562
1744.5	48.237
1745	48.2656
1745.5	48.1603
1746	47.8738
1746.5	47.4619
1747	47.0547
1747.5	46.8828
1748	47.0374
1748.5	47.4708
1749	47.9171
1749.5	48.1485
1750	48.0708
1750.5	47.8399
1751	47.5587
1751.5	47.2299
1752	46.8107
1752.5	46.3364
1753	46.0428
1753.5	46.1813
1754	46.791
1754.5	47.4151
1755	47.5657
1755.5	46.8394
1756	45.578
1756.5	44.3478
1757	43.8536
1757.5	44.2192
1758	45.1346
1758.5	46.1084
1759	47.0095
1759.5	48.0122
1760	49.2963
1760.5	50.7455
1761	51.8388
1761.5	52.0867
1762	51.4177
1762.5	50.2962
1763	49.2716
1763.5	48.6279
1764	48.2246
1764.5	47.797
1765	47.1941
1765.5	46.5939
1766	46.2201
1766.5	46.1423
1767	46.1823
1767.5	46.1935
1768	46.1674
1768.5	46.2174
1769	46.4346
1769.5	46.6868
1770	46.743
1770.5	46.3963
1771	45.7444
1771.5	44.9489
1772	44.2441
1772.5	43.7995
1773	43.8048
1773.5	44.3876
1774	45.4755
1774.5	46.7062
1775	47.5039
1775.5	47.503
1776	46.6762
1776.5	45.6449
1777	45.0718
1777.5	45.3866
1778	46.2759
1778.5	46.9995
1779	46.9248
1779.5	46.0061
1780	44.6472
1780.5	43.6114
1781	43.3738
1781.5	44.0056
1782	44.9518
1782.5	45.5593
1783	45.4602
1783.5	44.8321
1784	44.138
1784.5	43.8901
1785	44.252
1785.5	45.0785
1786	45.9379
1786.5	46.563
1787	46.9302
1787.5	47.1261
1788	47.1028
1788.5	46.745
1789	46.0476
1789.5	45.2153
1790	44.6623
1790.5	44.6434
1791	45.0122
1791.5	45.251
1792	44.9624
1792.5	44.1142
1793	43.0415
1793.5	42.1831
1794	41.854
1794.5	42.1642
1795	43.2548
1795.5	44.9181
1796	46.9033
1796.5	48.7004
1797	49.9114
1797.5	50.3456
1798	50.2954
1798.5	50.1499
1799	50.0984
1799.5	49.8978
1800	49.2546
1800.5	48.1187
1801	46.8726
1801.5	45.8536
1802	45.1389
1802.5	44.5264
1803	43.9196
1803.5	43.6188
1804	44.054
1804.5	45.3073
1805	46.5121
1805.5	46.7513
1806	45.5069
1806.5	43.5415
1807	42.1138
1807.5	42.3237
1808	44.0106
1808.5	46.0505
1809	47.046
1809.5	46.6127
1810	45.1234
1810.5	43.5392
1811	42.463
1811.5	42.1866
1812	42.7089
1812.5	44.224
1813	46.6852
1813.5	49.5282
1814	51.5707
1814.5	51.8196
1815	49.9078
1815.5	46.4263
1816	42.8497
1816.5	40.4155
1817	39.6852
1817.5	40.2883
1818	41.667
1818.5	43.3298
1819	45.1001
1819.5	46.6747
1820	47.5789
1820.5	47.3198
1821	45.814
1821.5	43.8028
1822	42.3513
1822.5	42.2205
1823	43.1379
1823.5	44.3254
1824	45.0192
1824.5	45.1623
1825	45.3451
1825.5	46.1445
1826	47.5817
1826.5	48.7989
1827	48.8805
1827.5	47.5042
1828	45.632
1828.5	44.3477
1829	44.5236
1829.5	45.6132
1830	46.6553
1830.5	46.584
1831	45.4454
1831.5	44.0461
1832	43.6373
1832.5	44.5023
1833	46.1858
1833.5	47.5902
1834	48.1236
1834.5	47.7853
1835	47.293
1835.5	47.1763
1836	47.4627
1836.5	47.6306
1837	47.13
1837.5	45.9804
1838	44.5609
1838.5	43.3074
1839	42.3324
1839.5	41.5499
1840	40.9362
1840.5	40.6997
1841	41.2078
1841.5	42.5047
1842	44.0214
1842.5	44.9893
1843	45.1099
1843.5	44.6947
1844	44.4996
1844.5	44.9857
1845	46.048
1845.5	46.9675
1846	47.1628
1846.5	46.4825
1847	45.5485
1847.5	44.8805
1848	44.6786
1848.5	44.6334
1849	44.4826
1849.5	44.1877
1850	43.9759
1850.5	44.0197
1851	44.217
1851.5	44.3093
1852	44.1977
1852.5	44.1689
1853	44.5051
1853.5	45.2491
1854	45.8971
1854.5	45.9216
1855	45.0968
1855.5	43.9407
1856	43.2219
1856.5	43.4399
1857	44.2282
1857.5	44.6048
1858	43.9005
1858.5	42.2397
1859	40.5824
1859.5	39.9749
1860	40.8782
1860.5	42.6884
1861	44.2506
1861.5	44.614
1862	43.9445
1862.5	43.2187
1863	43.5486
1863.5	44.9084
1864	46.5678
1864.5	47.2739
1865	46.5769
1865.5	44.794
1866	43.1913
1866.5	42.7314
1867	43.8076
1867.5	45.4359
1868	46.4831
1868.5	46.0145
1869	44.3237
1869.5	42.091
1870	40.3597
1870.5	39.6883
1871	40.2854
1871.5	41.6871
1872	43.2828
1872.5	44.3728
1873	44.5683
1873.5	43.8201
1874	42.4013
1874.5	40.9387
1875	40.0493
1875.5	40.2149
1876	41.4039
1876.5	43.3206
1877	45.2088
1877.5	46.4884
1878	46.7004
1878.5	46.1439
1879	45.2783
1879.5	44.6081
1880	44.2743
1880.5	44.1803
1881	44.0808
1881.5	43.8858
1882	43.6727
1882.5	43.5822
1883	43.6251
1883.5	43.6263
1884	43.3716
1884.5	42.7932
1885	42.07
1885.5	41.4552
1886	41.1453
1886.5	41.1023
1887	41.1516
1887.5	41.0449
1888	40.6845
1888.5	40.1434
1889	39.7388
1889.5	39.8169
1890	40.6439
1890.5	42.0179
1891	43.4532
1891.5	44.3097
1892	44.2392
1892.5	43.2509
1893	41.6596
1893.5	40.1021
1894	39.1277
1894.5	39.2105
1895	40.3572
1895.5	42.3502
1896	44.3549
1896.5	45.6367
1897	45.6177
1897.5	44.711
1898	43.5971
1898.5	43.1096
1899	43.3978
1899.5	44.1259
1900	44.5792
1900.5	44.4241
1901	43.7385
1901.5	43.0569
1902	42.6977
1902.5	42.6521
1903	42.6181
1903.5	42.4329
1904	42.1554
1904.5	41.9793
1905	42.0448
1905.5	42.2927
1906	42.5584
1906.5	42.6416
1907	42.4264
1907.5	41.829
1908	40.7644
1908.5	39.3973
1909	38.0055
1909.5	37.088
1910	36.9884
1910.5	37.9408
1911	39.6057
1911.5	41.4553
1912	42.8048
1912.5	43.3573
1913	43.1386
1913.5	42.5735
1914	42.1888
1914.5	42.2549
1915	42.551
1915.5	42.6508
1916	42.1294
1916.5	41.0641
1917	39.8344
1917.5	39.0664
1918	39.0587
1918.5	39.8034
1919	40.8629
1919.5	41.7289
1920	42.0392
1920.5	41.8296
1921	41.3932
1921.5	41.1112
1922	41.1902
1922.5	41.646
1923	42.2954
1923.5	42.8372
1924	43.0052
1924.5	42.6962
1925	42.0686
1925.5	41.4366
1926	41.1605
1926.5	41.3742
1927	41.9789
1927.5	42.5892
1928	42.9787
1928.5	43.1909
1929	43.4627
1929.5	43.9374
1930	44.4211
1930.5	44.5731
1931	44.084
1931.5	43.2125
1932	42.4094
1932.5	42.125
1933	42.2051
1933.5	42.1651
1934	41.4969
1934.5	40.3714
1935	39.443
1935.5	39.3173
1936	39.9628
1936.5	40.7696
1937	40.9979
1937.5	40.4358
1938	39.571
1938.5	39.1564
1939	39.651
1939.5	40.7374
1940	41.6926
1940.5	41.7389
1941	40.8026
1941.5	39.2985
1942	37.9519
1942.5	37.2158
1943	37.2248
1943.5	37.756
1944	38.4555
1944.5	39.084
1945	39.5936
1945.5	40.0813
1946	40.6804
1946.5	41.3804
1947	42.0644
1947.5	42.5564
1948	42.839
1948.5	43.0072
1949	43.1975
1949.5	43.3633
1950	43.2577
1950.5	42.6875
1951	41.693
1951.5	40.5965
1952	39.8218
1952.5	39.6015
1953	39.8908
1953.5	40.4486
1954	41.149
1954.5	41.9472
1955	42.7672
1955.5	43.3205
1956	43.3102
1956.5	42.7418
1957	42.128
1957.5	42.1405
1958	43.1588
1958.5	44.8252
1959	46.3492
1959.5	46.9477
1960	46.4995
1960.5	45.3368
1961	43.9178
1961.5	42.5715
1962	41.3988
1962.5	40.5402
1963	40.1706
1963.5	40.4816
1964	41.2754
1964.5	42.1148
1965	42.5775
1965.5	42.634
1966	42.4635
1966.5	42.2595
1967	42.0247
1967.5	41.6611
1968	41.1978
1968.5	40.8605
1969	40.9304
1969.5	41.3882
1970	41.9419
1970.5	42.1339
1971	41.8199
1971.5	41.1376
1972	40.5111
1972.5	40.2678
1973	40.5479
1973.5	41.2175
1974	42.0399
1974.5	42.7897
1975	43.3281
1975.5	43.6109
1976	43.5875
1976.5	43.2463
1977	42.4934
1977.5	41.2842
1978	39.791
1978.5	38.3391
1979	37.3836
1979.5	37.1856
1980	37.9307
1980.5	39.3338
1981	41.0954
1981.5	42.8049
1982	44.084
1982.5	44.5789
1983	44.1619
1983.5	43.0838
1984	41.7727
1984.5	40.7873
1985	40.4076
1985.5	40.7389
1986	41.476
1986.5	42.3501
1987	43.0361
1987.5	43.33
1988	43.0847
1988.5	42.4251
1989	41.6628
1989.5	41.2213
1990	41.2296
1990.5	41.5088
1991	41.6079
1991.5	41.2428
1992	40.4384
1992.5	39.6519
1993	39.3502
1993.5	39.8328
1994	40.8252
1994.5	41.8489
1995	42.3717
1995.5	42.3769
1996	42.1558
1996.5	42.2316
1997	42.7894
1997.5	43.6391
1998	44.2059
1998.5	44.1332
1999	43.3875
1999.5	42.5192
2000	41.9592
2000.5	41.9213
2001	42.1446
2001.5	42.3378
2002	42.2794
2002.5	41.9669
2003	41.4251
2003.5	40.7105
2004	39.8857
2004.5	39.0845
2005	38.475
2005.5	38.1572
2006	38.1579
2006.5	38.4288
2007	39.0428
2007.5	40.0668
2008	41.3559
2008.5	42.4785
2009	42.8792
2009.5	42.3946
2010	41.3441
2010.5	40.5451
2011	40.5633
2011.5	41.4356
2012	42.5403
2012.5	43.1627
2013	42.9153
2013.5	41.9853
2014	40.878
2014.5	40.2086
2015	40.2918
2015.5	41.1498
2016	42.2821
2016.5	43.0882
2017	42.9733
2017.5	41.9089
2018	40.2797
2018.5	38.9756
2019	38.5653
2019.5	39.2393
2020	40.2509
2020.5	40.9266
2021	40.8334
2021.5	40.1889
2022	39.3469
2022.5	38.6223
2023	38.0727
2023.5	37.7432
2024	37.7525
2024.5	38.2481
2025	39.2099
2025.5	40.1794
2026	40.6511
2026.5	40.3403
2027	39.526
2027.5	38.6768
2028	38.1879
2028.5	38.089
2029	38.3074
2029.5	38.7929
2030	39.6481
2030.5	40.8292
2031	41.8618
2031.5	42.0912
2032	41.2288
2032.5	39.7313
2033	38.4515
2033.5	38.042
2034	38.4498
2034.5	39.0436
2035	39.1123
2035.5	38.3828
2036	37.0462
2036.5	35.4418
2037	33.6024
2037.5	31.3253
2038	28.5215
2038.5	25.4272
2039	22.7659
2039.5	21.1944
2040	21.1842
2040.5	22.3591
2041	24.2986
2041.5	26.5836
2042	29.1686
2042.5	32.2639
2043	35.7459
2043.5	39.0762
2044	41.2177
2044.5	41.8563
2045	41.2705
2045.5	40.4409
2046	40.0929
2046.5	40.2281
2047	40.1155
2047.5	39.3138
2048	38.0821
2048.5	37.4716
2049	38.1648
2049.5	40.0326
2050	41.8428
2050.5	42.5488
2051	41.9246
2051.5	40.7856
2052	40.07
2052.5	40.1208
2053	40.6
2053.5	41.0008
2054	41.2056
2054.5	41.3884
2055	41.6049
2055.5	41.5121
2056	40.6449
2056.5	39.0811
2057	37.5648
2057.5	37.1542
2058	38.1375
2058.5	39.9813
2059	41.5465
2059.5	42.144
2060	41.7591
2060.5	40.9905
2061	40.3803
2061.5	40.1183
2062	40.0702
2062.5	40.1391
2063	40.3854
2063.5	40.8174
2064	41.3106
2064.5	41.6108
2065	41.6601
2065.5	41.5938
2066	41.6109
2066.5	41.6286
2067	41.27
2067.5	40.3104
2068	39.0114
2068.5	38.2118
2069	38.5431
2069.5	40.0471
2070	41.8674
2070.5	42.9697
2071	42.7643
2071.5	41.666
2072	40.4562
2072.5	39.7344
2073	39.3741
2073.5	39.0017
2074	38.4089
2074.5	37.937
2075	38.1119
2075.5	39.1867
2076	40.7475
2076.5	42.1321
2077	42.8002
2077.5	42.6844
2078	41.9105
2078.5	40.836
2079	39.6307
2079.5	38.5054
2080	37.729
2080.5	37.6567
2081	38.4549
2081.5	39.9222
2082	41.6487
2082.5	43.0513
2083	43.7659
2083.5	43.5264
2084	42.5473
2084.5	41.1024
2085	39.7208
2085.5	38.8662
2086	38.8965
2086.5	39.6789
2087	40.783
2087.5	41.6041
2088	41.7543
2088.5	41.1378
2089	39.9465
2089.5	38.6434
2090	37.663
2090.5	37.3661
2091	37.7878
2091.5	38.8186
2092	40.0607
2092.5	41.2479
2093	42.2187
2093.5	42.9423
2094	43.2704
2094.5	42.9425
2095	42.0007
2095.5	40.8246
2096	40.2006
2096.5	40.5093
2097	41.514
2097.5	42.1408
2098	41.6737
2098.5	40.179
2099	38.7839
2099.5	38.4986
2100	39.4644
2100.5	40.7457
2101	41.1727
2101.5	40.3442
2102	38.7705
2102.5	37.4503
2103	37.0031
2103.5	37.4823
2104	38.4983
2104.5	39.5548
2105	40.2887
2105.5	40.4067
2106	39.8065
2106.5	38.5505
2107	37.2645
2107.5	36.6248
2108	37.2736
2108.5	38.9245
2109	40.9288
2109.5	42.275
2110	42.4672
2110.5	41.416
2111	39.7968
2111.5	38.3323
2112	37.705
2112.5	37.907
2113	38.5936
2113.5	39.0848
2114	38.9502
2114.5	38.1489
2115	37.2239
2115.5	36.7802
2116	37.2586
2116.5	38.3942
2117	39.6812
2117.5	40.5669
2118	40.9936
2118.5	41.1836
2119	41.4852
2119.5	41.9609
2120	42.4019
2120.5	42.4655
2121	42.0176
2121.5	41.0834
2122	39.9876
2122.5	38.9988
2123	38.3787
2123.5	38.1681
2124	38.3169
2124.5	38.5894
2125	38.7603
2125.5	38.728
2126	38.6489
2126.5	38.7259
2127	39.0889
2127.5	39.5681
2128	39.9756
2128.5	40.2508
2129	40.5637
2129.5	41.1068
2130	41.8386
2130.5	42.4799
2131	42.6047
2131.5	42.0093
2132	40.666
2132.5	38.6967
2133	36.5751
2133.5	34.8995
2134	34.4109
2134.5	35.2759
2135	37.194
2135.5	39.073
2136	40.0971
2136.5	39.857
2137	39.0272
2137.5	38.2876
2138	38.1263
2138.5	38.405
2139	38.8491
2139.5	39.2269
2140	39.5001
2140.5	39.6375
2141	39.5932
2141.5	39.3658
2142	39.0701
2142.5	38.8498
2143	38.6813
2143.5	38.3356
2144	37.6763
2144.5	36.8047
2145	36.1729
2145.5	36.1531
2146	36.9938
2146.5	38.3694
2147	39.8836
2147.5	41.0448
2148	41.6347
2148.5	41.6218
2149	41.3015
2149.5	41.0366
2150	41.0443
2150.5	41.1507
2151	41.0355
2151.5	40.4141
2152	39.4977
2152.5	38.624
2153	38.085
2153.5	37.8145
2154	37.6796
2154.5	37.7044
2155	38.0923
2155.5	39.0405
2156	40.2128
2156.5	41.0751
2157	41.0568
2157.5	40.2867
2158	39.1907
2158.5	38.3994
2159	38.1777
2159.5	38.5577
2160	39.2736
2160.5	40.0884
2161	40.762
2161.5	41.157
2162	41.2455
2162.5	41.1792
2163	41.1965
2163.5	41.4164
2164	41.6877
2164.5	41.7383
2165	41.3097
2165.5	40.4788
2166	39.4322
2166.5	38.2991
2167	37.0106
2167.5	35.4005
2168	33.5205
2168.5	31.8251
2169	31.0124
2169.5	31.4072
2170	32.6166
2170.5	33.6473
2171	33.591
2171.5	32.3064
2172	30.6084
2172.5	29.6915
2173	30.3198
2173.5	32.3006
2174	34.8169
2174.5	37.1371
2175	38.979
2175.5	40.4104
2176	41.4493
2176.5	42.0408
2177	42.0236
2177.5	41.3487
2178	40.2165
2178.5	38.815
2179	37.4004
2179.5	36.1738
2180	35.3674
2180.5	35.0329
2181	35.1739
2181.5	35.8395
2182	37.0167
2182.5	38.6862
2183	40.4563
2183.5	41.7406
2184	41.9903
2184.5	41.4063
2185	40.6327
2185.5	40.4321
2186	40.8219
2186.5	41.3877
2187	41.6305
2187.5	41.6419
2188	41.8442
2188.5	42.4656
2189	43.1304
2189.5	43.0882
2190	42.0698
2190.5	40.4306
2191	38.9907
2191.5	38.2484
2192	38.1838
2192.5	38.3077
2193	38.2335
2193.5	37.9064
2194	37.6495
2194.5	37.768
2195	38.4614
2195.5	39.4512
2196	40.3451
2196.5	40.6904
2197	40.4815
2197.5	39.9904
2198	39.7008
2198.5	39.7736
2199	40.0446
2199.5	40.1727
2200	40.1239
2200.5	40.2253
2201	40.7263
2201.5	41.4453
2202	41.6099
2202.5	40.6532
2203	38.4919
2203.5	36.0597
2204	34.3737
2204.5	34.247
2205	35.2739
2205.5	36.7166
2206	37.7287
2206.5	38.1317
2207	38.1957
2207.5	38.4484
2208	39.0593
2208.5	39.7944
2209	40.1034
2209.5	39.6808
2210	38.5367
2210.5	37.3113
2211	36.6063
2211.5	36.8792
2212	37.9543
2212.5	39.4477
2213	40.7581
2213.5	41.5337
2214	41.5635
2214.5	41.0247
2215	40.1322
2215.5	39.1669
2216	38.3898
2216.5	37.9792
2217	37.9745
2217.5	38.2111
2218	38.4806
2218.5	38.6329
2219	38.7179
2219.5	38.925
2220	39.3289
2220.5	39.8153
2221	40.1186
2221.5	40.1731
2222	40.1377
2222.5	40.2768
2223	40.5523
2223.5	40.5826
2224	40.0271
2224.5	39.0057
2225	38.1841
2225.5	38.1525
2226	38.9586
2226.5	39.8786
2227	40.1386
2227.5	39.4113
2228	38.2573
2228.5	37.4068
2229	37.4476
2229.5	38.2142
2230	39.3413
2230.5	40.3404
2231	40.8775
2231.5	40.7196
2232	39.9438
2232.5	39.0256
2233	38.6668
2233.5	39.1955
2234	40.2206
2234.5	40.6334
2235	39.7312
2235.5	37.7133
2236	35.9471
2236.5	35.693
2237	37.4414
2237.5	40.1293
2238	42.3566
2238.5	43.0227
2239	42.4108
2239.5	41.2295
2240	40.1904
2240.5	39.4527
2241	38.9474
2241.5	38.7006
2242	38.8388
2242.5	39.3708
2243	39.8027
2243.5	39.6003
2244	38.4141
2244.5	36.8048
2245	35.4494
2245.5	34.8912
2246	34.9458
2246.5	35.2627
2247	35.6112
2247.5	36.1137
2248	36.9956
2248.5	38.1119
2249	39.1074
2249.5	39.591
2250	39.6347
2250.5	39.4508
2251	39.2257
2251.5	38.929
2252	38.4883
2252.5	38.051
2253	37.8653
2253.5	38.1316
2254	38.6291
2254.5	39.0495
2255	39.1283
2255.5	38.9343
2256	38.6267
2256.5	38.3652
2257	38.1925
2257.5	38.1256
2258	38.136
2258.5	38.143
2259	37.9915
2259.5	37.6927
2260	37.4802
2260.5	37.8087
2261	38.7953
2261.5	40.1663
2262	41.1656
2262.5	41.3098
2263	40.4637
2263.5	39.1906
2264	37.9152
2264.5	36.8064
2265	35.745
2265.5	34.726
2266	34.0338
2266.5	33.9521
2267	34.6609
2267.5	35.9062
2268	37.3735
2268.5	38.7718
2269	39.9029
2269.5	40.5965
2270	40.7429
2270.5	40.5652
2271	40.4327
2271.5	40.6693
2272	41.1292
2272.5	41.2515
2273	40.5904
2273.5	39.2667
2274	38.0241
2274.5	37.5662
2275	38.0172
2275.5	38.7062
2276	38.8968
2276.5	38.3416
2277	37.6847
2277.5	37.6777
2278	38.818
2278.5	40.5153
2279	41.9582
2279.5	42.2312
2280	41.2099
2280.5	39.1625
2281	36.9963
2281.5	35.581
2282	35.6573
2282.5	37.036
2283	39.0435
2283.5	40.6877
2284	41.4433
2284.5	41.2938
2285	40.6248
2285.5	39.7808
2286	38.8351
2286.5	37.8785
2287	37.1984
2287.5	37.2984
2288	38.1478
2288.5	39.2362
2289	39.6011
2289.5	38.9327
2290	37.5555
2290.5	36.3807
2291	35.896
2291.5	36.0261
2292	36.1498
2292.5	35.9681
2293	35.6923
2293.5	35.8633
2294	36.7363
2294.5	37.9932
2295	38.937
2295.5	39.0145
2296	38.2812
2296.5	37.2716
2297	36.6175
2297.5	36.5411
2298	36.8492
2298.5	37.1204
2299	37.1377
2299.5	37.0111
2300	37.1058
2300.5	37.612
2301	38.5198
2301.5	39.5232
2302	40.3285
2302.5	40.5978
2303	40.2176
2303.5	39.1614
2304	37.675
2304.5	36.3145
2305	35.6319
2305.5	35.8333
2306	36.5555
2306.5	37.1908
2307	37.2877
2307.5	36.8859
2308	36.3785
2308.5	36.1714
2309	36.405
2309.5	36.9968
2310	37.8323
2310.5	38.917
2311	40.1367
2311.5	41.1957
2312	41.5791
2312.5	41.1349
2313	40.0756
2313.5	39.0026
2314	38.3557
2314.5	38.1027
2315	37.6923
2315.5	36.7444
2316	35.3708
2316.5	34.3684
2317	34.3453
2317.5	35.4671
2318	36.8692
2318.5	37.8219
2319	38.1311
2319.5	38.3579
2320	39.0621
2320.5	40.1533
2321	40.9264
2321.5	40.4456
2322	38.6916
2322.5	36.3274
2323	34.5852
2323.5	34.1815
2324	35.2155
2324.5	36.9783
2325	38.6036
2325.5	39.5075
2326	39.7005
2326.5	39.4641
2327	39.0338
2327.5	38.502
2328	37.8698
2328.5	37.231
2329	36.7105
2329.5	36.3247
2330	35.9285
2330.5	35.47
2331	35.1671
2331.5	35.342
2332	36.0029
2332.5	36.6305
2333	36.5626
2333.5	35.59
2334	34.3299
2334.5	33.6717
2335	34.1438
2335.5	35.301
2336	36.4544
2336.5	37.0438
2337	37.0517
2337.5	36.5559
2338	35.6185
2338.5	34.5173
2339	33.7782
2339.5	34.1098
2340	35.6165
2340.5	37.8201
2341	39.5686
2341.5	40.148
2342	39.3087
2342.5	37.8148
2343	36.3468
2343.5	35.4473
2344	35.1904
2344.5	35.5093
2345	36.0742
2345.5	36.5559
2346	36.686
2346.5	36.5245
2347	36.2727
2347.5	36.1716
2348	36.2786
2348.5	36.5889
2349	37.1005
2349.5	37.776
2350	38.4209
2350.5	38.5984
2351	38.0136
2351.5	36.61
2352	35.0326
2352.5	33.9308
2353	33.8457
2353.5	34.6327
2354	35.9367
2354.5	37.2012
2355	38.1258
2355.5	38.5755
2356	38.6625
2356.5	38.452
2357	37.9018
2357.5	37.0731
2358	36.1511
2358.5	35.5586
2359	35.5469
2359.5	36.0704
2360	36.5536
2360.5	36.5226
2361	35.8617
2361.5	35.2217
2362	35.2419
2362.5	36.1987
2363	37.4725
2363.5	38.2373
2364	37.8899
2364.5	36.6797
2365	35.2592
2365.5	34.4008
2366	34.4185
2366.5	35.2924
2367	36.4236
2367.5	37.288
2368	37.4968
2368.5	37.1892
2369	36.7333
2369.5	36.5986
2370	36.9264
2370.5	37.6148
2371	38.2739
2371.5	38.5821
2372	38.1736
2372.5	36.9762
2373	35.0852
2373.5	33.1608
2374	32.0439
2374.5	32.5118
2375	34.2863
2375.5	36.4105
2376	37.5159
2376.5	37.1917
2377	35.8438
2377.5	34.6197
2378	34.1888
2378.5	34.5352
2379	35.0733
2379.5	35.4869
2380	35.9011
2380.5	36.5979
2381	37.5229
2381.5	38.195
2382	38.2559
2382.5	37.7457
2383	37.1964
2383.5	37.0502
2384	37.3891
2384.5	37.8655
2385	38.167
2385.5	37.9993
2386	37.266
2386.5	35.9453
2387	34.3652
2387.5	33.2351
2388	33.2617
2388.5	34.4955
2389	36.1399
2389.5	37.0609
2390	36.7758
2390.5	35.7074
2391	34.757
2391.5	34.4604
2392	34.7457
2392.5	35.0861
2393	35.1598
2393.5	35.0826
2394	35.3588
2394.5	36.2661
2395	37.668
2395.5	38.782
2396	39.0024
2396.5	38.2679
2397	37.3805
2397.5	37.0766
2398	37.4524
2398.5	37.8246
2399	37.4075
2399.5	36.2056
2400	34.7954
2400.5	33.7719
2401	32.9963
2401.5	32.1289
2402	31.3424
2402.5	31.3826
2403	32.9056
2403.5	35.4117
2404	37.7021
2404.5	38.5962
2405	38.198
2405.5	37.23
2406	36.5725
2406.5	36.5314
2407	37.1278
2407.5	38.1772
2408	39.2943
2408.5	39.8667
2409	39.4397
2409.5	38.2029
2410	36.9007
2410.5	36.2101
2411	36.131
2411.5	36.1667
2412	36.0984
2412.5	36.2618
2413	36.9606
2413.5	37.7155
2414	37.5269
2414.5	36.1124
2415	34.1822
2415.5	33.0812
2416	33.1902
2416.5	33.9578
2417	34.3291
2417.5	34.1386
2418	34.0697
2418.5	34.8659
2419	36.2886
2419.5	37.3813
2420	37.446
2420.5	36.5928
2421	35.6035
2421.5	35.1023
2422	35.1283
2422.5	35.2329
2423	35.1875
2423.5	35.2449
2424	35.8147
2424.5	36.8551
2425	37.7982
2425.5	38.1255
2426	37.9124
2426.5	37.9523
2427	38.8328
2427.5	40.465
2428	41.864
2428.5	42.3046
2429	41.7027
2429.5	40.7261
2430	39.6298
2430.5	38.1952
2431	36.4063
2431.5	34.8172
2432	34.3874
2432.5	35.1539
2433	36.2311
2433.5	36.3274
2434	35.4643
2434.5	34.9261
2435	35.7696
2435.5	37.7072
2436	39.0002
2436.5	38.3959
2437	35.8843
2437.5	33.0978
2438	31.3981
2438.5	31.2816
2439	31.7793
2439.5	32.1841
2440	32.44
2440.5	33.0471
2441	34.3129
2441.5	35.9257
2442	37.1882
2442.5	37.5045
2443	36.9634
2443.5	36.1314
2444	35.7108
2444.5	35.8843
2445	36.4311
2445.5	36.8647
2446	36.8912
2446.5	36.4616
2447	35.7945
2447.5	35.1594
2448	34.8455
2448.5	35.0322
2449	35.6704
2449.5	36.3834
2450	36.5341
2450.5	35.6731
2451	33.9506
2451.5	32.2723
2452	31.6724
2452.5	32.5413
2453	34.2811
2453.5	35.7677
2454	36.3181
2454.5	36.0348
2455	35.5094
2455.5	35.1845
2456	35.0294
2456.5	34.7834
2457	34.464
2457.5	34.4156
2458	34.8727
2458.5	35.6163
2459	36.1056
2459.5	36.0224
2460	35.3887
2460.5	34.4905
2461	33.6061
2461.5	32.9029
2462	32.5638
2462.5	32.7289
2463	33.4631
2463.5	34.4698
2464	35.4249
2464.5	36.0006
2465	36.1131
2465.5	35.7199
2466	34.9338
2466.5	34.0987
2467	33.7012
2467.5	33.9988
2468	34.8189
2468.5	35.7387
2469	36.3946
2469.5	36.7303
2470	36.8064
2470.5	36.6106
2471	35.9677
2471.5	34.9108
2472	33.8167
2472.5	33.2289
2473	33.4185
2473.5	34.2686
2474	35.3472
2474.5	36.0868
2475	36.1666
2475.5	35.6879
2476	35.2368
2476.5	35.3544
2477	36.0634
2477.5	36.8942
2478	37.2572
2478.5	37.1354
2479	36.9174
2479.5	37.0784
2480	37.5048
2480.5	37.7314
2481	37.3146
2481.5	36.282
2482	34.8727
2482.5	33.5559
2483	32.71
2483.5	32.7283
2484	33.3552
2484.5	33.9972
2485	33.9739
2485.5	33.4676
2486	33.3106
2486.5	34.3415
2487	36.2773
2487.5	37.8894
2488	38.0479
2488.5	36.8829
2489	35.7295
2489.5	35.5835
2490	36.3576
2490.5	36.9562
2491	36.6767
2491.5	35.6456
2492	34.8175
2492.5	34.7
2493	35.029
2493.5	35.0395
2494	34.4472
2494.5	33.6252
2495	33.221
2495.5	33.5509
2496	34.2466
2496.5	34.6719
2497	34.3896
2497.5	33.6832
2498	33.0708
2498.5	33.0907
2499	33.6485
2499.5	34.3449
2500	34.6413
2500.5	34.5198
2501	34.4658
2501.5	35.0852
2502	36.3878
2502.5	37.7898
2503	38.49
2503.5	38.2261
2504	37.3415
2504.5	36.4581
2505	35.7207
2505.5	34.8593
2506	33.7695
2506.5	32.729
2507	32.1983
2507.5	32.3161
2508	32.9859
2508.5	33.8831
2509	34.7906
2509.5	35.2791
2510	34.9661
2510.5	33.8205
2511	32.8498
2511.5	33.1622
2512	35.2534
2512.5	37.5582
2513	38.4296
2513.5	37.2269
2514	35.4877
2514.5	34.7479
2515	35.3154
2515.5	35.9188
2516	35.2548
2516.5	33.7279
2517	32.6988
2517.5	33.3436
2518	35.0097
2518.5	36.5754
2519	37.0432
2519.5	36.5696
2520	35.6452
2520.5	34.8029
2521	34.2358
2521.5	34.109
2522	34.3565
2522.5	34.6743
2523	34.4917
2523.5	33.6809
2524	32.6554
2524.5	32.2066
2525	32.5117
2525.5	33.2038
2526	33.6061
2526.5	33.5758
2527	33.4852
2527.5	33.8008
2528	34.4824
2528.5	35.1151
2529	35.4615
2529.5	35.6153
2530	35.8286
2530.5	36.0853
2531	36.0959
2531.5	35.6913
2532	35.0104
2532.5	34.3079
2533	33.6963
2533.5	33.1574
2534	32.7522
2534.5	32.6367
2535	32.9065
2535.5	33.343
2536	33.7679
2536.5	34.2784
2537	35.0862
2537.5	36.0625
2538	36.446
2538.5	35.6724
2539	33.9804
2539.5	32.5799
2540	32.3161
2540.5	33.2107
2541	34.2293
2541.5	34.769
2542	35.1296
2542.5	36.0897
2543	37.5984
2543.5	38.4441
2544	37.6053
2544.5	35.0328
2545	32.3661
2545.5	31.1964
2546	32.0247
2546.5	33.4056
2547	33.9993
2547.5	33.1654
2548	31.8373
2548.5	31.0644
2549	31.4555
2549.5	32.5335
2550	33.7651
2550.5	34.8072
2551	35.564
2551.5	35.8083
2552	35.4445
2552.5	34.6186
2553	33.9087
2553.5	33.6755
2554	33.8792
2554.5	34.185
2555	34.515
2555.5	35.0643
2556	35.7061
2556.5	35.856
2557	34.8291
2557.5	33.1543
2558	31.928
2558.5	32.2662
2559	33.8839
2559.5	35.7758
2560	36.9913
2560.5	37.4666
2561	37.3098
2561.5	36.6002
2562	35.3996
2562.5	34.4461
2563	34.7183
2563.5	36.4873
2564	38.5859
2564.5	39.5696
2565	38.6735
2565.5	36.8362
2566	35.2626
2566.5	34.693
2567	34.8057
2567.5	35.3783
2568	36.3503
2568.5	37.4635
2569	38.1019
2569.5	37.6991
2570	36.5758
2570.5	35.5447
2571	35.155
2571.5	35.1958
2572	35.0437
2572.5	34.5492
2573	34.1179
2573.5	34.1713
2574	34.5148
2574.5	34.6661
2575	34.3627
2575.5	33.8448
2576	33.6607
2576.5	34.0442
2577	34.8903
2577.5	35.7443
2578	36.1136
2578.5	35.7119
2579	34.8741
2579.5	34.3525
2580	34.7497
2580.5	35.6896
2581	36.3344
2581.5	35.8435
2582	34.6332
2582.5	33.6851
2583	33.8646
2583.5	34.9178
2584	36.1663
2584.5	36.9625
2585	37.2248
2585.5	36.9914
2586	36.3386
2586.5	35.2632
2587	34.0474
2587.5	33.2133
2588	33.1369
2588.5	33.7121
2589	34.433
2589.5	34.9193
2590	35.1194
2590.5	35.1555
2591	35.1497
2591.5	35.161
2592	35.1852
2592.5	35.1427
2593	34.9084
2593.5	34.3445
2594	33.485
2594.5	32.5499
2595	31.9162
2595.5	31.8444
2596	32.3977
2596.5	33.3603
2597	34.1393
2597.5	34.1706
2598	33.3472
2598.5	32.419
2599	32.3886
2599.5	33.6481
2600	35.6091
2600.5	36.9141
2601	36.6073
2601.5	34.8131
2602	32.6343
2602.5	31.3016
2603	31.5372
2603.5	33.064
2604	34.9015
2604.5	35.962
2605	35.9363
2605.5	35.2175
2606	34.5664
2606.5	34.3125
2607	34.1213
2607.5	33.3335
2608	31.9741
2608.5	30.6392
2609	30.1199
2609.5	30.583
2610	31.7857
2610.5	33.1208
2611	34.3433
2611.5	35.1888
2612	35.3928
2612.5	34.7299
2613	33.5903
2613.5	32.7793
2614	32.8772
2614.5	33.432
2615	33.5023
2615.5	32.0287
2616	29.4244
2616.5	26.8623
2617	25.8291
2617.5	26.6218
2618	28.7376
2618.5	30.7873
2619	31.9513
2619.5	32.244
2620	32.429
2620.5	32.8862
2621	33.4319
2621.5	33.6443
2622	33.5482
2622.5	33.6881
2623	34.2866
2623.5	35.0013
2624	35.1934
2624.5	34.8434
2625	34.6654
2625.5	35.1133
2626	35.8372
2626.5	35.8843
2627	35.0339
2627.5	33.9518
2628	33.6986
2628.5	34.2871
2629	34.992
2629.5	35.1137
2630	34.7886
2630.5	34.6954
2631	34.9537
2631.5	35.1196
2632	34.7428
2632.5	34.1558
2633	34.1446
2633.5	34.9736
2634	36.0215
2634.5	36.2671
2635	35.4304
2635.5	33.9461
2636	32.8432
2636.5	32.6582
2637	33.3924
2637.5	34.4373
2638	35.1304
2638.5	34.9125
2639	33.9124
2639.5	32.655
2640	31.8451
2640.5	31.7491
2641	32.247
2641.5	32.8696
2642	33.3363
2642.5	33.7595
2643	34.4901
2643.5	35.6176
2644	36.7643
2644.5	37.1427
2645	36.3365
2645.5	34.5343
2646	32.7224
2646.5	31.7331
2647	31.803
2647.5	32.2987
2648	32.6774
2648.5	32.8737
2649	33.1402
2649.5	33.6392
2650	34.0667
2650.5	34.0874
2651	33.528
2651.5	32.5463
2652	31.351
2652.5	30.4722
2653	30.5156
2653.5	32.064
2654	34.4971
2654.5	36.57
2655	36.594
2655.5	34.775
2656	32.2495
2656.5	30.5758
2657	30.1685
2657.5	30.6942
2658	31.4008
2658.5	32.0775
2659	32.7592
2659.5	33.3382
2660	33.6464
2660.5	33.8438
2661	34.4549
2661.5	35.7556
2662	37.1741
2662.5	37.7341
2663	36.5249
2663.5	34.2087
2664	32.0061
2664.5	31.2775
2665	32.0465
2665.5	33.6174
2666	34.6827
2666.5	34.7338
2667	33.9773
2667.5	33.3012
2668	33.2645
2668.5	33.8272
2669	34.1866
2669.5	33.8586
2670	32.9444
2670.5	32.1966
2671	32.1948
2671.5	32.7028
2672	33.1073
2672.5	33.0936
2673	33.0841
2673.5	33.5582
2674	34.3426
2674.5	34.5154
2675	33.4937
2675.5	31.6682
2676	30.3055
2676.5	30.27
2677	31.1677
2677.5	32.0648
2678	32.2977
2678.5	32.1904
2679	32.3245
2679.5	32.8678
2680	33.285
2680.5	33.0939
2681	32.4496
2681.5	32.1597
2682	32.8869
2682.5	34.3153
2683	35.604
2683.5	35.8556
2684	35.3283
2684.5	34.6651
2685	34.2797
2685.5	33.8636
2686	32.9368
2686.5	31.6144
2687	30.5274
2687.5	30.1902
2688	30.3728
2688.5	30.6653
2689	30.9704
2689.5	31.5644
2690	32.5309
2690.5	33.4315
2691	33.7582
2691.5	33.4196
2692	32.9488
2692.5	32.6983
2693	32.6187
2693.5	32.287
2694	31.5218
2694.5	30.6288
2695	30.2197
2695.5	30.8574
2696	32.6692
2696.5	34.9702
2697	36.7043
2697.5	37.0319
2698	35.8662
2698.5	33.7079
2699	31.7114
2699.5	30.5336
2700	30.4681
2700.5	31.2439
2701	32.4891
2701.5	33.5134
2702	33.8745
2702.5	33.3734
2703	32.5017
2703.5	31.8141
2704	31.6669
2704.5	31.8923
2705	32.3746
2705.5	33.2024
2706	34.414
2706.5	35.6208
2707	36.0543
2707.5	35.3836
2708	33.9066
2708.5	32.6724
2709	32.1812
2709.5	32.399
2710	33.0993
2710.5	34.4664
2711	36.3939
2711.5	37.971
2712	37.7748
2712.5	35.6833
2713	33.0014
2713.5	31.8131
2714	32.212
2714.5	33.041
2715	32.8755
2715.5	31.9755
2716	31.6302
2716.5	32.169
2717	32.8376
2717.5	32.9254
2718	32.7502
2718.5	32.8897
2719	33.3593
2719.5	33.5469
2720	32.9999
2720.5	32.0355
2721	31.294
2721.5	31.3504
2722	32.4868
2722.5	34.7148
2723	37.7861
2723.5	41.0667
2724	43.5969
2724.5	44.8119
2725	44.2374
2725.5	42.817
2726	40.9244
2726.5	38.6716
2727	36.1751
2727.5	33.8259
2728	32.1829
2728.5	31.5179
2729	31.411
2729.5	31.3899
2730	31.3764
2730.5	31.7192
2731	32.4685
2731.5	32.9589
2732	32.3792
2732.5	30.6375
2733	28.8863
2733.5	28.4443
2734	29.4767
2734.5	30.9653
2735	31.5941
2735.5	31.2547
2736	30.9083
2736.5	31.3596
2737	32.472
2737.5	33.3083
2738	33.4377
2738.5	33.3104
2739	33.59
2739.5	34.3008
2740	34.6522
2740.5	34.1846
2741	33.303
2741.5	32.9245
2742	33.4815
2742.5	34.2522
2743	34.3501
2743.5	33.5301
2744	32.4257
2744.5	31.8715
2745	31.9987
2745.5	32.4565
2746	32.8888
2746.5	33.2039
2747	33.386
2747.5	33.2844
2748	32.8028
2748.5	32.1339
2749	31.6457
2749.5	31.3713
2750	31.0353
2750.5	30.4734
2751	30.029
2751.5	30.2094
2752	31.0137
2752.5	31.9561
2753	32.6129
2753.5	33.1773
2754	34.0589
2754.5	35.072
2755	35.4109
2755.5	34.3284
2756	32.2671
2756.5	30.4897
2757	29.9938
2757.5	30.9054
2758	32.526
2758.5	33.9846
2759	34.8346
2759.5	34.9313
2760	34.2798
2760.5	33.0243
2761	31.4964
2761.5	30.0953
2762	29.2991
2762.5	29.6153
2763	31.0923
2763.5	32.9974
2764	34.2402
2764.5	34.1724
2765	33.2827
2765.5	32.6709
2766	32.2321
2766.5	30.3111
2767	24.9772
2767.5	16.2413
2768	7.23643
2768.5	1.3095
2769	0
2769.5	2.58604
2770	7.29881
2770.5	13.054
2771	19.5219
2771.5	25.9996
2772	31.0873
2772.5	33.7494
2773	34.3915
2773.5	34.0878
2774	33.6245
2774.5	33.0311
2775	32.1148
2775.5	31.1343
2776	30.5352
2776.5	30.4114
2777	30.3474
2777.5	29.9908
2778	29.5371
2778.5	29.3691
2779	29.5382
2779.5	29.6006
2780	29.2232
2780.5	28.6539
2781	28.4383
2781.5	28.8805
2782	29.7684
2782.5	30.7012
2783	31.578
2783.5	32.3172
2784	32.3235
2784.5	30.2635
2785	25.4163
2785.5	18.5142
2786	11.6821
2786.5	7.29834
2787	6.31582
2787.5	7.37302
2788	8.59072
2788.5	8.79465
2789	7.99787
2789.5	6.99048
2790	6.38769
2790.5	6.28117
2791	6.39186
2791.5	6.21572
2792	5.31008
2792.5	4.01718
2793	3.69325
2793.5	6.17077
2794	12.4695
2794.5	21.2525
2795	29.1757
2795.5	33.5519
2796	33.88
2796.5	31.9844
2797	30.569
2797.5	30.8271
2798	32.1391
2798.5	33.2238
2799	33.2733
2799.5	32.4351
2800	31.411
2800.5	30.6787
2801	30.4254
2801.5	30.6941
2802	31.4681
2802.5	32.5212
2803	33.4731
2803.5	33.9826
2804	34.0127
2804.5	33.9296
2805	34.1794
2805.5	34.8044
2806	35.421
2806.5	35.5341
2807	34.9486
2807.5	33.996
2808	33.0841
2808.5	32.3743
2809	31.8431
2809.5	31.5861
2810	31.9062
2810.5	32.8855
2811	34.0876
2811.5	34.7596
2812	34.4142
2812.5	33.3326
2813	32.1661
2813.5	31.1818
2814	30.2649
2814.5	29.4005
2815	29.0808
2815.5	29.7078
2816	30.9364
2816.5	31.8221
2817	31.6455
2817.5	30.6089
2818	29.6526
2818.5	29.2852
2819	29.4726
2819.5	30.0951
2820	31.2699
2820.5	32.8773
2821	34.1502
2821.5	34.2607
2822	33.1877
2822.5	31.9015
2823	31.3946
2823.5	31.4004
2824	31.0094
2824.5	29.9103
2825	28.909
2825.5	29.2124
2826	30.76
2826.5	32.3953
2827	32.9963
2827.5	32.3093
2828	30.8817
2828.5	29.4264
2829	28.3496
2829.5	27.9226
2830	28.3612
2830.5	29.6442
2831	31.3591
2831.5	32.937
2832	34.0347
2832.5	34.4853
2833	34.1688
2833.5	33.0374
2834	31.4173
2834.5	29.9235
2835	29.1204
2835.5	29.31
2836	30.5238
2836.5	32.5206
2837	34.6032
2837.5	35.8202
2838	35.458
2838.5	33.6763
2839	31.6798
2839.5	30.9375
2840	31.9034
2840.5	33.8867
2841	35.5876
2841.5	35.8378
2842	34.1605
2842.5	31.2732
2843	28.5618
2843.5	27.413
2844	28.364
2844.5	30.6514
2845	32.6437
2845.5	33.3487
2846	32.9901
2846.5	32.4924
2847	32.607
2847.5	33.3931
2848	34.3199
2848.5	34.8755
2849	34.7817
2849.5	34.023
2850	32.8489
2850.5	31.7204
2851	31.0014
2851.5	30.7481
2852	30.8294
2852.5	31.1347
2853	31.616
2853.5	32.0833
2854	32.1906
2854.5	31.7569
2855	31.0054
2855.5	30.4136
2856	30.3406
2856.5	30.7911
2857	31.7128
2857.5	33.1878
2858	35.169
2858.5	37.131
2859	38.0634
2859.5	37.3766
2860	35.4675
2860.5	33.4627
2861	32.4747
2861.5	32.8909
2862	34.1328
2862.5	35.0505
2863	34.8235
2863.5	33.3334
2864	31.181
2864.5	29.3149
2865	28.4464
2865.5	28.5045
2866	28.9751
2866.5	29.3932
2867	29.6384
2867.5	29.8561
2868	30.1861
2868.5	30.667
2869	31.3993
2869.5	32.5313
2870	34
2870.5	35.3317
2871	35.8907
2871.5	35.5944
2872	34.9358
2872.5	34.4226
2873	34.0061
2873.5	33.1503
2874	31.6138
2874.5	30.095
2875	29.5931
2875.5	30.5266
2876	32.3888
2876.5	34.2028
2877	35.2366
2877.5	35.3541
2878	34.623
2878.5	33.2151
2879	31.5945
2879.5	30.5452
2880	30.7041
2880.5	31.7442
2881	32.7
2881.5	32.8273
2882	32.2533
2882.5	31.7724
2883	31.938
2883.5	32.285
2884	31.9883
2884.5	30.9247
2885	30.0183
2885.5	30.4802
2886	32.5589
2886.5	34.884
2887	35.8379
2887.5	34.9412
2888	33.0308
2888.5	31.3023
2889	30.2391
2889.5	29.4851
2890	28.7885
2890.5	28.4275
2891	28.6718
2891.5	29.2272
2892	29.4365
2892.5	29.1134
2893	28.9531
2893.5	29.6546
2894	31.1711
2894.5	32.7084
2895	33.3874
2895.5	32.8815
2896	31.696
2896.5	30.6398
2897	30.3268
2897.5	30.7921
2898	31.3761
2898.5	31.1254
2899	29.7365
2899.5	28.159
2900	27.7427
2900.5	29.0596
2901	31.357
2901.5	33.2103
2902	33.7594
2902.5	33.5183
2903	33.4068
2903.5	33.7135
2904	33.9117
2904.5	33.3209
2905	31.8855
2905.5	30.3266
2906	29.387
2906.5	29.1966
2907	29.3972
2907.5	29.6298
2908	29.8527
2908.5	30.2118
2909	30.7026
2909.5	31.225
2910	31.8847
2910.5	32.9598
2911	34.4218
2911.5	35.5329
2912	35.1838
2912.5	33.2147
2913	30.804
2913.5	29.5633
2914	30.1248
2914.5	31.5361
2915	32.1124
2915.5	31.1389
2916	29.7052
2916.5	29.3472
2917	30.5765
2917.5	32.4338
2918	33.4083
2918.5	32.8049
2919	31.4238
2919.5	30.5755
2920	30.8181
2920.5	31.6928
2921	32.3271
2921.5	32.2562
2922	31.7081
2922.5	31.1726
2923	30.7453
2923.5	30.1914
2924	29.4428
2924.5	28.8917
2925	29.059
2925.5	29.8896
2926	30.4777
2926.5	30.0697
2927	28.9706
2927.5	28.3573
2928	29.0845
2928.5	30.6904
2929	31.7445
2929.5	31.5071
2930	30.6665
2930.5	30.2504
2931	30.4606
2931.5	30.6692
2932	30.4216
2932.5	30.1033
2933	30.3223
2933.5	30.8838
2934	31.0238
2934.5	30.3071
2935	29.0632
2935.5	27.966
2936	27.4347
2936.5	27.5253
2937	28.1488
2937.5	29.0124
2938	29.4646
2938.5	28.8823
2939	27.3923
2939.5	26.0779
2940	26.1624
2940.5	27.7074
2941	29.7099
2941.5	31.063
2942	31.4327
2942.5	31.3481
2943	31.5891
2943.5	32.475
2944	33.5514
2944.5	34.1199
2945	33.8693
2945.5	33.1227
2946	32.4957
2946.5	32.3099
2947	32.3844
2947.5	32.4179
2948	32.4054
2948.5	32.4169
2949	32.2416
2949.5	31.5328
2950	30.3339
2950.5	29.2614
2951	28.9825
2951.5	29.466
2952	30.2047
2952.5	30.8486
2953	31.3931
2953.5	31.823
2954	31.8185
2954.5	30.9844
2955	29.3891
2955.5	27.6871
2956	26.6338
2956.5	26.7004
2957	27.8631
2957.5	29.5806
2958	31.0236
2958.5	31.5801
2959	31.4193
2959.5	31.2197
2960	31.3603
2960.5	31.5396
2961	31.1772
2961.5	30.1242
2962	28.8774
2962.5	28.129
2963	28.1255
2963.5	28.6554
2964	29.3761
2964.5	30.0322
2965	30.5337
2965.5	30.9345
2966	31.2845
2966.5	31.4101
2967	31.0191
2967.5	30.1432
2968	29.3336
2968.5	29.2409
2969	29.9721
2969.5	30.9802
2970	31.6462
2970.5	31.8599
2971	31.9366
2971.5	31.9932
2972	31.8332
2972.5	31.2683
2973	30.3834
2973.5	29.4919
2974	28.9539
2974.5	29.0466
2975	29.7004
2975.5	30.4038
2976	30.5349
2976.5	30.0014
2977	29.4633
2977.5	29.6651
2978	30.4879
2978.5	30.8598
2979	29.9238
2979.5	28.1042
2980	26.5487
2980.5	25.9624
2981	26.1108
2981.5	26.3796
2982	26.5385
2982.5	26.8059
2983	27.3069
2983.5	27.7779
2984	27.9533
2984.5	27.919
2985	28.0135
2985.5	28.4561
2986	29.129
2986.5	29.6976
2987	29.9089
2987.5	29.8629
2988	29.9517
2988.5	30.4862
2989	31.3056
2989.5	31.7454
2990	31.1674
2990.5	29.6668
2991	28.2259
2991.5	27.9934
2992	29.1021
2992.5	30.606
2993	31.4123
2993.5	31.1848
2994	30.426
2994.5	29.8581
2995	29.8737
2995.5	30.4906
2996	31.491
2996.5	32.3478
2997	32.3613
2997.5	31.2001
2998	29.4191
2998.5	28.1307
2999	27.944
2999.5	28.3295
3000	28.2551
3000.5	27.4387
3001	26.663
3001.5	26.5948
3002	27.0766
3002.5	27.5755
3003	27.9902
3003.5	28.6153
3004	29.4208
3004.5	29.8317
3005	29.4692
3005.5	28.8877
3006	28.8478
3006.5	29.326
3007	29.5105
3007.5	28.7906
3008	27.501
3008.5	26.5629
3009	26.542
3009.5	27.2276
3010	28.0078
3010.5	28.4572
3011	28.3918
3011.5	27.7778
3012	26.8039
3012.5	25.9514
3013	25.8132
3013.5	26.7568
3014	28.732
3014.5	31.2675
3015	33.5652
3015.5	34.763
3016	34.3432
3016.5	32.5472
3017	30.2985
3017.5	28.5668
3018	27.7538
3018.5	27.6826
3019	28.0392
3019.5	28.569
3020	28.8851
3020.5	28.5082
3021	27.3859
3021.5	26.2184
3022	25.9436
3022.5	26.8083
3023	28.1191
3023.5	29.0189
3024	29.3499
3024.5	29.5578
3025	29.8236
3025.5	29.8294
3026	29.3393
3026.5	28.6512
3027	28.3169
3027.5	28.5533
3028	29.0775
3028.5	29.4222
3029	29.2238
3029.5	28.3145
3030	26.8727
3030.5	25.5209
3031	25.0459
3031.5	25.7275
3032	26.981
3032.5	27.8066
3033	27.6445
3033.5	26.7873
3034	26.0372
3034.5	26.0666
3035	26.9306
3035.5	28.1787
3036	29.2168
3036.5	29.7485
3037	29.9525
3037.5	30.1716
3038	30.4297
3038.5	30.3963
3039	29.8927
3039.5	29.2521
3040	28.9286
3040.5	28.8358
3041	28.5103
3041.5	27.7889
3042	27.0732
3042.5	26.8609
3043	27.1954
3043.5	27.6818
3044	27.9223
3044.5	27.8145
3045	27.5354
3045.5	27.4239
3046	27.7928
3046.5	28.7055
3047	29.9061
3047.5	31.0507
3048	31.9356
3048.5	32.3696
3049	31.9764
3049.5	30.5212
3050	28.5756
3050.5	27.4846
3051	28.1618
3051.5	29.9016
3052	31.1511
3052.5	31.137
3053	30.4947
3053.5	30.2776
3054	30.728
3054.5	31.26
3055	31.3717
3055.5	31.1363
3056	30.805
3056.5	30.3704
3057	29.8007
3057.5	29.3888
3058	29.4712
3058.5	29.9529
3059	30.3823
3059.5	30.4879
3060	30.4246
3060.5	30.4294
3061	30.4229
3061.5	30.1336
3062	29.5816
3062.5	29.2944
3063	29.8977
3063.5	31.4466
3064	33.2086
3064.5	34.0742
3065	33.4059
3065.5	31.6781
3066	30.224
3066.5	30.1108
3067	31.1197
3067.5	31.923
3068	31.3977
3068.5	29.7481
3069	28.268
3069.5	27.952
3070	28.7023
3070.5	29.7942
3071	30.6974
3071.5	31.3093
3072	31.6196
3072.5	31.5136
3073	31.0166
3073.5	30.5144
3074	30.4555
3074.5	30.7883
3075	30.8671
3075.5	30.1272
3076	28.861
3076.5	27.9834
3077	28.0834
3077.5	28.8404
3078	29.5325
3078.5	30.0661
3079	31.2071
3079.5	33.5702
3080	36.5221
3080.5	38.4717
3081	38.4121
3081.5	36.9476
3082	35.5578
3082.5	34.9202
3083	34.5179
3083.5	33.7347
3084	32.7113
3084.5	31.9649
3085	31.5562
3085.5	31.0614
3086	30.2961
3086.5	29.6682
3087	29.657
3087.5	30.1809
3088	30.7163
3088.5	30.9557
3089	31.1247
3089.5	31.5681
3090	32.1696
3090.5	32.3168
3091	31.4527
3091.5	29.7754
3092	28.393
3092.5	28.5245
3093	30.2597
3093.5	32.1797
3094	32.5785
3094.5	31.2383
3095	29.7362
3095.5	29.6949
3096	30.8855
3096.5	31.5018
3097	30.5128
3097.5	28.9179
3098	28.4196
3098.5	29.303
3099	30.1528
3099.5	29.6891
3100	28.3842
3100.5	27.8837
3101	28.9958
3101.5	30.7023
3102	31.3063
3102.5	30.2805
3103	28.7053
3103.5	27.9944
3104	28.504
3104.5	29.4253
3105	29.8839
3105.5	29.72
3106	29.4454
3106.5	29.7016
3107	30.7291
3107.5	32.1567
3108	33.2368
3108.5	33.4067
3109	32.7107
3109.5	31.6598
3110	30.7124
3110.5	29.9983
3111	29.5243
3111.5	29.3993
3112	29.6769
3112.5	30.1116
3113	30.3696
3113.5	30.4076
3114	30.4057
3114.5	30.3919
3115	30.1935
3115.5	29.8184
3116	29.6462
3116.5	30.0598
3117	30.9916
3117.5	31.989
3118	32.6582
3118.5	32.8979
3119	32.7779
3119.5	32.4269
3120	32.0655
3120.5	31.917
3121	31.956
3121.5	31.9284
3122	31.7859
3122.5	31.8494
3123	32.3285
3123.5	32.8211
3124	32.6525
3124.5	31.7948
3125	31.1241
3125.5	31.4674
3126	32.5191
3126.5	33.0613
3127	32.3565
3127.5	31.0297
3128	30.3158
3128.5	30.5778
3129	30.9249
3129.5	30.3645
3130	29.0225
3130.5	27.9914
3131	28.0673
3131.5	29.0106
3132	29.9958
3132.5	30.4451
3133	30.3905
3133.5	30.2591
3134	30.4399
3134.5	30.9401
3135	31.3651
3135.5	31.333
3136	30.972
3136.5	30.8501
3137	31.2951
3137.5	31.9732
3138	32.3643
3138.5	32.4825
3139	32.7665
3139.5	33.3288
3140	33.8035
3140.5	34.0699
3141	34.5693
3141.5	35.4137
3142	35.7173
3142.5	34.5505
3143	32.4221
3143.5	31.0758
3144	31.5492
3144.5	32.9603
3145	33.6385
3145.5	33.1184
3146	32.442
3146.5	32.5554
3147	33.0227
3147.5	32.669
3148	31.2092
3148.5	29.7983
3149	29.8798
3149.5	31.6724
3150	33.8862
3150.5	34.8788
3151	34.0063
3151.5	31.914
3152	29.7772
3152.5	28.467
3153	28.3158
3153.5	29.2708
3154	30.8739
3154.5	32.2343
3155	32.515
3155.5	31.6663
3156	30.5086
3156.5	29.9515
3157	30.2498
3157.5	31.0916
3158	32.1283
3158.5	33.1022
3159	33.6147
3159.5	33.2738
3160	32.2726
3160.5	31.5045
3161	31.7499
3161.5	32.8116
3162	33.7124
3162.5	33.7398
3163	33.059
3163.5	32.2838
3164	31.7609
3164.5	31.4817
3165	31.4394
3165.5	31.6707
3166	31.9722
3166.5	32.012
3167	31.9272
3167.5	32.3916
3168	33.7135
3168.5	35.0818
3169	35.2541
3169.5	34.0922
3170	32.9334
3170.5	33.1174
3171	34.4687
3171.5	35.6634
3172	35.8705
3172.5	35.435
3173	34.9238
3173.5	34.222
3174	33.0337
3174.5	31.8078
3175	31.4347
3175.5	32.0526
3176	32.7943
3176.5	32.9517
3177	32.9043
3177.5	33.4721
3178	34.6022
3178.5	35.2072
3179	34.3908
3179.5	32.5538
3180	31.1267
3180.5	31.2566
3181	32.7401
3181.5	34.1786
3182	34.2856
3182.5	33.1915
3183	32.3488
3183.5	32.9207
3184	34.3562
3184.5	35.0852
3185	34.4801
3185.5	33.5299
3186	33.3062
3186.5	33.408
3187	32.7176
3187.5	31.4619
3188	31.3672
3188.5	33.3304
3189	35.7456
3189.5	36.11
3190	34.1077
3190.5	32.0973
3191	32.2079
3191.5	33.7895
3192	34.5271
3192.5	33.6059
3193	32.6281
3193.5	33.2017
3194	34.7069
3194.5	35.3053
3195	34.5779
3195.5	33.9882
3196	34.6791
3196.5	35.9408
3197	36.4902
3197.5	36.4536
3198	37.0225
3198.5	38.3887
3199	39.1903
3199.5	38.4006
3200	36.9126
3200.5	36.4768
3201	37.4333
3201.5	38.2979
3202	37.6299
3202.5	35.676
3203	33.9174
3203.5	33.4261
3204	34.018
3204.5	34.7893
3205	35.0916
3205.5	34.9583
3206	34.8115
3206.5	34.8781
3207	34.9163
3207.5	34.56
3208	33.8878
3208.5	33.4489
3209	33.6353
3209.5	34.2242
3210	34.7072
3210.5	34.8902
3211	34.9297
3211.5	34.9278
3212	34.8507
3212.5	34.8401
3213	35.2611
3213.5	36.33
3214	37.9047
3214.5	39.6713
3215	41.2399
3215.5	41.9838
3216	41.2437
3216.5	39.1075
3217	36.7973
3217.5	35.7928
3218	36.4659
3218.5	37.8298
3219	38.7026
3219.5	38.8803
3220	39.0596
3220.5	39.8118
3221	40.8426
3221.5	41.2358
3222	40.3222
3222.5	38.2992
3223	36.0503
3223.5	34.4348
3224	33.8265
3224.5	34.2279
3225	35.4346
3225.5	36.8321
3226	37.4343
3226.5	36.7453
3227	35.5945
3227.5	35.524
3228	37.0725
3228.5	39.0677
3229	39.9227
3229.5	39.2912
3230	38.0878
3230.5	37.2247
3231	36.8728
3231.5	36.8232
3232	36.9836
3232.5	37.3989
3233	38.133
3233.5	39.1522
3234	39.9979
3234.5	39.7272
3235	37.849
3235.5	35.4451
3236	34.5789
3236.5	36.0354
3237	38.1549
3237.5	38.602
3238	37.0091
3238.5	35.1246
3239	34.4682
3239.5	34.7463
3240	34.8678
3240.5	34.7015
3241	35.0891
3241.5	36.4378
3242	38.071
3242.5	39.0963
3243	39.4189
3243.5	39.6008
3244	39.9437
3244.5	40.029
3245	39.2223
3245.5	37.527
3246	35.835
3246.5	35.2448
3247	36.0661
3247.5	37.5066
3248	38.3881
3248.5	38.1819
3249	37.3576
3249.5	36.8008
3250	36.9641
3250.5	37.548
3251	37.8903
3251.5	37.6033
3252	36.8626
3252.5	36.1666
3253	35.9344
3253.5	36.3662
3254	37.5012
3254.5	39.1021
3255	40.4278
3255.5	40.4653
3256	38.7848
3256.5	36.2105
3257	34.3869
3257.5	34.4383
3258	35.9902
3258.5	37.5523
3259	37.8845
3259.5	37.0941
3260	36.414
3260.5	36.8287
3261	37.9456
3261.5	38.4799
3262	37.8627
3262.5	36.9667
3263	36.9591
3263.5	37.7874
3264	38.3973
3264.5	38.3536
3265	38.4753
3265.5	39.5283
3266	40.9287
3266.5	41.4381
3267	40.8672
3267.5	40.2857
3268	40.4491
3268.5	40.7712
3269	40.3199
3269.5	39.3275
3270	39.012
3270.5	39.9847
3271	41.4582
3271.5	42.2022
3272	41.8038
3272.5	40.6847
3273	39.2826
3273.5	37.7496
3274	36.3389
3274.5	35.5126
3275	35.468
3275.5	35.9052
3276	36.4789
3276.5	37.1769
3277	37.9831
3277.5	38.4904
3278	38.3353
3278.5	37.9
3279	38.0311
3279.5	38.9585
3280	40.0023
3280.5	40.584
3281	41.0078
3281.5	41.7593
3282	42.4278
3282.5	42.0714
3283	40.6282
3283.5	39.2512
3284	38.9891
3284.5	39.6884
3285	40.56
3285.5	41.3055
3286	42.0662
3286.5	42.7056
3287	42.8956
3287.5	42.8158
3288	43.0108
3288.5	43.411
3289	43.2276
3289.5	42.206
3290	41.3357
3290.5	41.6389
3291	42.6469
3291.5	42.9306
3292	42.0899
3292.5	41.3223
3293	41.6714
3293.5	42.4331
3294	41.9942
3294.5	39.9741
3295	37.8712
3295.5	37.5157
3296	39.2619
3296.5	41.7567
3297	43.1937
3297.5	42.7776
3298	41.2988
3298.5	40.3393
3299	40.7938
3299.5	42.153
3300	43.3545
3300.5	44.076
3301	44.6944
3301.5	45.0791
3302	44.3308
3302.5	42.182
3303	39.9779
3303.5	39.4716
3304	40.7721
3304.5	42.1575
3305	42.0437
3305.5	40.6237
3306	39.3401
3306.5	39.1898
3307	39.9801
3307.5	41.0178
3308	41.9453
3308.5	42.6917
3309	42.9674
3309.5	42.3212
3310	40.8612
3310.5	39.6329
3311	39.8633
3311.5	41.7095
3312	43.9801
3312.5	45.2568
3313	45.128
3313.5	44.1814
3314	43.0852
3314.5	42.1064
3315	41.4311
3315.5	41.3696
3316	41.9749
3316.5	42.7786
3317	43.1784
3317.5	42.9583
3318	42.303
3318.5	41.5017
3319	40.8127
3319.5	40.4476
3320	40.488
3320.5	40.9073
3321	41.7284
3321.5	42.88
3322	43.7435
3322.5	43.2964
3323	41.2575
3323.5	38.8924
3324	38.0118
3324.5	39.0704
3325	40.8185
3325.5	41.9902
3326	42.6727
3326.5	43.5664
3327	44.5461
3327.5	44.8672
3328	44.408
3328.5	43.8156
3329	43.3862
3329.5	42.6371
3330	41.3304
3330.5	40.2394
3331	40.2839
3331.5	41.2723
3332	42.1623
3332.5	42.4438
3333	42.6127
3333.5	43.2076
3334	44.0262
3334.5	44.6245
3335	45.0892
3335.5	45.7417
3336	46.339
3336.5	46.2245
3337	45.3582
3337.5	44.5865
3338	44.6635
3338.5	45.302
3339	45.5281
3339.5	44.8993
3340	44.0854
3340.5	44.1568
3341	45.4095
3341.5	46.9575
3342	47.4696
3342.5	46.3604
3343	44.3612
3343.5	42.9011
3344	42.8258
3344.5	43.7525
3345	44.7821
3345.5	45.6663
3346	46.795
3346.5	48.025
3347	48.3512
3347.5	47.2794
3348	46.0244
3348.5	46.3978
3349	48.4951
3349.5	50.4423
3350	50.826
3350.5	50.4949
3351	51.1576
3351.5	52.8406
3352	53.8927
3352.5	53.3685
3353	52.2057
3353.5	51.7328
3354	52.0388
3354.5	52.5258
3355	53.1922
3355.5	54.4036
3356	55.9747
3356.5	57.3122
3357	58.2395
3357.5	59.0087
3358	59.7194
3358.5	60.4431
3359	61.7726
3359.5	64.3936
3360	67.9866
3360.5	71.3265
3361	73.7727
3361.5	76.0223
3362	78.9694
3362.5	82.4125
3363	85.501
3363.5	87.8972
3364	90.0142
3364.5	92.4257
3365	95.497
3365.5	99.3569
3366	103.756
3366.5	108.053
3367	111.722
3367.5	114.821
3368	117.716
3368.5	120.472
3369	122.814
3369.5	124.504
3370	125.391
3370.5	125.324
3371	124.422
3371.5	123.164
3372	121.774
3372.5	119.809
3373	116.985
3373.5	114.205
3374	112.888
3374.5	113.109
3375	113.148
3375.5	111.391
3376	108.156
3376.5	105.077
3377	102.848
3377.5	100.622
3378	97.4426
3378.5	93.6154
3379	90.3329
3379.5	88.3003
3380	87.1747
3380.5	86.2562
3381	85.1811
3381.5	83.704
3382	81.3727
3382.5	78.1519
3383	75.2168
3383.5	74.0082
3384	74.3651
3384.5	74.5175
3385	73.3532
3385.5	71.8539
3386	71.5061
3386.5	72.0016
3387	71.6638
3387.5	69.8218
3388	67.4517
3388.5	65.3911
3389	63.2713
3389.5	60.8336
3390	59.0425
3390.5	58.8811
3391	59.8859
3391.5	60.7331
3392	60.8713
3392.5	60.8341
3393	61.2046
3393.5	62.0151
3394	63.1197
3394.5	64.4534
3395	65.6241
3395.5	65.6357
3396	63.5923
3396.5	59.7647
3397	55.9068
3397.5	54.0895
3398	54.7961
3398.5	56.2561
3399	56.1173
3399.5	53.8619
3400	51.2664
3400.5	50.5139
3401	52.27
3401.5	55.3889
3402	58.0421
3402.5	58.7661
3403	57.2534
3403.5	54.6455
3404	52.6007
3404.5	51.7323
3405	51.29
3405.5	50.5077
3406	49.6508
3406.5	49.3416
3407	49.4229
3407.5	49.2271
3408	48.6311
3408.5	48.1041
3409	47.9243
3409.5	47.8436
3410	47.5043
3410.5	46.8993
3411	46.4448
3411.5	46.7053
3412	47.8595
3412.5	49.2581
3413	49.868
3413.5	49.3315
3414	48.3255
3414.5	47.7894
3415	48.0396
3415.5	48.7817
3416	49.6266
3416.5	50.2551
3417	50.3469
3417.5	49.8269
3418	49.1606
3418.5	48.8906
3419	48.9871
3419.5	48.9871
3420	48.722
3420.5	48.4682
3421	48.2718
3421.5	47.6517
3422	46.4179
3422.5	45.4977
3423	46.2386
3423.5	48.6498
3424	51.0923
3424.5	51.7803
3425	50.428
3425.5	48.3106
3426	46.9732
3426.5	47.0811
3427	48.2757
3427.5	49.7265
3428	50.6939
3428.5	50.7753
3429	49.8414
3429.5	48.1278
3430	46.4584
3430.5	46.0169
3431	47.4219
3431.5	50.0099
3432	52.3457
3432.5	53.4113
3433	53.1156
3433.5	51.8274
3434	50.1909
3434.5	49.2771
3435	49.8611
3435.5	51.2775
3436	51.8301
3436.5	50.7996
3437	49.3053
3437.5	48.6041
3438	48.3119
3438.5	47.5676
3439	46.8246
3439.5	47.1801
3440	48.301
3440.5	48.4884
3441	47.0951
3441.5	45.6202
3442	45.6722
3442.5	46.6447
3443	46.9356
3443.5	46.502
3444	46.8405
3444.5	48.5551
3445	50.178
3445.5	49.9836
3446	48.169
3446.5	46.4092
3447	45.7546
3447.5	45.9748
3448	46.6479
3448.5	47.6293
3449	48.5651
3449.5	48.9023
3450	48.633
3450.5	48.317
3451	48.1131
3451.5	47.5486
3452	46.6841
3452.5	46.5429
3453	47.8163
3453.5	49.5949
3454	50.0251
3454.5	48.2259
3455	45.2863
3455.5	43.3419
3456	43.4421
3456.5	44.666
3457	45.3526
3457.5	45.0959
3458	45.0321
3458.5	45.9746
3459	47.1385
3459.5	47.472
3460	47.4983
3460.5	48.2672
3461	49.3069
3461.5	49.2755
3462	48.2664
3462.5	47.8251
3463	48.5515
3463.5	49.3181
3464	49.4181
3464.5	49.8497
3465	51.3326
3465.5	52.7866
3466	52.7281
3466.5	51.2617
3467	49.7012
3467.5	48.8069
3468	48.2898
3468.5	47.7525
3469	47.3724
3469.5	47.833
3470	50.0574
3470.5	54.4767
3471	59.9458
3471.5	63.6691
3472	62.8984
3472.5	57.5385
3473	50.2778
3473.5	44.8442
3474	43.5054
3474.5	45.5197
3475	47.8844
3475.5	48.0403
3476	46.0972
3476.5	44.2859
3477	44.0663
3477.5	44.9329
3478	45.4114
3478.5	44.6768
3479	43.2036
3479.5	42.3254
3480	43.1123
3480.5	45.1962
3481	47.1223
3481.5	47.8704
3482	47.8414
3482.5	47.8979
3483	47.8689
3483.5	46.8641
3484	45.0626
3484.5	43.9031
3485	44.3542
3485.5	45.7542
3486	46.5837
3486.5	45.997
3487	44.3661
3487.5	42.6706
3488	41.6273
3488.5	41.4551
3489	42.1079
3489.5	43.3721
3490	44.6969
3490.5	45.2352
3491	44.4753
3491.5	42.9997
3492	41.94
3492.5	41.8871
3493	42.5598
3493.5	43.402
3494	44.0349
3494.5	44.1443
3495	43.6354
3495.5	43.0447
3496	43.0456
3496.5	43.3695
3497	42.8576
3497.5	40.9866
3498	38.7585
3498.5	37.5305
3499	37.4402
3499.5	37.933
3500	38.9317
3500.5	40.6685
3501	42.7186
3501.5	44.0786
3502	44.2423
3502.5	43.6222
3503	42.7987
3503.5	42.2185
3504	42.2415
3504.5	42.7765
3505	42.9917
3505.5	42.2064
3506	41.092
3506.5	40.8242
3507	41.3591
3507.5	41.4
3508	40.2564
3508.5	38.8611
3509	38.488
3509.5	39.1852
3510	40.334
3510.5	41.6566
3511	43.0198
3511.5	43.8493
3512	43.6493
3512.5	43.0332
3513	43.0926
3513.5	43.7829
3514	43.7282
3514.5	41.9555
3515	39.4575
3515.5	38.4796
3516	39.791
3516.5	41.7436
3517	42.322
3517.5	41.6217
3518	41.6476
3518.5	43.5374
3519	45.6067
3519.5	45.2081
3520	41.9511
3520.5	38.144
3521	36.4802
3521.5	37.5314
3522	39.3867
3522.5	39.6794
3523	38.1195
3523.5	36.5434
3524	36.7599
3524.5	38.4687
3525	39.6716
3525.5	39.0887
3526	37.5663
3526.5	36.5623
3527	36.5125
3527.5	36.8465
3528	37.0805
3528.5	37.4
3529	38.2214
3529.5	39.5064
3530	40.6113
3530.5	40.8015
3531	40.0448
3531.5	39.2029
3532	39.1457
3532.5	39.7719
3533	40.3166
3533.5	40.2456
3534	39.6105
3534.5	38.7406
3535	37.9952
3535.5	37.7002
3536	37.9356
3536.5	38.3269
3537	38.3555
3537.5	38.0237
3538	38.0554
3538.5	39.0533
3539	40.5491
3539.5	41.1256
3540	39.7062
3540.5	36.778
3541	34.1842
3541.5	33.4549
3542	34.7019
3542.5	36.9037
3543	38.6193
3543.5	38.7689
3544	37.6168
3544.5	36.9976
3545	38.2108
3545.5	40.1008
3546	40.1432
3546.5	37.8002
3547	35.6847
3547.5	36.2094
3548	38.5413
3548.5	40.1242
3549	39.8799
3549.5	38.9855
3550	39.0542
3550.5	40.3114
3551	41.7187
3551.5	41.7718
3552	39.6262
3552.5	36.1819
3553	33.7728
3553.5	33.6726
3554	34.8176
3554.5	35.3925
3555	35.1539
3555.5	35.4574
3556	37.1138
3556.5	39.2707
3557	40.8301
3557.5	41.5561
3558	41.6427
3558.5	40.9544
3559	39.5096
3559.5	38.0812
3560	37.4609
3560.5	37.382
3561	36.9528
3561.5	36.267
3562	36.5634
3562.5	38.1672
3563	39.5033
3563.5	38.7983
3564	36.3956
3564.5	34.622
3565	34.9923
3565.5	36.8025
3566	38.297
3566.5	38.469
3567	37.5767
3567.5	36.4203
3568	35.3521
3568.5	34.2024
3569	32.82
3569.5	31.6721
3570	31.7551
3570.5	33.4225
3571	35.6712
3571.5	36.8256
3572	36.2006
3572.5	34.9593
3573	34.9464
3573.5	36.5824
3574	38.4323
3574.5	38.5085
3575	36.0357
3575.5	32.3313
3576	29.8
3576.5	29.7967
3577	31.5642
3577.5	33.146
3578	33.5864
3578.5	33.8846
3579	35.038
3579.5	36.3781
3580	36.4573
3580.5	35.0444
3581	33.3132
3581.5	32.0212
3582	31.1549
3582.5	31.049
3583	32.2957
3583.5	34.1051
3584	34.457
3584.5	32.789
3585	30.9833
3585.5	31.0634
3586	32.7024
3586.5	34.0317
3587	34.5035
3587.5	34.9805
3588	35.9096
3588.5	36.4559
3589	35.7628
3589.5	34.2031
3590	32.9776
3590.5	32.9189
3591	33.6415
3591.5	33.8256
3592	32.8359
3592.5	31.6181
3593	31.7198
3593.5	33.3028
3594	34.7028
3594.5	34.7007
3595	34.0109
3595.5	34.153
3596	35.3989
3596.5	36.4314
3597	36.2669
3597.5	35.3806
3598	34.833
3598.5	34.8753
3599	34.7533
3599.5	33.8483
3600	32.3072
3600.5	30.6616
3601	29.3938
3601.5	28.9658
3602	29.6792
3602.5	31.2188
3603	32.5625
3603.5	32.8284
3604	32.2338
3604.5	31.7454
3605	31.8236
3605.5	32.0662
3606	31.947
3606.5	31.6951
3607	31.9823
3607.5	32.8369
3608	33.4339
3608.5	33.2082
3609	32.8984
3609.5	33.4583
3610	34.3842
3610.5	34.1834
3611	32.5438
3611.5	31.0609
3612	30.797
3612.5	30.8145
3613	29.7512
3613.5	27.9895
3614	27.2058
3614.5	28.0014
3615	29.4334
3615.5	30.4032
3616	30.8453
3616.5	31.4443
3617	32.3694
3617.5	32.7574
3618	31.5441
3618.5	29.1697
3619	27.8559
3619.5	29.1228
3620	31.9307
3620.5	33.7305
3621	33.4985
3621.5	32.5377
3622	32.1872
3622.5	32.4258
3623	32.5543
3623.5	32.3078
3624	31.7827
3624.5	31.1491
3625	30.8412
3625.5	31.2645
3626	31.8368
3626.5	31.4439
3627	29.9533
3627.5	28.7546
3628	29.0948
3628.5	30.3354
3629	30.9506
3629.5	30.3812
3630	29.4422
3630.5	28.9689
3631	28.8119
3631.5	28.458
3632	27.8414
3632.5	27.409
3633	27.5192
3633.5	28.1219
3634	28.9443
3634.5	29.8201
3635	30.6591
3635.5	31.0909
3636	30.5669
3636.5	29.1434
3637	27.9529
3637.5	28.0706
3638	29.1541
3638.5	29.7343
3639	28.8499
3639.5	27.3706
3640	26.9275
3640.5	28.0596
3641	29.5727
3641.5	29.8589
3642	29.0062
3642.5	28.4614
3643	28.952
3643.5	29.454
3644	28.9013
3644.5	27.8639
3645	27.423
3645.5	27.5179
3646	27.4223
3646.5	27.2529
3647	27.4662
3647.5	27.6617
3648	27.1261
3648.5	26.2412
3649	25.7728
3649.5	25.5268
3650	24.8925
3650.5	24.4886
3651	25.6217
3651.5	28.1805
3652	30.2112
3652.5	30.0433
3653	28.5564
3653.5	27.8955
3654	28.9182
3654.5	30.1795
3655	29.9713
3655.5	28.5624
3656	27.3741
3656.5	26.9892
3657	26.881
3657.5	26.8486
3658	26.9808
3658.5	26.6878
3659	25.4722
3659.5	24.5174
3660	25.3864
3660.5	27.5634
3661	28.7162
3661.5	28.081
3662	27.1093
3662.5	26.9554
3663	27
3663.5	26.4592
3664	25.9496
3664.5	26.392
3665	27.4914
3665.5	27.9215
3666	26.9575
3666.5	25.1669
3667	24.0678
3667.5	24.8642
3668	27.0784
3668.5	28.8033
3669	28.4399
3669.5	26.7672
3670	26.1741
3670.5	27.5145
3671	28.9098
3671.5	28.1359
3672	25.9746
3672.5	24.8281
3673	25.3513
3673.5	25.8082
3674	25.3263
3674.5	25.2401
3675	26.4722
3675.5	27.4708
3676	26.5489
3676.5	24.7606
3677	24.6401
3677.5	26.836
3678	29.0369
3678.5	29.1292
3679	27.4281
3679.5	26.2362
3680	27.1242
3680.5	29.2519
3681	30.3714
3681.5	29.2799
3682	27.47
3682.5	27.0606
3683	28.2869
3683.5	29.3593
3684	28.998
3684.5	27.8153
3685	26.8391
3685.5	26.0169
3686	24.9944
3686.5	24.5084
3687	25.5267
3687.5	27.426
3688	28.4147
3688.5	28.1024
3689	27.8395
3689.5	28.5593
3690	29.3267
3690.5	29.1227
3691	28.2807
3691.5	27.4835
3692	26.3721
3692.5	24.6339
3693	23.4008
3693.5	24.1121
3694	25.9478
3694.5	26.8398
3695	26.1504
3695.5	25.3311
3696	25.3202
3696.5	25.2869
3697	24.6277
3697.5	24.5818
3698	26.1853
3698.5	28.145
3699	28.2633
3699.5	26.75
3700	25.8588
