#Imported=	16.12.2021 13:56:04
50	5.17121
50.5	5.07054
51	4.39961
51.5	3.31574
52	2.13456
52.5	1.24757
53	1.04227
53.5	1.68233
54	3.25283
54.5	5.31946
55	7.28324
55.5	8.66642
56	9.21537
56.5	9.06027
57	8.48251
57.5	8.05032
58	8.13202
58.5	8.90949
59	10.3329
59.5	12.1415
60	14.1113
60.5	16.0067
61	17.7495
61.5	19.3616
62	20.9363
62.5	22.5917
63	24.4464
63.5	26.6117
64	29.0314
64.5	31.5845
65	34.0856
65.5	36.38
66	38.3716
66.5	40.0804
67	41.7446
67.5	43.6163
68	45.9005
68.5	48.5735
69	51.5522
69.5	54.6506
70	57.6416
70.5	60.4099
71	62.8857
71.5	65.0743
72	66.8936
72.5	68.1418
73	68.7152
73.5	68.5733
74	67.8581
74.5	66.9824
75	66.296
75.5	66.2158
76	66.8193
76.5	68.0117
77	69.4008
77.5	70.522
78	71.0574
78.5	70.6602
79	69.4904
79.5	67.7339
80	65.8538
80.5	64.3027
81	63.3241
81.5	63.1043
82	63.3358
82.5	63.6535
83	63.4215
83.5	62.4441
84	60.7798
84.5	58.7293
85	56.8907
85.5	55.7166
86	55.6903
86.5	56.3638
87	57.1978
87.5	57.5374
88	57.043
88.5	55.693
89	53.7321
89.5	51.8847
90	50.6268
90.5	50.2541
91	50.5345
91.5	51.1083
92	51.5171
92.5	51.4093
93	50.7971
93.5	49.9249
94	49.1956
94.5	48.9091
95	49.3265
95.5	50.3601
96	51.7003
96.5	52.9064
97	53.6504
97.5	53.8191
98	53.3959
98.5	52.6396
99	51.8647
99.5	51.3329
100	51.0818
100.5	51.0141
101	51.0267
101.5	51.0606
102	51.1826
102.5	51.6579
103	52.6701
103.5	54.208
104	56.1822
104.5	58.3343
105	60.4389
105.5	62.4206
106	64.4797
106.5	66.8859
107	69.8418
107.5	73.2729
108	76.8173
108.5	79.9727
109	82.179
109.5	83.4234
110	83.9816
110.5	84.3859
111	85.1201
111.5	86.4634
112	88.35
112.5	90.2933
113	91.7667
113.5	92.4404
114	92.4371
114.5	92.0174
115	91.6538
115.5	91.7787
116	92.6485
116.5	94.1781
117	96.0017
117.5	97.7896
118	99.1651
118.5	99.9564
119	100.028
119.5	99.4455
120	98.5754
120.5	97.7079
121	97.2184
121.5	97.3232
122	98.1967
122.5	100.023
123	102.533
123.5	105.587
124	109.119
124.5	112.974
125	117.109
125.5	121.473
126	125.85
126.5	129.939
127	133.208
127.5	135.341
128	135.984
128.5	134.577
129	131.376
129.5	126.566
130	120.644
130.5	114.49
131	108.68
131.5	103.895
132	100.239
132.5	97.7128
133	96.207
133.5	95.112
134	94.1761
134.5	93.2642
135	92.364
135.5	91.5261
136	90.8012
136.5	90.1084
137	89.3306
137.5	88.3658
138	87.2736
138.5	86.1968
139	85.4041
139.5	85.1003
140	85.3419
140.5	86.0372
141	86.9073
141.5	87.7414
142	88.3515
142.5	88.684
143	88.7303
143.5	88.4534
144	87.8926
144.5	87.0878
145	86.1297
145.5	85.2442
146	84.6613
146.5	84.6631
147	85.1861
147.5	85.8918
148	86.346
148.5	86.2072
149	85.4215
149.5	84.1673
150	83.0378
150.5	82.6038
151	83.1787
151.5	84.5241
152	86.114
152.5	87.3315
153	87.71
153.5	87.1945
154	86.0727
154.5	84.9576
155	84.2256
155.5	84.0469
156	84.2718
156.5	84.586
157	84.6924
157.5	84.4339
158	83.9321
158.5	83.2993
159	82.6276
159.5	81.9348
160	81.1932
160.5	80.4161
161	79.7277
161.5	79.3207
162	79.3302
162.5	79.6874
163	80.246
163.5	80.7538
164	81.0318
164.5	81.0372
165	80.9597
165.5	80.993
166	81.209
166.5	81.5112
167	81.6802
167.5	81.5081
168	80.9095
168.5	80.1853
169	79.6807
169.5	79.7287
170	80.3281
170.5	81.3485
171	82.4885
171.5	83.4305
172	84.0851
172.5	84.5985
173	85.2113
173.5	86.0664
174	87.1855
174.5	88.3622
175	89.3585
175.5	89.8879
176	90.0041
176.5	89.7711
177	89.2523
177.5	88.5606
178	87.7231
178.5	86.772
179	85.8744
179.5	85.2571
180	85.2461
180.5	85.8409
181	86.9451
181.5	88.2869
182	89.4228
182.5	90.0304
183	89.9764
183.5	89.6786
184	89.5321
184.5	90.0658
185	91.4138
185.5	93.5326
186	96.2034
186.5	98.8603
187	101.147
187.5	102.834
188	104.09
188.5	105.164
189	106.411
189.5	108.098
190	110.363
190.5	113.153
191	116.158
191.5	119.135
192	121.845
192.5	124.197
193	126.18
193.5	127.761
194	129.013
194.5	130.028
195	130.92
195.5	131.958
196	133.454
196.5	135.891
197	139.48
197.5	144.184
198	149.588
198.5	154.901
199	159.506
199.5	162.852
200	164.968
200.5	166.251
201	167.232
201.5	168.541
202	170.356
202.5	172.607
203	174.975
203.5	177.194
204	179.125
204.5	180.853
205	182.583
205.5	184.429
206	186.254
206.5	187.758
207	188.494
207.5	188.12
208	186.611
208.5	183.977
209	180.54
209.5	176.846
210	173.251
210.5	170.044
211	167.328
211.5	165.158
212	163.434
212.5	161.884
213	160.154
213.5	157.871
214	154.9
214.5	151.198
215	146.966
215.5	142.635
216	138.618
216.5	135.317
217	132.683
217.5	130.486
218	128.353
218.5	125.965
219	123.183
219.5	120.102
220	117.087
220.5	114.598
221	113.004
221.5	112.191
222	111.976
222.5	112.03
223	111.991
223.5	111.671
224	110.994
224.5	110.079
225	108.968
225.5	107.528
226	105.634
226.5	103.15
227	100.029
227.5	96.6521
228	93.4896
228.5	91.3265
229	90.2907
229.5	90.3219
230	91.128
230.5	92.0242
231	92.5644
231.5	92.3463
232	91.4964
232.5	90.2473
233	88.8991
233.5	87.6453
234	86.5331
234.5	85.5894
235	84.8058
235.5	84.2471
236	84.0947
236.5	84.3486
237	84.8839
237.5	85.4756
238	85.8473
238.5	85.8367
239	85.3459
239.5	84.5818
240	83.7868
240.5	83.2686
241	83.108
241.5	83.262
242	83.6304
242.5	84.0295
243	84.3497
243.5	84.5209
244	84.5658
244.5	84.5236
245	84.4089
245.5	84.224
246	83.9658
246.5	83.6443
247	83.3224
247.5	83.0736
248	82.9799
248.5	83.0195
249	83.0597
249.5	82.9097
250	82.4415
250.5	81.6647
251	80.7096
251.5	79.8771
252	79.4385
252.5	79.6307
253	80.2593
253.5	80.9859
254	81.4478
254.5	81.431
255	80.9987
255.5	80.3813
256	79.9723
256.5	80.0562
257	80.7111
257.5	81.7265
258	82.8194
258.5	83.7648
259	84.4361
259.5	84.8491
260	85.035
260.5	85.0689
261	85.0742
261.5	85.2347
262	85.8102
262.5	86.9587
263	88.775
263.5	91.0598
264	93.3196
264.5	94.9384
265	95.3035
265.5	94.5517
266	92.9454
266.5	91.0026
267	89.1883
267.5	87.6675
268	86.2907
268.5	84.7011
269	82.5538
269.5	79.838
270	76.95
270.5	74.337
271	72.5091
271.5	71.5993
272	71.6436
272.5	72.5143
273	73.7838
273.5	75.0957
274	76.053
274.5	76.4591
275	76.1972
275.5	75.2744
276	74.0554
276.5	72.8916
277	72.2229
277.5	72.1677
278	72.587
278.5	73.1645
279	73.5679
279.5	73.6586
280	73.4337
280.5	73.106
281	72.807
281.5	72.5597
282	72.2255
282.5	71.7067
283	71.0216
283.5	70.3976
284	70.0471
284.5	70.1709
285	70.5953
285.5	71.0637
286	71.1925
286.5	70.9731
287	70.6513
287.5	70.6954
288	71.362
288.5	72.6381
289	74.2076
289.5	75.4603
290	75.9595
290.5	75.3891
291	74.275
291.5	73.0833
292	72.2233
292.5	71.7267
293	71.3884
293.5	70.8697
294	69.99
294.5	68.8287
295	67.7214
295.5	66.9628
296	66.576
296.5	66.374
297	66.0145
297.5	65.3143
298	64.2983
298.5	63.3329
299	62.8399
299.5	63.1334
300	63.9684
300.5	64.9081
301	65.4705
301.5	65.445
302	64.9973
302.5	64.5688
303	64.7335
303.5	65.8326
304	67.8471
304.5	70.2006
305	72.2701
305.5	73.4594
306	73.5246
306.5	72.642
307	71.1105
307.5	69.4771
308	68.218
308.5	67.6266
309	67.6571
309.5	68.0316
310	68.438
310.5	68.5514
311	68.2494
311.5	67.5566
312	66.7409
312.5	66.1776
313	66.165
313.5	66.7242
314	67.5603
314.5	68.2879
315	68.4726
315.5	67.9646
316	66.7764
316.5	65.2179
317	63.7916
317.5	62.921
318	62.831
318.5	63.3709
319	64.3571
319.5	65.5083
320	66.5707
320.5	67.4136
321	68.0057
321.5	68.463
322	68.9144
322.5	69.4821
323	70.1775
323.5	70.9417
324	71.6111
324.5	72.0087
325	71.9613
325.5	71.3039
326	70.1489
326.5	68.6527
327	67.1326
327.5	65.9022
328	65.2042
328.5	65.3026
329	66.1021
329.5	67.5069
330	69.3269
330.5	71.1719
331	72.7042
331.5	73.5647
332	73.781
332.5	73.4314
333	72.6738
333.5	71.8414
334	71.1273
334.5	70.6944
335	70.4968
335.5	70.4681
336	70.5231
336.5	70.5739
337	70.57
337.5	70.4005
338	69.9697
338.5	69.1796
339	67.9262
339.5	66.3951
340	64.8504
340.5	63.8014
341	63.5141
341.5	64.0255
342	65.2193
342.5	66.6028
343	67.7929
343.5	68.4607
344	68.6512
344.5	68.5652
345	68.4864
345.5	68.6241
346	68.9624
346.5	69.4056
347	69.8509
347.5	70.3089
348	70.8999
348.5	71.7177
349	72.7343
349.5	73.7597
350	74.471
350.5	74.7069
351	74.5821
351.5	74.602
352	75.3234
352.5	77.38
353	80.8837
353.5	85.5021
354	90.7006
354.5	95.626
355	99.5495
355.5	101.824
356	102.261
356.5	100.98
357	97.995
357.5	93.7725
358	88.9948
358.5	84.3777
359	80.6353
359.5	78.0557
360	76.6964
360.5	75.943
361	75.1756
361.5	74.0601
362	72.6822
362.5	71.4669
363	70.9288
363.5	71.353
364	72.4703
364.5	73.7566
365	74.4425
365.5	74.2459
366	73.2383
366.5	71.8678
367	70.6434
367.5	69.8434
368	69.4677
368.5	69.2543
369	69.0131
369.5	68.7372
370	68.6604
370.5	69.0535
371	70.0046
371.5	71.2079
372	72.2577
372.5	72.672
373	72.3406
373.5	71.335
374	69.9613
374.5	68.6432
375	67.6331
375.5	66.9948
376	66.5705
376.5	66.2745
377	66.0942
377.5	66.0491
378	66.175
378.5	66.4625
379	66.7865
379.5	67.0306
380	67.087
380.5	67.0119
381	66.9144
381.5	66.9422
382	67.1632
382.5	67.6009
383	68.2601
383.5	69.0425
384	69.8788
384.5	70.6801
385	71.384
385.5	71.9757
386	72.5277
386.5	73.182
387	74.04
387.5	75.1414
388	76.2822
388.5	77.2001
389	77.4919
389.5	77.081
390	76.0481
390.5	74.644
391	73.3204
391.5	72.2779
392	71.5564
392.5	70.9621
393	70.3611
393.5	69.7399
394	69.2371
394.5	69.0073
395	69.1686
395.5	69.5539
396	69.9158
396.5	70.0468
397	70.0284
397.5	70.0889
398	70.507
398.5	71.2754
399	72.1211
399.5	72.5138
400	72.0409
400.5	70.6365
401	68.5125
401.5	66.3376
402	64.5786
402.5	63.3786
403	62.4219
403.5	61.3275
404	59.8722
404.5	58.283
405	57.0818
405.5	57.0017
406	58.4046
406.5	61.0837
407	64.454
407.5	67.5515
408	69.7817
408.5	70.8134
409	70.8649
409.5	70.445
410	70.0067
410.5	69.8783
411	70.0718
411.5	70.4063
412	70.53
412.5	70.1881
413	69.3033
413.5	68.0971
414	66.9953
414.5	66.4937
415	67.0115
415.5	68.5403
416	70.9063
416.5	73.5539
417	75.8119
417.5	77.0797
418	76.9421
418.5	75.7434
419	73.8401
419.5	71.7815
420	70.0363
420.5	68.8782
421	68.3851
421.5	68.3201
422	68.4657
422.5	68.5956
423	68.6138
423.5	68.5638
424	68.609
424.5	68.8619
425	69.3617
425.5	70.061
426	70.8255
426.5	71.5927
427	72.3855
427.5	73.2862
428	74.3565
428.5	75.5372
429	76.5519
429.5	77.0487
430	76.6611
430.5	75.5354
431	73.9291
431.5	72.2955
432	71.0344
432.5	70.3024
433	70.0845
433.5	70.062
434	70.0664
434.5	70.1134
435	70.4186
435.5	71.1823
436	72.468
436.5	73.8623
437	74.9244
437.5	75.0921
438	74.4235
438.5	73.228
439	72.1725
439.5	71.8894
440	72.6612
440.5	74.4816
441	76.5849
441.5	78.3096
442	79.111
442.5	79.1375
443	78.7478
443.5	78.4217
444	78.4516
444.5	78.7978
445	79.1563
445.5	79.1592
446	78.6856
446.5	77.9289
447	77.5134
447.5	77.9614
448	79.6867
448.5	82.3798
449	85.506
449.5	88.4303
450	90.7469
450.5	92.4764
451	93.9594
451.5	95.7926
452	98.3809
452.5	101.982
453	106.319
453.5	110.93
454	115.468
454.5	119.812
455	124.088
455.5	128.57
456	133.547
456.5	139.201
457	145.846
457.5	153.777
458	163.321
458.5	175.3
459	190.408
459.5	208.802
460	230.805
460.5	256.119
461	284.034
461.5	314.245
462	346.093
462.5	378.638
463	410.627
463.5	440.032
464	464.839
464.5	482.058
465	489.066
465.5	485.619
466	471.652
466.5	448.807
467	420.436
467.5	388.761
468	356.116
468.5	324.209
469	294.16
469.5	266.881
470	242.561
470.5	221.731
471	204.745
471.5	190.924
472	179.749
472.5	170.326
473	161.64
473.5	153.26
474	145.094
474.5	137.302
475	130.208
475.5	124.196
476	119.254
476.5	115.395
477	112.571
477.5	110.419
478	108.723
478.5	107.249
479	105.803
479.5	104.37
480	103.064
480.5	102.001
481	101.227
481.5	100.634
482	99.9015
482.5	98.727
483	96.8136
483.5	94.3581
484	91.662
484.5	89.2154
485	87.3024
485.5	85.9046
486	84.8264
486.5	83.7254
487	82.4788
487.5	81.1645
488	80.0424
488.5	79.328
489	79.2193
489.5	79.5472
490	80.1551
490.5	80.9293
491	81.8065
491.5	82.8055
492	83.8645
492.5	84.7373
493	85.1223
493.5	84.6046
494	83.2419
494.5	81.2807
495	79.1818
495.5	77.4994
496	76.5476
496.5	76.5284
497	77.1428
497.5	78.0531
498	78.9061
498.5	79.4378
499	79.5656
499.5	79.2156
500	78.4807
500.5	77.4747
501	76.3347
501.5	75.2644
502	74.417
502.5	73.9327
503	73.7898
503.5	73.8925
504	74.1458
504.5	74.4458
505	74.7584
505.5	75.1051
506	75.5141
506.5	75.9894
507	76.525
507.5	77.103
508	77.7197
508.5	78.3914
509	79.1112
509.5	79.8211
510	80.3733
510.5	80.5508
511	80.1792
511.5	79.0592
512	77.2272
512.5	75.0032
513	72.8764
513.5	71.4429
514	71.0406
514.5	71.8881
515	73.7542
515.5	76.0313
516	78.0895
516.5	79.3193
517	79.5321
517.5	78.6949
518	77.0818
518.5	75.1566
519	73.2578
519.5	71.6832
520	70.5544
520.5	69.9557
521	69.9178
521.5	70.2919
522	70.9319
522.5	71.6049
523	72.1072
523.5	72.327
524	72.2608
524.5	72.0539
525	71.8248
525.5	71.6638
526	71.5754
526.5	71.5385
527	71.5361
527.5	71.5567
528	71.5741
528.5	71.4969
529	71.2353
529.5	70.7348
530	70.0474
530.5	69.3974
531	68.9976
531.5	69.0185
532	69.2991
532.5	69.5883
533	69.5455
533.5	69.1317
534	68.5431
534.5	68.2894
535	68.7416
535.5	69.922
536	71.4803
536.5	72.6998
537	73.0849
537.5	72.2665
538	70.7685
538.5	69.1667
539	68.243
539.5	68.2738
540	69.2083
540.5	70.7321
541	72.2091
541.5	73.2483
542	73.5311
542.5	73.1959
543	72.4367
543.5	71.4631
544	70.5036
544.5	69.6842
545	69.1218
545.5	68.797
546	68.6486
546.5	68.5716
547	68.4289
547.5	68.1517
548	67.7344
548.5	67.2984
549	66.9841
549.5	66.9677
550	67.2982
550.5	67.9548
551	68.8796
551.5	69.9075
552	70.8924
552.5	71.6492
553	72.039
553.5	71.988
554	71.4297
554.5	70.5165
555	69.4822
555.5	68.6184
556	68.1572
556.5	68.1478
557	68.5136
557.5	68.944
558	69.1304
558.5	68.808
559	67.9844
559.5	66.9375
560	66.0353
560.5	65.6187
561	65.7834
561.5	66.4833
562	67.4109
562.5	68.2281
563	68.6786
563.5	68.7181
564	68.5354
564.5	68.3941
565	68.5583
565.5	69.0832
566	69.8684
566.5	70.6113
567	71.0231
567.5	70.908
568	70.3693
568.5	69.7434
569	69.3613
569.5	69.4353
570	69.8395
570.5	70.289
571	70.3891
571.5	69.9858
572	69.1452
572.5	68.2293
573	67.6594
573.5	67.7073
574	68.381
574.5	69.3104
575	70.1414
575.5	70.5855
576	70.6782
576.5	70.563
577	70.3811
577.5	70.121
578	69.6318
578.5	68.7401
579	67.5642
579.5	66.3845
580	65.6961
580.5	65.7469
581	66.5652
581.5	67.8616
582	69.0218
582.5	69.588
583	69.2128
583.5	68.184
584	66.8764
584.5	65.8294
585	65.3599
585.5	65.5407
586	66.2079
586.5	66.8943
587	67.2588
587.5	66.9622
588	66.1405
588.5	65.0538
589	64.2194
589.5	64.0711
590	64.8459
590.5	66.6469
591	68.9194
591.5	71.141
592	72.6316
592.5	73.1459
593	72.6723
593.5	71.3366
594	69.6796
594.5	68.0961
595	67.0021
595.5	66.5133
596	66.6352
596.5	67.3464
597	68.3731
597.5	69.4848
598	70.4336
598.5	71.0764
599	71.3743
599.5	71.3193
600	71.0482
600.5	70.681
601	70.3353
601.5	70.1039
602	70.0198
602.5	70.0571
603	70.0616
603.5	69.845
604	69.1761
604.5	68.0461
605	66.6677
605.5	65.4332
606	64.7379
606.5	64.7392
607	65.4277
607.5	66.4303
608	67.3597
608.5	67.9237
609	68.0907
609.5	68.0174
610	67.8621
610.5	67.7099
611	67.5143
611.5	67.166
612	66.6424
612.5	66.0689
613	65.6709
613.5	65.6524
614	66.0229
614.5	66.678
615	67.3754
615.5	67.9507
616	68.3889
616.5	68.8168
617	69.3608
617.5	70.0411
618	70.6848
618.5	71.021
619	70.7463
619.5	69.7064
620	68.1105
620.5	66.3
621	64.8252
621.5	64.0897
622	64.3582
622.5	65.5729
623	67.2278
623.5	68.8071
624	69.771
624.5	69.9791
625	69.4901
625.5	68.6073
626	67.7384
626.5	67.0923
627	66.7347
627.5	66.57
628	66.5656
628.5	66.7707
629	67.2103
629.5	67.8773
630	68.6315
630.5	69.2364
631	69.5271
631.5	69.4769
632	69.3511
632.5	69.4229
633	69.9198
633.5	70.674
634	71.3537
634.5	71.4266
635	70.7219
635.5	69.303
636	67.5179
636.5	65.9358
637	64.8991
637.5	64.5764
638	64.6501
638.5	64.8763
639	65.0779
639.5	65.2668
640	65.5555
640.5	66.0878
641	66.7934
641.5	67.5134
642	67.9775
642.5	68.0877
643	67.8994
643.5	67.6432
644	67.6286
644.5	68.0105
645	68.7801
645.5	69.5796
646	70.0523
646.5	69.8089
647	68.9062
647.5	67.5803
648	66.2083
648.5	65.1469
649	64.5466
649.5	64.4583
650	64.7404
650.5	65.3301
651	66.2554
651.5	67.4196
652	68.6395
652.5	69.5863
653	70.0103
653.5	69.8924
654	69.4405
654.5	69.1322
655	69.2978
655.5	70.0461
656	70.9964
656.5	71.6514
657	71.5375
657.5	70.6522
658	69.3503
658.5	68.0972
659	67.2374
659.5	66.7651
660	66.4903
660.5	66.1753
661	65.8065
661.5	65.6088
662	65.8624
662.5	66.5859
663	67.5585
663.5	68.3119
664	68.5019
664.5	67.9461
665	66.8276
665.5	65.5314
666	64.4178
666.5	63.7724
667	63.6825
667.5	64.2373
668	65.4067
668.5	66.9865
669	68.7166
669.5	70.1749
670	71.0305
670.5	71.0392
671	70.233
671.5	68.9915
672	67.6855
672.5	66.6855
673	66.1185
673.5	65.9945
674	66.1975
674.5	66.5193
675	66.799
675.5	66.8631
676	66.6365
676.5	66.1075
677	65.3947
677.5	64.7418
678	64.3691
678.5	64.4418
679	64.8566
679.5	65.4576
680	66.0268
680.5	66.4269
681	66.6092
681.5	66.5513
682	66.2844
682.5	65.7794
683	65.0109
683.5	64.1266
684	63.3355
684.5	62.972
685	63.1469
685.5	63.8404
686	64.8673
686.5	65.8768
687	66.687
687.5	67.2394
688	67.6869
688.5	68.1109
689	68.4325
689.5	68.4611
690	68.0289
690.5	67.0952
691	66.1119
691.5	65.5804
692	66.0979
692.5	67.5007
693	69.3409
693.5	70.7681
694	71.1546
694.5	70.315
695	68.4382
695.5	66.4047
696	64.8843
696.5	64.4639
697	64.9863
697.5	66.1076
698	67.4054
698.5	68.516
699	69.3126
699.5	69.7147
700	69.7501
700.5	69.3867
701	68.5208
701.5	67.2713
702	65.8553
702.5	64.6237
703	63.8891
703.5	63.7918
704	64.3976
704.5	65.4575
705	66.6994
705.5	67.8372
706	68.6126
706.5	68.8535
707	68.3503
707.5	67.1639
708	65.536
708.5	63.8598
709	62.6453
709.5	62.1937
710	62.6804
710.5	63.8435
711	65.2605
711.5	66.5382
712	67.4256
712.5	67.9117
713	68.043
713.5	67.9279
714	67.6268
714.5	67.1241
715	66.4587
715.5	65.7529
716	65.181
716.5	64.8915
717	64.8728
717.5	65.0139
718	65.1031
718.5	65.0042
719	64.6916
719.5	64.2787
720	63.9078
720.5	63.6451
721	63.4564
721.5	63.2734
722	63.1178
722.5	63.1569
723	63.5674
723.5	64.4616
724	65.6794
724.5	66.7644
725	67.2023
725.5	66.585
726	65.1125
726.5	63.2129
727	61.6087
727.5	60.7946
728	60.9624
728.5	61.9293
729	63.1146
729.5	64.1007
730	64.618
730.5	64.761
731	64.6801
731.5	64.5464
732	64.4642
732.5	64.4689
733	64.6116
733.5	64.9245
734	65.4405
734.5	66.118
735	66.7548
735.5	67.1299
736	66.9905
736.5	66.4047
737	65.5265
737.5	64.6227
738	63.9053
738.5	63.4173
739	63.0924
739.5	62.8016
740	62.563
740.5	62.6
741	63.0804
741.5	64.0467
742	65.2851
742.5	66.2498
743	66.5171
743.5	65.7886
744	64.5773
744.5	63.5316
745	63.5047
745.5	64.5965
746	66.419
746.5	68.0469
747	68.5877
747.5	67.7026
748	65.5549
748.5	63.2411
749	61.6876
749.5	61.7129
750	63.0579
750.5	65.0789
751	66.8809
751.5	67.803
752	67.6984
752.5	66.7267
753	65.5309
753.5	64.6196
754	64.4086
754.5	64.8633
755	65.725
755.5	66.6198
756	67.1647
756.5	67.1851
757	66.629
757.5	65.7401
758	64.7876
758.5	63.9989
759	63.4768
759.5	63.2278
760	63.3075
760.5	63.7525
761	64.5602
761.5	65.6531
762	66.7081
762.5	67.35
763	67.2143
763.5	66.3243
764	65.0828
764.5	64.0423
765	63.6668
765.5	63.9566
766	64.593
766.5	64.9774
767	64.7383
767.5	63.8015
768	62.5487
768.5	61.492
769	61.0014
769.5	61.1108
770	61.5134
770.5	61.8937
771	62.0289
771.5	61.9442
772	61.7541
772.5	61.5827
773	61.4488
773.5	61.2996
774	61.0872
774.5	60.8471
775	60.6581
775.5	60.5762
776	60.5396
776.5	60.4248
777	60.1209
777.5	59.7053
778	59.3988
778.5	59.5459
779	60.2548
779.5	61.4433
780	62.7237
780.5	63.614
781	63.8058
781.5	63.2658
782	62.4707
782.5	61.8962
783	61.9788
783.5	62.6144
784	63.4664
784.5	63.9547
785	63.7596
785.5	62.8579
786	61.5625
786.5	60.4649
787	59.9621
787.5	60.3069
788	61.1638
788.5	62.1694
789	62.863
789.5	63.0518
790	62.72
790.5	61.9595
791	61.0758
791.5	60.2621
792	59.7324
792.5	59.5499
793	59.7741
793.5	60.5376
794	61.7721
794.5	63.439
795	65.4564
795.5	67.5117
796	69.2923
796.5	70.311
797	70.3998
797.5	69.5276
798	67.7646
798.5	65.6235
799	63.5101
799.5	61.8409
800	60.7707
800.5	60.3407
801	60.6358
801.5	61.5016
802	62.775
802.5	64.2039
803	65.4202
803.5	66.1962
804	66.481
804.5	66.6712
805	67.2487
805.5	68.6907
806	70.8662
806.5	73.2302
807	74.9358
807.5	75.4372
808	74.7934
808.5	73.4867
809	72.3812
809.5	71.9542
810	72.2252
810.5	72.586
811	72.4218
811.5	71.3289
812	69.5376
812.5	67.5874
813	65.9836
813.5	64.8929
814	64.101
814.5	63.3009
815	62.3119
815.5	61.2509
816	60.4255
816.5	60.1181
817	60.3402
817.5	60.9631
818	61.687
818.5	62.2677
819	62.5521
819.5	62.4922
820	62.1462
820.5	61.5836
821	60.9904
821.5	60.6028
822	60.6566
822.5	61.2359
823	62.1264
823.5	63.0174
824	63.5595
824.5	63.6648
825	63.4101
825.5	63.0074
826	62.5999
826.5	62.1286
827	61.4093
827.5	60.4099
828	59.3144
828.5	58.6045
829	58.6566
829.5	59.6359
830	61.2877
830.5	62.9165
831	63.9301
831.5	63.9055
832	63.0837
832.5	61.7983
833	60.4371
833.5	59.1955
834	58.0546
834.5	56.9612
835	55.9988
835.5	55.4408
836	55.7553
836.5	56.9858
837	58.9811
837.5	61.2329
838	63.022
838.5	63.8545
839	63.3545
839.5	61.964
840	60.1399
840.5	58.4884
841	57.3884
841.5	56.9468
842	57.132
842.5	57.5846
843	58.1108
843.5	58.6102
844	59.1017
844.5	59.6139
845	60.0908
845.5	60.3932
846	60.3895
846.5	59.9887
847	59.397
847.5	58.8463
848	58.5791
848.5	58.5648
849	58.6286
849.5	58.5168
850	58.1756
850.5	57.7613
851	57.6072
851.5	57.8829
852	58.4933
852.5	59.0868
853	59.2858
853.5	59.014
854	58.5374
854.5	58.4087
855	58.9706
855.5	60.274
856	61.7566
856.5	62.8228
857	62.9844
857.5	62.4073
858	61.5804
858.5	61.0485
859	60.9945
859.5	61.1483
860	60.9537
860.5	59.9903
861	58.2939
861.5	56.2554
862	54.5558
862.5	53.6242
863	53.6707
863.5	54.4351
864	55.5489
864.5	56.8041
865	58.1245
865.5	59.4932
866	60.7709
866.5	61.6131
867	61.69
867.5	60.7221
868	58.9188
868.5	56.898
869	55.3723
869.5	54.8692
870	55.3103
870.5	56.3101
871	57.1658
871.5	57.391
872	56.7932
872.5	55.6112
873	54.3436
873.5	53.4234
874	53.1523
874.5	53.5036
875	54.3911
875.5	55.5895
876	56.8036
876.5	57.7936
877	58.3735
877.5	58.5794
878	58.5098
878.5	58.3329
879	58.1661
879.5	57.9952
880	57.728
880.5	57.3446
881	56.9384
881.5	56.7323
882	56.8498
882.5	57.2701
883	57.7624
883.5	58.0347
884	57.9469
884.5	57.5696
885	57.2087
885.5	57.0932
886	57.3385
886.5	57.7841
887	58.2871
887.5	58.7727
888	59.2794
888.5	59.8403
889	60.3496
889.5	60.572
890	60.2729
890.5	59.2597
891	57.8215
891.5	56.2765
892	55.0417
892.5	54.2875
893	54.0564
893.5	54.4021
894	55.1624
894.5	56.2416
895	57.4195
895.5	58.3024
896	58.5504
896.5	57.8528
897	56.5885
897.5	55.2942
898	54.755
898.5	55.2433
899	56.5968
899.5	58.2283
900	59.3313
900.5	59.4927
901	58.628
901.5	57.4108
902	56.4936
902.5	56.4789
903	57.2974
903.5	58.5527
904	59.6203
904.5	60.0076
905	59.5952
905.5	58.5179
906	57.3114
906.5	56.4089
907	56.1573
907.5	56.5136
908	57.2675
908.5	58.1687
909	58.9485
909.5	59.4471
910	59.4967
910.5	59.0589
911	58.1809
911.5	56.9554
912	55.6528
912.5	54.5334
913	53.8383
913.5	53.6243
914	53.8097
914.5	54.3376
915	55.1166
915.5	56.0725
916	57.1222
916.5	58.0833
917	58.7769
917.5	59.0659
918	59.0435
918.5	58.9794
919	59.158
919.5	59.6921
920	60.3959
920.5	60.9281
921	60.9582
921.5	60.4761
922	59.679
922.5	58.9613
923	58.5723
923.5	58.5237
924	58.528
924.5	58.2347
925	57.4123
925.5	56.1094
926	54.6836
926.5	53.531
927	52.9919
927.5	53.0558
928	53.6053
928.5	54.386
929	55.1459
929.5	55.7743
930	56.2577
930.5	56.6536
931	56.9547
931.5	57.0616
932	56.8897
932.5	56.3862
933	55.6427
933.5	54.9497
934	54.5963
934.5	54.8267
935	55.487
935.5	56.2843
936	56.7418
936.5	56.6088
937	55.8783
937.5	54.8606
938	54.1072
938.5	54.0027
939	54.7427
939.5	55.8753
940	56.8759
940.5	57.0667
941	56.3354
941.5	54.8488
942	53.0724
942.5	51.5878
943	50.6497
943.5	50.2996
944	50.1729
944.5	50.0714
945	50.0225
945.5	50.2712
946	51.0607
946.5	52.5205
947	54.1947
947.5	55.5904
948	56.1217
948.5	55.8173
949	54.9582
949.5	54.0141
950	53.3638
950.5	53.0429
951	52.8462
951.5	52.4902
952	51.9183
952.5	51.3267
953	51.0382
953.5	51.2053
954	51.7623
954.5	52.3099
955	52.5454
955.5	52.3675
956	52.1275
956.5	52.2602
957	53.1624
957.5	54.6493
958	56.2056
958.5	57.0918
959	56.9209
959.5	55.818
960	54.257
960.5	52.9845
961	52.4147
961.5	52.6583
962	53.3063
962.5	53.9123
963	54.1722
963.5	54.1112
964	53.9253
964.5	53.7579
965	53.5983
965.5	53.3257
966	52.8302
966.5	52.1933
967	51.6385
967.5	51.4126
968	51.5485
968.5	51.7945
969	51.7352
969.5	51.0158
970	49.6681
970.5	48.008
971	46.6636
971.5	46.0957
972	46.5347
972.5	47.7122
973	49.0483
973.5	50.0666
974	50.5708
974.5	50.7989
975	51.109
975.5	51.7877
976	52.7425
976.5	53.6491
977	54.0832
977.5	53.9525
978	53.4257
978.5	52.9544
979	52.8699
979.5	53.2349
980	53.7987
980.5	54.1886
981	54.193
981.5	53.8387
982	53.4092
982.5	53.1268
983	53.0809
983.5	53.1256
984	53.099
984.5	52.912
985	52.6789
985.5	52.5724
986	52.749
986.5	53.1199
987	53.4924
987.5	53.5769
988	53.2804
988.5	52.6522
989	51.9059
989.5	51.3258
990	51.0776
990.5	51.2421
991	51.6338
991.5	52.0748
992	52.3391
992.5	52.3264
993	52.0032
993.5	51.3812
994	50.6475
994.5	49.9627
995	49.5448
995.5	49.4514
996	49.6765
996.5	50.1593
997	50.7117
997.5	51.2144
998	51.5358
998.5	51.6159
999	51.3813
999.5	50.6984
1000	49.6538
1000.5	48.4107
1001	47.3118
1001.5	46.6967
1002	46.7463
1002.5	47.5237
1003	48.667
1003.5	49.8525
1004	50.7934
1004.5	51.4304
1005	51.7958
1005.5	51.8549
1006	51.5979
1006.5	51.0311
1007	50.274
1007.5	49.6597
1008	49.4716
1008.5	49.8712
1009	50.5451
1009.5	51.0241
1010	50.809
1010.5	49.8923
1011	48.6749
1011.5	47.8025
1012	47.7327
1012.5	48.4192
1013	49.4403
1013.5	50.1051
1014	50.044
1014.5	49.2392
1015	48.2266
1015.5	47.5874
1016	47.7274
1016.5	48.492
1017	49.403
1017.5	49.9543
1018	49.918
1018.5	49.5055
1019	49.1542
1019.5	49.3213
1020	50.0866
1020.5	51.2228
1021	52.1835
1021.5	52.5552
1022	52.1568
1022.5	51.2408
1023	50.2786
1023.5	49.6368
1024	49.4334
1024.5	49.4791
1025	49.5581
1025.5	49.5407
1026	49.4976
1026.5	49.5973
1027	49.9705
1027.5	50.5468
1028	51.1805
1028.5	51.6837
1029	51.9775
1029.5	52.0497
1030	51.9432
1030.5	51.7298
1031	51.4205
1031.5	50.9881
1032	50.4082
1032.5	49.6336
1033	48.641
1033.5	47.5289
1034	46.4465
1034.5	45.6246
1035	45.1601
1035.5	45.0395
1036	45.0918
1036.5	45.0779
1037	44.9259
1037.5	44.8186
1038	45.0643
1038.5	45.8957
1039	47.3592
1039.5	49.0257
1040	50.4444
1040.5	51.0869
1041	50.9108
1041.5	50.0232
1042	48.6851
1042.5	47.3371
1043	46.2529
1043.5	45.7072
1044	45.6628
1044.5	46.0388
1045	46.6742
1045.5	47.2953
1046	47.7607
1046.5	47.996
1047	48.0997
1047.5	48.1354
1048	48.093
1048.5	47.9496
1049	47.7278
1049.5	47.6049
1050	47.8242
1050.5	48.5541
1051	49.8442
1051.5	51.306
1052	52.5182
1052.5	52.952
1053	52.5055
1053.5	51.2698
1054	49.4389
1054.5	47.4608
1055	45.6727
1055.5	44.4536
1056	43.9376
1056.5	44.1007
1057	44.8087
1057.5	45.709
1058	46.5812
1058.5	47.3447
1059	48.0617
1059.5	48.749
1060	49.2175
1060.5	49.1763
1061	48.4755
1061.5	47.2468
1062	46.1799
1062.5	45.9836
1063	47.2398
1063.5	49.5969
1064	52.1652
1064.5	53.8488
1065	54.0672
1065.5	53.1049
1066	51.7216
1066.5	50.7971
1067	50.6335
1067.5	51.0613
1068	51.4787
1068.5	51.432
1069	50.715
1069.5	49.5115
1070	48.1585
1070.5	46.9739
1071	46.2676
1071.5	46.2537
1072	47.1962
1072.5	49.0564
1073	51.3653
1073.5	53.4214
1074	54.4036
1074.5	54.107
1075	52.7197
1075.5	50.9813
1076	49.651
1076.5	49.1773
1077	49.5555
1077.5	50.3653
1078	51.272
1078.5	52.0685
1079	52.7681
1079.5	53.4508
1080	54.186
1080.5	54.9851
1081	55.8633
1081.5	56.855
1082	57.9394
1082.5	59.0053
1083	59.7927
1083.5	60.1116
1084	59.8549
1084.5	59.1021
1085	58.1824
1085.5	57.3339
1086	56.6738
1086.5	56.0621
1087	55.2646
1087.5	54.0005
1088	52.2836
1088.5	50.2757
1089	48.3847
1089.5	47.0421
1090	46.5803
1090.5	47.2628
1091	48.6514
1091.5	50.2978
1092	51.5266
1092.5	51.8849
1093	51.1287
1093.5	49.1678
1094	46.6276
1094.5	44.116
1095	42.5442
1095.5	42.3208
1096	43.5385
1096.5	45.9138
1097	48.3393
1097.5	49.9731
1098	50.002
1098.5	48.8387
1099	47.1993
1099.5	46.0034
1100	45.6511
1100.5	46.0253
1101	46.658
1101.5	47.0064
1102	46.91
1102.5	46.4651
1103	45.9833
1103.5	45.5924
1104	45.2728
1104.5	44.9595
1105	44.7251
1105.5	44.8445
1106	45.4744
1106.5	46.5187
1107	47.6493
1107.5	48.4556
1108	48.7714
1108.5	48.625
1109	48.3035
1109.5	47.9679
1110	47.5899
1110.5	47.0472
1111	46.3169
1111.5	45.5701
1112	45.1214
1112.5	45.1557
1113	45.6871
1113.5	46.3769
1114	46.8955
1114.5	47.0474
1115	46.9156
1115.5	46.686
1116	46.4943
1116.5	46.3486
1117	46.1619
1117.5	45.8291
1118	45.3293
1118.5	44.7289
1119	44.1371
1119.5	43.7051
1120	43.5687
1120.5	43.9296
1121	44.8314
1121.5	46.1057
1122	47.4312
1122.5	48.3094
1123	48.4011
1123.5	47.5036
1124	45.8557
1124.5	44.0253
1125	42.6077
1125.5	42.073
1126	42.4154
1126.5	43.4307
1127	44.6246
1127.5	45.522
1128	45.8556
1128.5	45.6441
1129	45.1832
1129.5	44.7581
1130	44.6043
1130.5	44.7156
1131	44.9457
1131.5	45.0084
1132	44.6996
1132.5	43.9307
1133	42.8201
1133.5	41.6969
1134	40.8587
1134.5	40.5337
1135	40.5924
1135.5	40.8829
1136	41.289
1136.5	41.8384
1137	42.6997
1137.5	44.0182
1138	45.55
1138.5	46.8343
1139	47.1614
1139.5	46.3621
1140	44.6354
1140.5	42.7299
1141	41.5867
1141.5	41.698
1142	43.0677
1142.5	44.8469
1143	46.3447
1143.5	46.9599
1144	46.8349
1144.5	46.2927
1145	45.786
1145.5	45.5804
1146	45.6828
1146.5	45.9298
1147	46.055
1147.5	45.8964
1148	45.363
1148.5	44.6468
1149	43.955
1149.5	43.5879
1150	43.6269
1150.5	43.9927
1151	44.396
1151.5	44.4707
1152	44.0421
1152.5	43.1612
1153	42.3142
1153.5	41.9583
1154	42.5657
1154.5	43.8938
1155	45.4927
1155.5	46.7242
1156	47.1899
1156.5	46.8194
1157	45.7231
1157.5	44.359
1158	43.0563
1158.5	42.0918
1159	41.5727
1159.5	41.573
1160	42.2911
1160.5	43.7218
1161	45.6682
1161.5	47.7298
1162	49.2602
1162.5	49.7412
1163	48.6994
1163.5	46.4114
1164	43.52
1164.5	40.8887
1165	39.3001
1165.5	39.039
1166	40.1113
1166.5	41.8603
1167	43.544
1167.5	44.5789
1168	44.8012
1168.5	44.4299
1169	43.7947
1169.5	43.2825
1170	43.0668
1170.5	43.1658
1171	43.4271
1171.5	43.6944
1172	43.8901
1172.5	44.0267
1173	44.1623
1173.5	44.3335
1174	44.5357
1174.5	44.74
1175	44.9209
1175.5	45.0621
1176	45.1514
1176.5	45.1493
1177	45.0059
1177.5	44.718
1178	44.3217
1178.5	43.9385
1179	43.6812
1179.5	43.5789
1180	43.5119
1180.5	43.2834
1181	42.747
1181.5	41.9648
1182	41.2747
1182.5	41.1
1183	41.7808
1183.5	43.1165
1184	44.6616
1184.5	45.6958
1185	45.9054
1185.5	45.3198
1186	44.3315
1186.5	43.4535
1187	42.9158
1187.5	42.7005
1188	42.5968
1188.5	42.5577
1189	42.7626
1189.5	43.3933
1190	44.5162
1190.5	45.8652
1191	46.9734
1191.5	47.5371
1192	47.4318
1192.5	46.9586
1193	46.3268
1193.5	45.6044
1194	44.7162
1194.5	43.5704
1195	42.2208
1195.5	41.0163
1196	40.3109
1196.5	40.4558
1197	41.2657
1197.5	42.5109
1198	43.8744
1198.5	45.0426
1199	45.8308
1199.5	45.9891
1200	45.5481
1200.5	44.5664
1201	43.2379
1201.5	42.0224
1202	41.2427
1202.5	41.1428
1203	41.4761
1203.5	41.9199
1204	42.0763
1204.5	41.81
1205	41.2046
1205.5	40.4894
1206	39.9184
1206.5	39.5713
1207	39.3881
1207.5	39.2198
1208	39.0401
1208.5	38.9852
1209	39.2407
1209.5	39.9072
1210	40.9651
1210.5	42.0936
1211	42.9502
1211.5	43.1689
1212	42.7259
1212.5	41.8535
1213	40.8905
1213.5	40.1427
1214	39.6759
1214.5	39.3685
1215	38.9739
1215.5	38.4019
1216	37.8206
1216.5	37.6316
1217	38.1285
1217.5	39.353
1218	40.6957
1218.5	41.4889
1219	41.2434
1219.5	40.2315
1220	39.2341
1220.5	39.1354
1221	40.2488
1221.5	42.0544
1222	43.6227
1222.5	44.0743
1223	43.4188
1223.5	42.2234
1224	41.3128
1224.5	41.0231
1225	41.2013
1225.5	41.3407
1226	41.1651
1226.5	40.7979
1227	40.6689
1227.5	41.0151
1228	41.7067
1228.5	42.2948
1229	42.5418
1229.5	42.5616
1230	42.7495
1230.5	43.2948
1231	43.9822
1231.5	44.1893
1232	43.5257
1232.5	42.0437
1233	40.5177
1233.5	39.819
1234	40.3608
1234.5	41.8719
1235	43.4592
1235.5	44.4297
1236	44.4603
1236.5	43.9488
1237	43.3466
1237.5	43.0248
1238	42.9666
1238.5	43.0248
1239	43.139
1239.5	43.3905
1240	43.8808
1240.5	44.5444
1241	45.0516
1241.5	45.067
1242	44.3762
1242.5	43.3515
1243	42.5366
1243.5	42.5949
1244	43.5503
1244.5	45.1231
1245	46.6425
1245.5	47.4391
1246	47.153
1246.5	45.6594
1247	43.6283
1247.5	41.692
1248	40.6535
1248.5	40.6411
1249	41.5287
1249.5	42.9236
1250	44.1448
1250.5	44.7804
1251	44.5158
1251.5	43.6643
1252	42.5941
1252.5	41.8061
1253	41.4867
1253.5	41.521
1254	41.5393
1254.5	41.1584
1255	40.2717
1255.5	39.0978
1256	38.2096
1256.5	38.033
1257	38.8275
1257.5	40.141
1258	41.4471
1258.5	42.3805
1259	43.0514
1259.5	43.7642
1260	44.7899
1260.5	45.9793
1261	46.9445
1261.5	47.2267
1262	46.9264
1262.5	46.599
1263	46.9879
1263.5	48.2931
1264	50.0804
1264.5	51.4074
1265	51.4427
1265.5	50.0659
1266	47.7461
1266.5	45.6042
1267	44.3033
1267.5	43.7375
1268	42.9815
1268.5	41.254
1269	38.3418
1269.5	35.2273
1270	33.2561
1270.5	33.683
1271	36.4586
1271.5	40.3438
1272	43.8573
1272.5	46.0587
1273	47.007
1273.5	47.076
1274	46.7531
1274.5	46.2322
1275	45.5292
1275.5	44.8465
1276	44.5113
1276.5	44.6576
1277	44.924
1277.5	44.807
1278	44.1485
1278.5	43.4759
1279	43.4651
1279.5	44.3088
1280	45.4261
1280.5	46.6034
1281	49.8747
1281.5	60.2764
1282	81.7168
1282.5	116.345
1283	159.53
1283.5	199.663
1284	223.962
1284.5	221.28
1285	194.779
1285.5	153.386
1286	110.37
1286.5	76.032
1287	54.7624
1287.5	46.0419
1288	43.7737
1288.5	44.1306
1289	44.6217
1289.5	44.6144
1290	44.28
1290.5	43.7287
1291	43.019
1291.5	42.2461
1292	41.6316
1292.5	41.2637
1293	41.0642
1293.5	40.861
1294	40.6479
1294.5	40.6127
1295	40.9967
1295.5	41.6661
1296	42.3212
1296.5	42.5267
1297	42.2185
1297.5	41.5404
1298	40.7752
1298.5	40.1148
1299	39.5408
1299.5	38.9955
1300	38.5245
1300.5	38.2993
1301	38.6403
1301.5	39.5588
1302	40.9528
1302.5	42.5068
1303	43.7881
1303.5	44.5345
1304	44.5426
1304.5	44.0802
1305	43.4612
1305.5	43.0758
1306	43.0759
1306.5	43.36
1307	43.5896
1307.5	43.4641
1308	42.8985
1308.5	41.9687
1309	40.9851
1309.5	40.1835
1310	39.776
1310.5	39.7754
1311	40.1109
1311.5	40.6646
1312	41.2294
1312.5	41.6448
1313	41.7754
1313.5	41.6588
1314	41.4097
1314.5	41.174
1315	41.0826
1315.5	41.1861
1316	41.5402
1316.5	42.1086
1317	42.7825
1317.5	43.3391
1318	43.5011
1318.5	43.1125
1319	42.1301
1319.5	40.9437
1320	39.9791
1320.5	39.6224
1321	39.9362
1321.5	40.6889
1322	41.5657
1322.5	42.236
1323	42.5548
1323.5	42.492
1324	42.1106
1324.5	41.4597
1325	40.5246
1325.5	39.3979
1326	38.3082
1326.5	37.5949
1327	37.555
1327.5	38.0966
1328	38.8857
1328.5	39.4212
1329	39.4686
1329.5	39.1472
1330	38.9973
1330.5	39.51
1331	40.8856
1331.5	42.6159
1332	43.876
1332.5	44.0289
1333	42.9564
1333.5	41.3039
1334	39.7847
1334.5	38.9935
1335	38.8715
1335.5	39.018
1336	38.9528
1336.5	38.5912
1337	38.1646
1337.5	38.1056
1338	38.5999
1338.5	39.6047
1339	40.8316
1339.5	41.9275
1340	42.7303
1340.5	43.1422
1341	43.1633
1341.5	42.6819
1342	41.5441
1342.5	39.9232
1343	38.1041
1343.5	36.5783
1344	35.6044
1344.5	35.2312
1345	35.3569
1345.5	35.7155
1346	36.259
1346.5	37.1177
1347	38.3146
1347.5	39.6983
1348	40.8274
1348.5	41.2817
1349	40.8154
1349.5	39.3594
1350	37.511
1350.5	35.8109
1351	34.9207
1351.5	34.8922
1352	35.6278
1352.5	36.9132
1353	38.2873
1353.5	39.4363
1354	39.9622
1354.5	39.7555
1355	38.8939
1355.5	37.7141
1356	36.8426
1356.5	36.7334
1357	37.6615
1357.5	39.0729
1358	40.2539
1358.5	40.3822
1359	39.608
1359.5	38.519
1360	37.9662
1360.5	38.2917
1361	39.2086
1361.5	39.9384
1362	39.7565
1362.5	38.6145
1363	37.0325
1363.5	35.8448
1364	35.5003
1364.5	36.1029
1365	37.1342
1365.5	38.0902
1366	38.6708
1366.5	39.0796
1367	39.6723
1367.5	40.7463
1368	42.1391
1368.5	43.3561
1369	43.7083
1369.5	42.9275
1370	41.4455
1370.5	40.0091
1371	39.2414
1371.5	39.1514
1372	39.3285
1372.5	39.2028
1373	38.6356
1373.5	37.9488
1374	37.6426
1374.5	37.886
1375	38.6579
1375.5	39.8048
1376	41.2183
1376.5	42.7598
1377	43.9224
1377.5	44.2029
1378	43.4144
1378.5	42.2496
1379	41.7645
1379.5	42.5987
1380	44.2242
1380.5	45.3713
1381	45.5023
1381.5	45.6029
1382	46.9829
1382.5	49.667
1383	51.389
1383.5	50.0371
1384	47.0413
1384.5	51.6554
1385	74.0651
1385.5	122.197
1386	193.048
1386.5	267.246
1387	321.852
1387.5	332.49
1388	300.197
1388.5	237.439
1389	165.518
1389.5	104.41
1390	63.6039
1390.5	44.6132
1391	38.1081
1391.5	37.5711
1392	38.6973
1392.5	40.0812
1393	41.6814
1393.5	43.2725
1394	44.3524
1394.5	44.5239
1395	43.6397
1395.5	42.1831
1396	40.4688
1396.5	38.9033
1397	37.845
1397.5	37.5201
1398	37.9336
1398.5	38.4851
1399	38.7101
1399.5	38.4232
1400	38.0305
1400.5	37.9149
1401	38.2889
1401.5	38.7935
1402	39.0857
1402.5	39.0904
1403	39.1918
1403.5	39.6917
1404	40.6153
1404.5	41.4428
1405	41.7308
1405.5	41.4649
1406	41.5121
1406.5	42.7512
1407	46.0384
1407.5	50.7387
1408	55.6953
1408.5	58.8945
1409	59.189
1409.5	56.5799
1410	51.778
1410.5	46.8019
1411	43.1387
1411.5	41.8815
1412	42.3749
1412.5	43.3187
1413	43.4034
1413.5	42.3307
1414	40.6518
1414.5	39.3961
1415	39.2804
1415.5	40.2441
1416	41.61
1416.5	42.5771
1417	42.8721
1417.5	42.5575
1418	41.9724
1418.5	41.2456
1419	40.2412
1419.5	38.94
1420	37.5973
1420.5	36.734
1421	36.7193
1421.5	37.4362
1422	38.3649
1422.5	38.758
1423	38.4026
1423.5	37.5363
1424	36.809
1424.5	36.6576
1425	37.1621
1425.5	37.8754
1426	38.2826
1426.5	38.1214
1427	37.5048
1427.5	36.7268
1428	35.9888
1428.5	35.3685
1429	34.8721
1429.5	34.6125
1430	34.7935
1430.5	35.4692
1431	36.5022
1431.5	37.3872
1432	37.5538
1432.5	36.6979
1433	35.1308
1433.5	33.6175
1434	32.8756
1434.5	33.269
1435	34.3853
1435.5	35.586
1436	36.2976
1436.5	36.5691
1437	36.7437
1437.5	37.2115
1438	37.939
1438.5	38.5514
1439	38.5767
1439.5	38.0857
1440	37.4325
1440.5	37.1188
1441	37.2415
1441.5	37.527
1442	37.3859
1442.5	36.6396
1443	35.463
1443.5	34.3457
1444	33.6826
1444.5	33.573
1445	33.8358
1445.5	34.0453
1446	33.9729
1446.5	33.5125
1447	32.8403
1447.5	32.1707
1448	31.8571
1448.5	32.0833
1449	32.822
1449.5	33.8383
1450	34.6764
1450.5	35.0456
1451	34.7859
1451.5	34.2166
1452	33.6152
1452.5	33.1272
1453	32.6603
1453.5	32.1042
1454	31.4598
1454.5	30.9696
1455	30.8946
1455.5	31.4694
1456	32.5131
1456.5	33.8032
1457	35.0555
1457.5	36.0287
1458	36.5739
1458.5	36.5316
1459	36.0011
1459.5	35.1474
1460	34.2667
1460.5	33.6796
1461	33.4969
1461.5	33.5625
1462	33.4965
1462.5	33.0558
1463	32.1828
1463.5	31.237
1464	30.6733
1464.5	30.9205
1465	31.8983
1465.5	33.2738
1466	34.5327
1466.5	35.1974
1467	35.054
1467.5	34.1916
1468	33.1161
1468.5	32.2741
1469	32.0017
1469.5	32.212
1470	32.5441
1470.5	32.5462
1471	32.069
1471.5	31.3335
1472	30.796
1472.5	30.8939
1473	31.7358
1473.5	33.1046
1474	34.4392
1474.5	35.3098
1475	35.4109
1475.5	34.7792
1476	33.6948
1476.5	32.5161
1477	31.6423
1477.5	31.2834
1478	31.5601
1478.5	32.3434
1479	33.3381
1479.5	34.2488
1480	34.8466
1480.5	35.0656
1481	34.8409
1481.5	34.1709
1482	33.1682
1482.5	32.022
1483	31.0729
1483.5	30.5582
1484	30.5735
1484.5	30.9078
1485	31.1036
1485.5	30.7339
1486	29.6723
1486.5	28.2753
1487	27.0603
1487.5	26.6679
1488	27.3505
1488.5	29.0716
1489	31.332
1489.5	33.444
1490	34.891
1490.5	35.3462
1491	35.0613
1491.5	34.4431
1492	34.0098
1492.5	33.9764
1493	34.2823
1493.5	34.6021
1494	34.5662
1494.5	34.0443
1495	33.2146
1495.5	32.4743
1496	32.0707
1496.5	32.0379
1497	32.0352
1497.5	31.7693
1498	31.1483
1498.5	30.4737
1499	30.0577
1499.5	30.1458
1500	30.5301
1500.5	30.9303
1501	31.1523
1501.5	31.3019
1502	31.5325
1502.5	31.8867
1503	32.1094
1503.5	31.9605
1504	31.3805
1504.5	30.7797
1505	30.5382
1505.5	30.9083
1506	31.4748
1506.5	31.7223
1507	31.2401
1507.5	30.3048
1508	29.3796
1508.5	29.052
1509	29.3794
1509.5	30.1109
1510	30.9948
1510.5	31.8979
1511	32.8459
1511.5	33.7776
1512	34.3797
1512.5	34.3011
1513	33.22
1513.5	31.4825
1514	29.6585
1514.5	28.5362
1515	28.3201
1515.5	28.8043
1516	29.612
1516.5	30.3356
1517	30.8567
1517.5	31.2306
1518	31.5466
1518.5	31.7561
1519	31.7192
1519.5	31.4382
1520	31.1017
1520.5	31.0415
1521	31.4353
1521.5	32.1981
1522	33.0552
1522.5	33.5841
1523	33.4822
1523.5	32.6138
1524	31.2522
1524.5	29.9076
1525	29.2836
1525.5	29.9403
1526	31.9187
1526.5	34.1215
1527	35.4327
1527.5	35.2296
1528	33.4267
1528.5	30.9406
1529	28.8473
1529.5	27.817
1530	27.7583
1530.5	28.1112
1531	28.3848
1531.5	28.4201
1532	28.3706
1532.5	28.5596
1533	29.1386
1533.5	30.1465
1534	31.3538
1534.5	32.5512
1535	33.3615
1535.5	33.6369
1536	33.4232
1536.5	32.9021
1537	32.2824
1537.5	31.8104
1538	31.6719
1538.5	31.8572
1539	32.1944
1539.5	32.3833
1540	32.1811
1540.5	31.5553
1541	30.8901
1541.5	30.6386
1542	31.069
1542.5	32.1016
1543	33.3448
1543.5	34.178
1544	34.3182
1544.5	33.7555
1545	32.8343
1545.5	31.8757
1546	31.1536
1546.5	30.714
1547	30.6261
1547.5	30.921
1548	31.6325
1548.5	32.7554
1549	33.9687
1549.5	34.9999
1550	35.6227
1550.5	35.8312
1551	35.6419
1551.5	35.1262
1552	34.2967
1552.5	33.1149
1553	31.7639
1553.5	30.519
1554	29.862
1554.5	29.8509
1555	30.3749
1555.5	31.076
1556	31.6595
1556.5	31.9899
1557	32.2453
1557.5	32.6164
1558	33.2148
1558.5	33.9389
1559	34.6359
1559.5	35.0837
1560	35.2102
1560.5	34.9521
1561	34.3657
1561.5	33.6071
1562	32.97
1562.5	32.7699
1563	33.0822
1563.5	33.7385
1564	34.2977
1564.5	34.3484
1565	33.6787
1565.5	32.6537
1566	31.7304
1566.5	31.2872
1567	31.3801
1567.5	31.8335
1568	32.1881
1568.5	32.1877
1569	31.74
1569.5	30.9989
1570	30.1501
1570.5	29.4723
1571	29.1175
1571.5	29.192
1572	29.5934
1572.5	30.1724
1573	30.7384
1573.5	31.2204
1574	31.7299
1574.5	32.4779
1575	33.5357
1575.5	34.8111
1576	35.8615
1576.5	36.2472
1577	35.5982
1577.5	34.1412
1578	32.256
1578.5	30.6119
1579	29.7838
1579.5	30.0226
1580	31.1236
1580.5	32.6115
1581	33.9423
1581.5	34.6342
1582	34.5255
1582.5	33.7907
1583	32.9311
1583.5	32.3743
1584	32.4922
1584.5	33.2573
1585	34.3125
1585.5	35.0399
1586	35.0651
1586.5	34.1852
1587	32.847
1587.5	31.6955
1588	31.4371
1588.5	32.041
1589	33.1557
1589.5	34.0392
1590	34.1795
1590.5	33.3934
1591	32.3451
1591.5	31.6076
1592	31.6615
1592.5	32.3274
1593	33.2116
1593.5	33.7242
1594	33.7355
1594.5	33.3909
1595	33.1227
1595.5	33.2844
1596	34.1849
1596.5	35.639
1597	37.3067
1597.5	38.7257
1598	39.5591
1598.5	39.5749
1599	38.7389
1599.5	37.3882
1600	35.8185
1600.5	34.3272
1601	33.0763
1601.5	32.2246
1602	31.8007
1602.5	31.7805
1603	32.085
1603.5	32.5508
1604	33.0737
1604.5	33.6092
1605	34.1842
1605.5	34.7702
1606	35.1643
1606.5	35.1005
1607	34.2439
1607.5	32.7065
1608	30.8185
1608.5	29.2494
1609	28.3693
1609.5	28.3761
1610	29.0892
1610.5	30.2357
1611	31.588
1611.5	32.8901
1612	33.9384
1612.5	34.4551
1613	34.4016
1613.5	33.8857
1614	33.3768
1614.5	33.2251
1615	33.4792
1615.5	33.7512
1616	33.6648
1616.5	33.0277
1617	32.3861
1617.5	32.4311
1618	33.5935
1618.5	35.4655
1619	37.2529
1619.5	37.965
1620	37.2911
1620.5	35.6833
1621	34.1185
1621.5	33.1503
1622	32.9054
1622.5	32.8493
1623	32.4224
1623.5	31.4966
1624	30.479
1624.5	29.9398
1625	30.2241
1625.5	31.2421
1626	32.5813
1626.5	33.6707
1627	34.349
1627.5	34.79
1628	35.3717
1628.5	36.3896
1629	37.7781
1629.5	39.0327
1630	39.4645
1630.5	38.7327
1631	36.8808
1631.5	34.3167
1632	31.8814
1632.5	30.2035
1633	29.5232
1633.5	29.6013
1634	30.1757
1634.5	30.9217
1635	31.6982
1635.5	32.4279
1636	32.9856
1636.5	33.1742
1637	32.7521
1637.5	31.7892
1638	30.5442
1638.5	29.6834
1639	29.6785
1639.5	30.8304
1640	32.7715
1640.5	34.9075
1641	36.3698
1641.5	36.6187
1642	35.6334
1642.5	33.9154
1643	32.2149
1643.5	31.1984
1644	31.2169
1644.5	32.1879
1645	33.7391
1645.5	35.2681
1646	36.3988
1646.5	36.8109
1647	36.5394
1647.5	35.6655
1648	34.5049
1648.5	33.4039
1649	32.6288
1649.5	32.2623
1650	32.2378
1650.5	32.4249
1651	32.6253
1651.5	32.754
1652	32.7901
1652.5	32.7426
1653	32.5778
1653.5	32.2423
1654	31.7191
1654.5	31.0739
1655	30.5087
1655.5	30.1874
1656	30.2358
1656.5	30.5441
1657	30.9591
1657.5	31.3192
1658	31.6791
1658.5	32.2498
1659	33.1939
1659.5	34.435
1660	35.6112
1660.5	36.2027
1661	35.9612
1661.5	35.149
1662	34.3911
1662.5	34.1942
1663	34.6296
1663.5	35.23
1664	35.1918
1664.5	34.2144
1665	32.5846
1665.5	31.0427
1666	30.2908
1666.5	30.675
1667	32.0141
1667.5	33.6179
1668	34.8955
1668.5	35.5628
1669	35.6656
1669.5	35.3492
1670	34.9109
1670.5	34.5336
1671	34.3202
1671.5	34.2286
1672	34.2035
1672.5	34.1994
1673	34.2332
1673.5	34.3704
1674	34.5956
1674.5	34.7564
1675	34.5647
1675.5	33.9175
1676	32.8841
1676.5	31.8385
1677	31.2295
1677.5	31.3273
1678	31.8488
1678.5	32.3147
1679	32.2238
1679.5	31.5341
1680	30.559
1680.5	30.002
1681	30.264
1681.5	31.3389
1682	32.7541
1682.5	33.9659
1683	34.5978
1683.5	34.7331
1684	34.7069
1684.5	34.8609
1685	35.1754
1685.5	35.4548
1686	35.4421
1686.5	35.1159
1687	34.5816
1687.5	34.005
1688	33.369
1688.5	32.5175
1689	31.4268
1689.5	30.2717
1690	29.4618
1690.5	29.2591
1691	29.6819
1691.5	30.3485
1692	30.9579
1692.5	31.4613
1693	32.0606
1693.5	32.8858
1694	33.7708
1694.5	34.1486
1695	33.633
1695.5	32.2458
1696	30.6628
1696.5	29.6122
1697	29.584
1697.5	30.3875
1698	31.4525
1698.5	32.1727
1699	32.4178
1699.5	32.32
1700	32.2058
1700.5	32.2581
1701	32.5649
1701.5	33.1108
1702	33.8683
1702.5	34.6617
1703	35.2146
1703.5	35.145
1704	34.4287
1704.5	33.3312
1705	32.4701
1705.5	32.1385
1706	32.2137
1706.5	32.1826
1707	31.7134
1707.5	30.8408
1708	30.129
1708.5	30.0274
1709	30.4817
1709.5	30.8285
1710	30.6037
1710.5	29.8454
1711	29.2504
1711.5	29.6106
1712	31.112
1712.5	32.9317
1713	34.0016
1713.5	33.8903
1714	32.9053
1714.5	31.8873
1715	31.4711
1715.5	31.633
1716	31.6212
1716.5	30.9849
1717	29.8263
1717.5	28.9178
1718	28.8742
1718.5	29.9688
1719	31.4238
1719.5	32.3195
1720	31.9954
1720.5	30.7291
1721	29.059
1721.5	27.7114
1722	27.0232
1722.5	27.1432
1723	27.8808
1723.5	29.0351
1724	30.3683
1724.5	31.4622
1725	31.8654
1725.5	31.2188
1726	29.7547
1726.5	28.0628
1727	27.0091
1727.5	26.8319
1728	27.2608
1728.5	27.469
1729	26.9081
1729.5	25.4976
1730	23.985
1730.5	23.285
1731	23.8694
1731.5	25.4265
1732	27.4168
1732.5	29.2183
1733	30.6168
1733.5	31.606
1734	32.3194
1734.5	32.6748
1735	32.4578
1735.5	31.6969
1736	30.6107
1736.5	29.7347
1737	29.4825
1737.5	30.1354
1738	31.3204
1738.5	32.4886
1739	33.0507
1739.5	32.879
1740	32.0912
1740.5	31.1319
1741	30.414
1741.5	30.2021
1742	30.3687
1742.5	30.6573
1743	30.8414
1743.5	30.847
1744	30.6786
1744.5	30.3645
1745	29.9555
1745.5	29.5259
1746	29.2427
1746.5	29.2074
1747	29.4216
1747.5	29.6544
1748	29.6814
1748.5	29.3625
1749	28.9096
1749.5	28.6642
1750	28.9142
1750.5	29.5862
1751	30.4721
1751.5	31.2549
1752	31.7576
1752.5	31.8365
1753	31.509
1753.5	30.7857
1754	29.8147
1754.5	28.8601
1755	28.1574
1755.5	27.8127
1756	27.7179
1756.5	27.7181
1757	27.7141
1757.5	27.7623
1758	27.9509
1758.5	28.1826
1759	28.2718
1759.5	28.0457
1760	27.5987
1760.5	27.189
1761	27.1346
1761.5	27.4971
1762	28.1044
1762.5	28.6686
1763	29.0459
1763.5	29.1945
1764	29.2059
1764.5	29.1614
1765	29.1833
1765.5	29.3795
1766	29.7815
1766.5	30.1832
1767	30.2974
1767.5	29.7986
1768	28.8387
1768.5	27.7927
1769	27.2707
1769.5	27.5081
1770	28.3326
1770.5	29.2174
1771	29.7939
1771.5	29.8565
1772	29.5028
1772.5	28.8362
1773	27.9515
1773.5	27.0908
1774	26.6075
1774.5	26.8476
1775	27.7083
1775.5	28.7572
1776	29.2619
1776.5	28.8467
1777	27.5047
1777.5	25.9947
1778	24.9819
1778.5	24.7891
1779	25.0985
1779.5	25.5389
1780	25.8525
1780.5	26.1288
1781	26.658
1781.5	27.6091
1782	28.8465
1782.5	29.8884
1783	30.3314
1783.5	30.0008
1784	29.1129
1784.5	28.1966
1785	27.7674
1785.5	28.0324
1786	28.7451
1786.5	29.3232
1787	29.2934
1787.5	28.552
1788	27.3562
1788.5	26.2646
1789	25.778
1789.5	26.2396
1790	27.5842
1790.5	29.5676
1791	31.4401
1791.5	32.5704
1792	32.3052
1792.5	30.915
1793	28.9936
1793.5	27.6029
1794	27.3631
1794.5	28.3701
1795	29.7501
1795.5	30.6204
1796	30.447
1796.5	29.5673
1797	28.5091
1797.5	27.7717
1798	27.3467
1798.5	26.9587
1799	26.2538
1799.5	25.2571
1800	24.2818
1800.5	23.7594
1801	23.9123
1801.5	24.8582
1802	26.2541
1802.5	27.7319
1803	28.7962
1803.5	29.1944
1804	28.94
1804.5	28.4575
1805	28.1828
1805.5	28.4306
1806	29.0719
1806.5	29.7896
1807	30.1839
1807.5	30.1756
1808	29.9103
1808.5	29.738
1809	29.8351
1809.5	30.21
1810	30.6735
1810.5	31.0519
1811	31.2121
1811.5	31.1805
1812	31.0203
1812.5	30.7974
1813	30.5017
1813.5	30.0043
1814	29.1178
1814.5	27.802
1815	26.1707
1815.5	24.6629
1816	23.6975
1816.5	23.6698
1817	24.3259
1817.5	25.205
1818	25.7313
1818.5	25.8147
1819	25.7219
1819.5	25.9827
1820	26.8272
1820.5	28.1091
1821	29.141
1821.5	29.318
1822	28.2215
1822.5	26.4471
1823	24.697
1823.5	23.7092
1824	23.6335
1824.5	24.2913
1825	25.0867
1825.5	25.617
1826	25.7002
1826.5	25.6158
1827	25.6892
1827.5	26.1583
1828	26.9545
1828.5	27.9386
1829	28.9351
1829.5	29.8666
1830	30.6616
1830.5	31.1862
1831	31.2188
1831.5	30.3974
1832	28.8878
1832.5	27.0474
1833	25.5481
1833.5	24.8142
1834	24.9942
1834.5	25.6485
1835	26.2619
1835.5	26.437
1836	26.3049
1836.5	26.199
1837	26.3849
1837.5	26.6726
1838	26.6586
1838.5	25.9976
1839	24.8121
1839.5	23.557
1840	22.8373
1840.5	22.8858
1841	23.5612
1841.5	24.2316
1842	24.5013
1842.5	24.3554
1843	24.174
1843.5	24.3743
1844	25.1007
1844.5	26.1133
1845	26.9313
1845.5	27.171
1846	26.7614
1846.5	25.9992
1847	25.3717
1847.5	25.137
1848	25.2269
1848.5	25.3563
1849	25.3066
1849.5	25.2041
1850	25.4177
1850.5	26.4782
1851	28.2712
1851.5	30.2149
1852	31.19
1852.5	30.6756
1853	28.6918
1853.5	26.2406
1854	24.3601
1854.5	23.8132
1855	24.257
1855.5	24.9767
1856	25.2011
1856.5	24.9371
1857	24.7303
1857.5	25.1966
1858	26.2564
1858.5	27.3232
1859	27.5901
1859.5	26.8027
1860	25.2291
1860.5	23.8097
1861	23.2523
1861.5	23.9581
1862	25.5366
1862.5	27.4798
1863	29.2371
1863.5	30.4954
1864	30.951
1864.5	30.5632
1865	29.4187
1865.5	27.7878
1866	26.2445
1866.5	25.3002
1867	25.3567
1867.5	26.2299
1868	27.4903
1868.5	28.4305
1869	28.5678
1869.5	27.5285
1870	25.6441
1870.5	23.4098
1871	21.5919
1871.5	20.7071
1872	21.0604
1872.5	22.5024
1873	24.4664
1873.5	26.3535
1874	27.6569
1874.5	28.2017
1875	27.9963
1875.5	27.4554
1876	26.8561
1876.5	26.3039
1877	25.6405
1877.5	24.65
1878	23.4492
1878.5	22.5822
1879	22.8937
1879.5	24.5834
1880	27.2313
1880.5	29.6992
1881	30.9396
1881.5	30.4775
1882	28.8433
1882.5	27.1357
1883	26.2966
1883.5	26.4407
1884	26.9932
1884.5	27.1574
1885	26.7276
1885.5	25.9581
1886	25.4047
1886.5	25.3535
1887	25.8001
1887.5	26.436
1888	27.0066
1888.5	27.3642
1889	27.469
1889.5	27.2396
1890	26.5798
1890.5	25.7255
1891	25.1054
1891.5	25.2949
1892	26.3799
1892.5	28.0252
1893	29.3178
1893.5	29.5975
1894	28.5366
1894.5	26.8876
1895	25.5312
1895.5	25.3764
1896	26.2652
1896.5	27.6229
1897	28.5179
1897.5	28.4785
1898	27.4184
1898.5	25.9699
1899	24.778
1899.5	24.4625
1900	24.9688
1900.5	25.9935
1901	26.9662
1901.5	27.5345
1902	27.6826
1902.5	27.7475
1903	27.9946
1903.5	28.4751
1904	28.8757
1904.5	28.8643
1905	28.2231
1905.5	27.216
1906	26.2101
1906.5	25.52
1907	25.0461
1907.5	24.384
1908	23.17
1908.5	21.509
1909	19.9867
1909.5	19.296
1910	19.8145
1910.5	21.381
1911	23.2505
1911.5	24.7422
1912	25.5074
1912.5	25.7204
1913	25.715
1913.5	25.7469
1914	25.7238
1914.5	25.3148
1915	24.4483
1915.5	23.3349
1916	22.5736
1916.5	22.6309
1917	23.7421
1917.5	25.4156
1918	26.9235
1918.5	27.4585
1919	27.0312
1919.5	26.1515
1920	25.7752
1920.5	26.3031
1921	27.3555
1921.5	27.8229
1922	27.0402
1922.5	25.019
1923	22.9651
1923.5	21.9691
1924	22.7122
1924.5	24.3655
1925	25.8548
1925.5	26.215
1926	25.5875
1926.5	24.6453
1927	24.2269
1927.5	24.4573
1928	25.0222
1928.5	25.4702
1929	25.6788
1929.5	25.7032
1930	25.5661
1930.5	25.0852
1931	24.0706
1931.5	22.6672
1932	21.3075
1932.5	20.5203
1933	20.4595
1933.5	20.9411
1934	21.4322
1934.5	21.6896
1935	21.7896
1935.5	21.9683
1936	22.3605
1936.5	22.9091
1937	23.5306
1937.5	24.273
1938	25.2362
1938.5	26.3899
1939	27.3857
1939.5	27.7742
1940	27.2765
1940.5	26.1796
1941	25.229
1941.5	25.1584
1942	26.0332
1942.5	27.3674
1943	28.3895
1943.5	28.6667
1944	28.1964
1944.5	27.3216
1945	26.4179
1945.5	25.6142
1946	24.8707
1946.5	24.1876
1947	23.7586
1947.5	23.8184
1948	24.4407
1948.5	25.4079
1949	26.2088
1949.5	26.4718
1950	26.1116
1950.5	25.4522
1951	24.8896
1951.5	24.674
1952	24.7109
1952.5	24.6811
1953	24.3215
1953.5	23.6366
1954	22.9094
1954.5	22.4237
1955	22.2295
1955.5	22.0473
1956	21.6225
1956.5	20.9841
1957	20.5481
1957.5	20.6483
1958	21.3731
1958.5	22.232
1959	22.7539
1959.5	22.6947
1960	22.3399
1960.5	22.1162
1961	22.3076
1961.5	22.8115
1962	23.3351
1962.5	23.6498
1963	23.7758
1963.5	23.9216
1964	24.2592
1964.5	24.8172
1965	25.4402
1965.5	25.8874
1966	25.8512
1966.5	25.1958
1967	24.0442
1967.5	22.8109
1968	22.0498
1968.5	22.0481
1969	22.625
1969.5	23.1534
1970	23.0969
1970.5	22.4439
1971	21.719
1971.5	21.6603
1972	22.4765
1972.5	23.8036
1973	24.8592
1973.5	25.0505
1974	24.1261
1974.5	22.3625
1975	20.4471
1975.5	19.2009
1976	19.2879
1976.5	20.8205
1977	23.5068
1977.5	26.2719
1978	28.2646
1978.5	28.9211
1979	28.5819
1979.5	27.709
1980	26.7365
1980.5	25.7148
1981	24.5893
1981.5	23.6004
1982	23.1778
1982.5	23.7916
1983	25.098
1983.5	26.4232
1984	26.8798
1984.5	26.2958
1985	25.0176
1985.5	23.91
1986	23.4725
1986.5	23.807
1987	24.3862
1987.5	24.7829
1988	24.7541
1988.5	24.4452
1989	24.0287
1989.5	23.6233
1990	23.2283
1990.5	22.8328
1991	22.4831
1991.5	22.2543
1992	22.2586
1992.5	22.5104
1993	23.004
1993.5	23.622
1994	24.1136
1994.5	24.1271
1995	23.3877
1995.5	21.9626
1996	20.2373
1996.5	18.9813
1997	18.7822
1997.5	19.996
1998	22.0795
1998.5	24.3362
1999	25.9527
1999.5	26.6772
2000	26.5051
2000.5	25.7617
2001	24.6584
2001.5	23.2813
2002	21.8427
2002.5	20.6557
2003	20.1845
2003.5	20.5015
2004	21.3707
2004.5	22.091
2005	22.156
2005.5	21.4029
2006	20.4108
2006.5	19.8102
2007	20.1236
2007.5	21.121
2008	22.3974
2008.5	23.5009
2009	24.3541
2009.5	25.0608
2010	25.6963
2010.5	26.1431
2011	26.1269
2011.5	25.6463
2012	24.9214
2012.5	24.4149
2013	24.396
2013.5	24.8394
2014	25.296
2014.5	25.319
2015	24.6432
2015.5	23.5827
2016	22.6273
2016.5	22.3012
2017	22.5434
2017.5	23.0001
2018	23.0954
2018.5	22.6186
2019	21.7072
2019.5	20.9271
2020	20.7275
2020.5	21.4459
2021	22.8783
2021.5	24.6691
2022	26.1907
2022.5	26.878
2023	26.3084
2023.5	24.5772
2024	22.3981
2024.5	20.7283
2025	20.3013
2025.5	21.1336
2026	22.7076
2026.5	24.0081
2027	24.4017
2027.5	23.6774
2028	22.2984
2028.5	20.7692
2029	19.573
2029.5	18.8718
2030	18.733
2030.5	19.0285
2031	19.6818
2031.5	20.6185
2032	21.6529
2032.5	22.5948
2033	23.2637
2033.5	23.6892
2034	24.0264
2034.5	24.4452
2035	24.866
2035.5	24.8951
2036	24.2663
2036.5	23.0868
2037	22.0583
2037.5	21.9073
2038	22.9319
2038.5	24.4823
2039	25.5655
2039.5	25.3642
2040	24.1382
2040.5	22.6508
2041	21.8317
2041.5	21.8895
2042	22.6178
2042.5	23.5346
2043	24.296
2043.5	24.6822
2044	24.5517
2044.5	23.8909
2045	22.831
2045.5	21.8368
2046	21.2761
2046.5	21.341
2047	21.8006
2047.5	22.4414
2048	23.0928
2048.5	23.6278
2049	23.7413
2049.5	23.0889
2050	21.6209
2050.5	19.7689
2051	18.454
2051.5	18.2953
2052	19.2778
2052.5	20.6167
2053	21.629
2053.5	22.1481
2054	22.4969
2054.5	22.9349
2055	23.2305
2055.5	22.9638
2056	21.9457
2056.5	20.8136
2057	20.3728
2057.5	21.1038
2058	22.5661
2058.5	23.9836
2059	24.756
2059.5	24.8871
2060	24.5839
2060.5	24.0727
2061	23.3622
2061.5	22.5482
2062	21.9227
2062.5	21.7425
2063	21.8443
2063.5	21.7552
2064	21.0827
2064.5	20.1804
2065	19.7512
2065.5	20.4814
2066	21.9187
2066.5	23.1518
2067	23.2246
2067.5	22.283
2068	21.1328
2068.5	20.7699
2069	21.3368
2069.5	22.2762
2070	22.6869
2070.5	22.1853
2071	20.9258
2071.5	19.5356
2072	18.53
2072.5	18.2721
2073	18.7974
2073.5	20.037
2074	21.5184
2074.5	22.7674
2075	23.3182
2075.5	23.2498
2076	22.7799
2076.5	22.1794
2077	21.5711
2077.5	21.019
2078	20.6819
2078.5	20.7084
2079	21.1276
2079.5	21.569
2080	21.6516
2080.5	21.1348
2081	20.2868
2081.5	19.451
2082	18.9087
2082.5	18.6811
2083	18.7847
2083.5	19.2185
2084	19.9086
2084.5	20.5198
2085	20.5859
2085.5	19.8908
2086	18.7697
2086.5	17.9529
2087	17.9632
2087.5	18.626
2088	19.3515
2088.5	19.7066
2089	19.9626
2089.5	20.6499
2090	22.0962
2090.5	23.7094
2091	24.6695
2091.5	24.47
2092	23.6143
2092.5	22.9758
2093	23.1228
2093.5	23.7637
2094	24.0786
2094.5	23.596
2095	22.5165
2095.5	21.5772
2096	21.2297
2096.5	21.4168
2097	21.6609
2097.5	21.7532
2098	21.8839
2098.5	22.3316
2099	22.9834
2099.5	23.2365
2100	22.6606
2100.5	21.3325
2101	20.0593
2101.5	19.6297
2102	20.4021
2102.5	21.8314
2103	23.153
2103.5	23.7265
2104	23.5722
2104.5	22.9027
2105	21.8992
2105.5	20.669
2106	19.3192
2106.5	18.2239
2107	17.7619
2107.5	18.1799
2108	19.0925
2108.5	19.9499
2109	20.2716
2109.5	20.243
2110	20.2863
2110.5	20.7788
2111	21.5323
2111.5	22.1016
2112	22.2049
2112.5	22.1046
2113	22.3722
2113.5	23.213
2114	24.2475
2114.5	24.61
2115	23.9422
2115.5	22.4811
2116	21.1245
2116.5	20.5078
2117	20.7747
2117.5	21.3568
2118	21.7134
2118.5	21.4602
2119	20.6932
2119.5	19.5754
2120	18.3864
2120.5	17.46
2121	17.1372
2121.5	17.5333
2122	18.3951
2122.5	19.334
2123	20.0472
2123.5	20.5384
2124	20.9385
2124.5	21.2794
2125	21.4264
2125.5	21.2728
2126	20.9754
2126.5	20.77
2127	20.6932
2127.5	20.4946
2128	19.8329
2128.5	18.887
2129	18.2045
2129.5	18.5406
2130	19.8617
2130.5	21.5789
2131	22.5867
2131.5	22.3573
2132	20.9743
2132.5	19.473
2133	18.7233
2133.5	19.2799
2134	20.5662
2134.5	21.8373
2135	22.3683
2135.5	22.1716
2136	21.6207
2136.5	21.2707
2137	21.2916
2137.5	21.5507
2138	21.7162
2138.5	21.6348
2139	21.3254
2139.5	20.9732
2140	20.7402
2140.5	20.7709
2141	21.0854
2141.5	21.6034
2142	22.0178
2142.5	22.0396
2143	21.43
2143.5	20.4237
2144	19.3475
2144.5	18.5873
2145	18.2449
2145.5	18.2796
2146	18.4901
2146.5	18.7092
2147	18.8622
2147.5	19.0613
2148	19.5233
2148.5	20.4967
2149	21.7873
2149.5	22.9251
2150	23.2713
2150.5	22.7703
2151	21.8322
2151.5	21.1967
2152	21.0384
2152.5	20.8421
2153	19.85
2153.5	17.9023
2154	15.7971
2154.5	14.7202
2155	15.4453
2155.5	17.641
2156	20.2533
2156.5	22.2485
2157	23.2058
2157.5	23.2413
2158	22.6095
2158.5	21.7236
2159	20.8597
2159.5	20.3329
2160	20.234
2160.5	20.4621
2161	20.6725
2161.5	20.6872
2162	20.6152
2162.5	20.7774
2163	21.2565
2163.5	21.6546
2164	21.3747
2164.5	20.1041
2165	18.371
2165.5	17.1922
2166	17.5156
2166.5	19.1184
2167	20.9886
2167.5	21.7069
2168	20.9829
2168.5	19.406
2169	18.2908
2169.5	18.2853
2170	19.1775
2170.5	19.8829
2171	19.6968
2171.5	18.5317
2172	17.2048
2172.5	16.3672
2173	16.3412
2173.5	16.7936
2174	17.424
2174.5	18.0321
2175	18.5712
2175.5	18.9885
2176	19.2773
2176.5	19.5582
2177	20.0891
2177.5	20.9142
2178	21.8074
2178.5	22.3169
2179	22.3569
2179.5	22.2343
2180	22.5124
2180.5	23.2662
2181	23.9758
2181.5	23.8401
2182	22.6233
2182.5	20.8263
2183	19.5074
2183.5	19.2833
2184	19.9869
2184.5	20.8113
2185	21.0987
2185.5	20.8324
2186	20.4989
2186.5	20.718
2187	21.5586
2187.5	22.6338
2188	23.1273
2188.5	22.5549
2189	20.8799
2189.5	18.9059
2190	17.6288
2190.5	17.8179
2191	19.0639
2191.5	20.3818
2192	20.6027
2192.5	19.759
2193	18.6451
2193.5	18.5358
2194	19.7154
2194.5	21.5696
2195	22.6898
2195.5	22.3418
2196	20.5555
2196.5	18.5515
2197	17.3036
2197.5	17.3481
2198	18.1509
2198.5	19.0871
2199	19.6917
2199.5	20.0575
2200	20.4858
2200.5	21.0984
2201	21.6454
2201.5	21.5935
2202	20.8159
2202.5	19.5792
2203	18.5975
2203.5	18.3722
2204	19.0264
2204.5	20.1036
2205	21.0947
2205.5	21.7017
2206	22.0561
2206.5	22.3594
2207	22.6483
2207.5	22.6742
2208	22.1055
2208.5	20.8344
2209	19.2747
2209.5	18.086
2210	17.7971
2210.5	18.3208
2211	19.0635
2211.5	19.2296
2212	18.529
2212.5	17.3069
2213	16.3471
2213.5	16.2147
2214	16.9379
2214.5	18.0971
2215	19.2352
2215.5	19.989
2216	20.1948
2216.5	19.7529
2217	18.9995
2217.5	18.4103
2218	18.5769
2218.5	19.5396
2219	20.934
2219.5	22.022
2220	22.4303
2220.5	22.0975
2221	21.373
2221.5	20.4114
2222	19.2284
2222.5	17.9781
2223	17.0026
2223.5	16.681
2224	16.9063
2224.5	17.2047
2225	17.0356
2225.5	16.4132
2226	15.9105
2226.5	16.1253
2227	17.1698
2227.5	18.5442
2228	19.6109
2228.5	20.0817
2229	20.1927
2229.5	20.288
2230	20.5149
2230.5	20.7131
2231	20.6983
2231.5	20.3643
2232	19.8188
2232.5	19.1699
2233	18.5998
2233.5	18.3291
2234	18.6424
2234.5	19.5354
2235	20.6712
2235.5	21.4954
2236	21.7792
2236.5	21.7238
2237	21.8677
2237.5	22.4282
2238	23.1529
2238.5	23.4317
2239	23.0554
2239.5	22.2928
2240	21.8009
2240.5	21.835
2241	22.1256
2241.5	22.0682
2242	21.3629
2242.5	20.2326
2243	19.2178
2243.5	18.764
2244	18.954
2244.5	19.5857
2245	20.3245
2245.5	20.7063
2246	20.3696
2246.5	19.1565
2247	17.5928
2247.5	16.4232
2248	16.3272
2248.5	17.2051
2249	18.5082
2249.5	19.4654
2250	19.8347
2250.5	19.778
2251	19.7295
2251.5	19.8616
2252	20.1463
2252.5	20.501
2253	20.9243
2253.5	21.383
2254	21.7301
2254.5	21.6848
2255	21.1396
2255.5	20.1859
2256	19.1459
2256.5	18.417
2257	18.2995
2257.5	18.8852
2258	19.946
2258.5	21.1717
2259	22.2095
2259.5	22.9199
2260	23.2331
2260.5	23.1886
2261	22.7059
2261.5	21.7143
2262	20.446
2262.5	19.2952
2263	18.7016
2263.5	18.7187
2264	19.1264
2264.5	19.4519
2265	19.4333
2265.5	18.9907
2266	18.3413
2266.5	17.7317
2267	17.5191
2267.5	17.9074
2268	18.9611
2268.5	20.2847
2269	21.3736
2269.5	21.7123
2270	21.3126
2270.5	20.3874
2271	19.3008
2271.5	18.3754
2272	17.8337
2272.5	17.754
2273	17.9708
2273.5	18.1793
2274	18.1157
2274.5	17.8462
2275	17.7723
2275.5	18.2
2276	19.0965
2276.5	20.0207
2277	20.5961
2277.5	20.7395
2278	20.7196
2278.5	20.7219
2279	20.7492
2279.5	20.7313
2280	20.6924
2280.5	20.7014
2281	20.6976
2281.5	20.5434
2282	20.2501
2282.5	20.0956
2283	20.4363
2283.5	21.2084
2284	21.9775
2284.5	22.1305
2285	21.6444
2285.5	20.8778
2286	20.4306
2286.5	20.4929
2287	20.9026
2287.5	21.2214
2288	21.2079
2288.5	20.8299
2289	20.3683
2289.5	20.076
2290	20.1017
2290.5	20.2293
2291	20.0875
2291.5	19.3118
2292	18.0262
2292.5	16.725
2293	16.1294
2293.5	16.5471
2294	17.9383
2294.5	19.5952
2295	20.9377
2295.5	21.5207
2296	21.463
2296.5	21.0652
2297	20.7702
2297.5	20.7193
2298	20.7295
2298.5	20.4368
2299	19.7819
2299.5	19.228
2300	19.4085
2300.5	20.608
2301	22.4104
2301.5	23.9881
2302	24.6818
2302.5	24.4423
2303	23.6304
2303.5	22.6359
2304	21.7915
2304.5	21.2951
2305	21.2966
2305.5	21.5686
2306	21.6525
2306.5	21.021
2307	19.7562
2307.5	18.4985
2308	18.107
2308.5	18.7504
2309	19.7839
2309.5	20.1323
2310	19.3631
2310.5	17.9557
2311	16.902
2311.5	16.8891
2312	17.7712
2312.5	18.9195
2313	19.75
2313.5	20.1454
2314	20.226
2314.5	20.0499
2315	19.6094
2315.5	18.9694
2316	18.5492
2316.5	18.7495
2317	19.6487
2317.5	20.522
2318	20.5848
2318.5	19.4164
2319	17.8144
2319.5	16.6979
2320	16.7334
2320.5	17.533
2321	18.4194
2321.5	18.7867
2322	18.6135
2322.5	18.1287
2323	17.7167
2323.5	17.6792
2324	18.4445
2324.5	20.0489
2325	22.2348
2325.5	24.2806
2326	25.8279
2326.5	27.3604
2327	30.2026
2327.5	34.9848
2328	41.067
2328.5	45.8511
2329	46.9637
2329.5	42.9271
2330	35.5913
2330.5	27.4856
2331	21.4152
2331.5	18.1196
2332	17.1889
2332.5	17.114
2333	17.208
2333.5	17.6115
2334	18.6054
2334.5	19.9792
2335	20.7984
2335.5	20.5129
2336	19.2452
2336.5	17.9492
2337	17.2437
2337.5	17.1761
2338	17.2456
2338.5	17.3435
2339	17.8817
2339.5	19.0478
2340	20.4214
2340.5	20.9364
2341	20.1657
2341.5	18.528
2342	17.3279
2342.5	17.2586
2343	18.2213
2343.5	19.3782
2344	20.3683
2344.5	21.2079
2345	21.8855
2345.5	22.0016
2346	21.1674
2346.5	19.6903
2347	18.4997
2347.5	18.4123
2348	19.3563
2348.5	20.4321
2349	20.7703
2349.5	20.2655
2350	19.6586
2350.5	19.5727
2351	20.0347
2351.5	20.3616
2352	20.0103
2352.5	18.808
2353	17.4245
2353.5	16.5751
2354	16.8345
2354.5	17.9025
2355	19.1256
2355.5	19.6912
2356	19.4543
2356.5	18.8226
2357	18.5719
2357.5	18.9116
2358	19.4058
2358.5	19.362
2359	18.5458
2359.5	17.4461
2360	16.8031
2360.5	17.0394
2361	17.7876
2361.5	18.3909
2362	18.2851
2362.5	17.6361
2363	16.9174
2363.5	16.7073
2364	17.0345
2364.5	17.5396
2365	17.6601
2365.5	17.2727
2366	16.7369
2366.5	16.7967
2367	17.7962
2367.5	19.4898
2368	20.8372
2368.5	21.0493
2369	20.0226
2369.5	18.7149
2370	18.2489
2370.5	19.23
2371	21.1543
2371.5	22.9739
2372	23.7025
2372.5	23.0187
2373	21.1604
2373.5	19.0683
2374	17.554
2374.5	17.202
2375	17.8827
2375.5	19.1933
2376	20.4359
2376.5	21.2136
2377	21.2969
2377.5	20.9122
2378	20.2709
2378.5	19.6152
2379	19.0506
2379.5	18.4935
2380	17.698
2380.5	16.6026
2381	15.5286
2381.5	15.1792
2382	15.9972
2382.5	17.8895
2383	19.7773
2383.5	20.664
2384	20.2102
2384.5	19.1239
2385	18.3191
2385.5	18.3413
2386	18.9424
2386.5	19.4097
2387	19.1741
2387.5	18.2667
2388	17.415
2388.5	17.4612
2389	18.8136
2389.5	20.8493
2390	22.4298
2390.5	22.6363
2391	21.6667
2391.5	20.2165
2392	18.9383
2392.5	17.8844
2393	16.9199
2393.5	16.234
2394	16.2644
2394.5	17.2901
2395	18.7468
2395.5	19.8397
2396	20.1762
2396.5	20.2651
2397	20.5043
2397.5	20.6424
2398	20.0131
2398.5	18.3579
2399	16.5061
2399.5	15.5656
2400	16.1185
2400.5	17.3504
2401	18.2218
2401.5	18.1566
2402	17.813
2402.5	17.8659
2403	18.5965
2403.5	19.5855
2404	20.3665
2404.5	20.6835
2405	20.5535
2405.5	19.9346
2406	18.8789
2406.5	17.5261
2407	16.2578
2407.5	15.4423
2408	15.2567
2408.5	15.5826
2409	16.0909
2409.5	16.4978
2410	16.6807
2410.5	16.7404
2411	16.9067
2411.5	17.2755
2412	17.6907
2412.5	17.735
2413	17.285
2413.5	16.5581
2414	16.0828
2414.5	16.0511
2415	16.2074
2415.5	16.0092
2416	15.3455
2416.5	14.7242
2417	14.8392
2417.5	15.9115
2418	17.3368
2418.5	18.3092
2419	18.4851
2419.5	18.2614
2420	18.1088
2420.5	18.1764
2421	18.1831
2421.5	17.9577
2422	17.6769
2422.5	17.7001
2423	18.1888
2423.5	18.8991
2424	19.5288
2424.5	19.9415
2425	20.165
2425.5	20.172
2426	19.8195
2426.5	19.2215
2427	18.6809
2427.5	18.6425
2428	19.1401
2428.5	19.8657
2429	20.2801
2429.5	20.1868
2430	19.6797
2430.5	19.2146
2431	19.1614
2431.5	19.7655
2432	20.7116
2432.5	21.4353
2433	21.217
2433.5	19.9832
2434	18.2454
2434.5	16.9419
2435	16.5056
2435.5	16.9109
2436	17.5792
2436.5	18.2331
2437	18.8462
2437.5	19.4134
2438	19.6983
2438.5	19.3907
2439	18.6023
2439.5	17.7484
2440	17.2831
2440.5	17.2761
2441	17.5192
2441.5	17.7013
2442	17.671
2442.5	17.3598
2443	16.8356
2443.5	16.3461
2444	16.3567
2444.5	17.0741
2445	18.2827
2445.5	19.1936
2446	19.2929
2446.5	18.6316
2447	17.9309
2447.5	17.7202
2448	17.9677
2448.5	18.2373
2449	18.2819
2449.5	18.2285
2450	18.177
2450.5	17.9219
2451	17.2128
2451.5	16.0784
2452	15.0012
2452.5	14.3853
2453	14.2212
2453.5	14.0685
2454	13.8046
2454.5	13.8447
2455	14.7155
2455.5	16.4619
2456	18.4292
2456.5	19.7018
2457	19.7869
2457.5	18.9625
2458	17.9881
2458.5	17.3859
2459	17.1907
2459.5	17.1868
2460	17.2433
2460.5	17.4827
2461	18.1185
2461.5	19.1426
2462	20.02
2462.5	20.0027
2463	18.7019
2463.5	16.5581
2464	14.5858
2464.5	13.8551
2465	14.6802
2465.5	16.5951
2466	18.332
2466.5	18.9451
2467	18.3059
2467.5	17.2588
2468	16.812
2468.5	17.4875
2469	18.9251
2469.5	20.1848
2470	20.4587
2470.5	19.6098
2471	18.1934
2471.5	17.0383
2472	16.5627
2472.5	16.7283
2473	17.2646
2473.5	17.9699
2474	18.6402
2474.5	19.1092
2475	19.192
2475.5	18.9904
2476	18.7021
2476.5	18.4857
2477	18.2665
2477.5	17.8891
2478	17.4193
2478.5	17.1775
2479	17.5713
2479.5	18.4049
2480	19.0439
2480.5	18.6967
2481	17.4809
2481.5	16.107
2482	15.6499
2482.5	16.3507
2483	17.7089
2483.5	18.6354
2484	18.6808
2484.5	18.1553
2485	17.777
2485.5	17.7425
2486	17.7603
2486.5	17.6016
2487	17.4869
2487.5	17.9077
2488	18.8521
2488.5	19.6265
2489	19.4631
2489.5	18.2677
2490	16.6072
2490.5	15.2649
2491	14.5498
2491.5	14.2953
2492	14.2197
2492.5	14.296
2493	14.6485
2493.5	15.324
2494	16.2632
2494.5	17.2154
2495	17.9458
2495.5	18.215
2496	18.069
2496.5	17.732
2497	17.5672
2497.5	17.6584
2498	17.8354
2498.5	17.8239
2499	17.5832
2499.5	17.3073
2500	17.2428
2500.5	17.517
2501	18.1445
2501.5	19.0276
2502	19.9226
2502.5	20.2765
2503	19.6872
2503.5	18.131
2504	16.642
2504.5	16.2998
2505	17.5492
2505.5	19.3063
2506	20.1565
2506.5	19.1707
2507	16.9643
2507.5	14.9273
2508	14.2827
2508.5	14.9
2509	15.6228
2509.5	15.4892
2510	14.5526
2510.5	13.8336
2511	14.0977
2511.5	15.3068
2512	16.4009
2512.5	16.6609
2513	16.157
2513.5	15.7888
2514	16.0801
2514.5	16.8938
2515	17.4675
2515.5	17.2603
2516	16.364
2516.5	15.484
2517	15.3053
2517.5	15.9616
2518	17.0152
2518.5	17.6073
2519	17.2121
2519.5	15.9263
2520	14.6799
2520.5	14.3112
2521	15.038
2521.5	16.2005
2522	17.1258
2522.5	17.6154
2523	18.1419
2523.5	19.0779
2524	20.3089
2524.5	21.3
2525	21.7164
2525.5	21.5959
2526	21.236
2526.5	20.8116
2527	20.3626
2527.5	19.8561
2528	19.1899
2528.5	18.2316
2529	16.9186
2529.5	15.5468
2530	14.7585
2530.5	15.1517
2531	16.5444
2531.5	17.8969
2532	18.1091
2532.5	17.1181
2533	15.738
2533.5	15.2285
2534	15.8897
2534.5	17.1986
2535	18.0917
2535.5	18.2979
2536	18.213
2536.5	18.4664
2537	19.0096
2537.5	19.0906
2538	18.0277
2538.5	16.0196
2539	14.2443
2539.5	13.7496
2540	14.8187
2540.5	16.5395
2541	17.7076
2541.5	17.483
2542	16.1936
2542.5	14.5584
2543	13.1696
2543.5	12.1982
2544	11.7555
2544.5	12.1273
2545	13.407
2545.5	15.3889
2546	17.2561
2546.5	18.4088
2547	18.5768
2547.5	18.1728
2548	17.5451
2548.5	16.8564
2549	16.1905
2549.5	15.7736
2550	15.9328
2550.5	16.613
2551	17.4079
2551.5	17.6785
2552	17.1641
2552.5	16.0237
2553	14.9363
2553.5	14.4242
2554	14.84
2554.5	15.8649
2555	16.8876
2555.5	17.1602
2556	16.7213
2556.5	16.2701
2557	16.5558
2557.5	17.5068
2558	18.2417
2558.5	18.0693
2559	17.1746
2559.5	16.642
2560	16.959
2560.5	17.7737
2561	18.1466
2561.5	17.7477
2562	16.8786
2562.5	16.244
2563	16.1226
2563.5	16.5724
2564	17.4599
2564.5	18.5888
2565	19.3374
2565.5	19.1182
2566	17.8083
2566.5	16.4627
2567	16.059
2567.5	17.1133
2568	18.6907
2568.5	19.733
2569	19.3609
2569.5	17.9058
2570	16.0261
2570.5	14.6276
2571	14.226
2571.5	15.0924
2572	16.6249
2572.5	18.0128
2573	18.406
2573.5	17.807
2574	16.6174
2574.5	15.6747
2575	15.5765
2575.5	16.6291
2576	18.1428
2576.5	19.1314
2577	18.571
2577.5	16.8463
2578	15.0359
2578.5	14.5869
2579	15.5112
2579.5	16.7699
2580	17.1256
2580.5	16.4833
2581	15.469
2581.5	14.7775
2582	14.3968
2582.5	14.0146
2583	13.7146
2583.5	13.8569
2584	14.5249
2584.5	15.2151
2585	15.3965
2585.5	15.2661
2586	15.4352
2586.5	16.2691
2587	17.1541
2587.5	17.2921
2588	16.2214
2588.5	14.6941
2589	13.761
2589.5	14.1189
2590	15.4981
2590.5	17.1489
2591	18.0975
2591.5	17.9255
2592	16.8859
2592.5	15.9701
2593	15.9398
2593.5	17.0041
2594	18.4136
2594.5	19.1491
2595	18.721
2595.5	17.5792
2596	16.5543
2596.5	16.184
2597	16.3747
2597.5	16.6436
2598	16.706
2598.5	16.6672
2599	16.7284
2599.5	16.8264
2600	16.7489
2600.5	16.5381
2601	16.5564
2601.5	17.1944
2602	18.1504
2602.5	18.8816
2603	18.955
2603.5	18.6963
2604	18.6988
2604.5	19.1656
2605	19.7005
2605.5	19.7728
2606	19.3827
2606.5	18.8915
2607	18.6385
2607.5	18.4579
2608	18.0765
2608.5	17.4239
2609	16.7085
2609.5	16.0688
2610	15.3649
2610.5	14.463
2611	13.5424
2611.5	13.152
2612	13.7559
2612.5	15.4021
2613	17.2098
2613.5	18.1741
2614	17.7355
2614.5	16.3553
2615	15.0314
2615.5	14.6698
2616	15.1539
2616.5	15.6404
2617	15.4855
2617.5	14.7536
2618	14.1369
2618.5	14.1398
2619	14.7731
2619.5	15.6574
2620	16.566
2620.5	17.394
2621	18.0361
2621.5	18.355
2622	18.3246
2622.5	18.0988
2623	17.7056
2623.5	17.0649
2624	16.2641
2624.5	15.7796
2625	16.1418
2625.5	17.346
2626	18.7894
2626.5	19.6241
2627	19.5255
2627.5	18.9811
2628	18.7778
2628.5	19.3272
2629	20.3315
2629.5	21.1699
2630	21.2093
2630.5	20.5429
2631	19.5365
2631.5	18.5501
2632	17.6555
2632.5	16.8455
2633	16.3317
2633.5	16.2728
2634	16.4495
2634.5	16.081
2635	14.7664
2635.5	12.9918
2636	12.1314
2636.5	12.7529
2637	14.206
2637.5	15.3503
2638	15.9458
2638.5	16.9271
2639	18.7002
2639.5	20.3939
2640	20.5393
2640.5	18.8618
2641	16.6157
2641.5	15.5283
2642	15.8901
2642.5	16.6612
2643	16.8998
2643.5	16.5097
2644	16.189
2644.5	16.2956
2645	16.747
2645.5	17.2047
2646	17.4736
2646.5	17.2865
2647	16.5007
2647.5	15.2469
2648	14.1934
2648.5	13.9183
2649	14.5735
2649.5	15.3844
2650	15.6898
2650.5	15.4068
2651	15.2754
2651.5	15.9158
2652	17.3692
2652.5	18.797
2653	19.2936
2653.5	18.5235
2654	16.8784
2654.5	15.0471
2655	13.737
2655.5	13.2491
2656	13.812
2656.5	15.2361
2657	17.1455
2657.5	18.4821
2658	18.4117
2658.5	16.655
2659	14.3311
2659.5	12.7707
2660	13.1521
2660.5	14.7716
2661	16.4505
2661.5	17.0802
2662	16.6911
2662.5	15.84
2663	15.3021
2663.5	15.2506
2664	15.5657
2664.5	16.003
2665	16.4719
2665.5	16.8413
2666	16.9199
2666.5	16.587
2667	16.0533
2667.5	15.7297
2668	15.8764
2668.5	16.1599
2669	16.1769
2669.5	15.846
2670	15.645
2670.5	15.9215
2671	16.4239
2671.5	16.5338
2672	15.985
2672.5	15.193
2673	14.7144
2673.5	14.7988
2674	15.1788
2674.5	15.7211
2675	16.4731
2675.5	17.2846
2676	17.7283
2676.5	17.3973
2677	16.4792
2677.5	15.3646
2678	14.3946
2678.5	13.6419
2679	13.3277
2679.5	13.7395
2680	14.8724
2680.5	16.0018
2681	16.2403
2681.5	15.5666
2682	15.0957
2682.5	15.7308
2683	17.5146
2683.5	19.1364
2684	19.6386
2684.5	18.7245
2685	17.1717
2685.5	15.5519
2686	14.3988
2686.5	13.9663
2687	14.4348
2687.5	15.4001
2688	16.145
2688.5	16.0662
2689	15.7243
2689.5	15.9593
2690	17.2702
2690.5	18.8324
2691	19.4718
2691.5	18.7614
2692	17.614
2692.5	17.2055
2693	17.8326
2693.5	18.6265
2694	18.2304
2694.5	16.5667
2695	14.3985
2695.5	13.0021
2696	12.8379
2696.5	13.638
2697	14.7461
2697.5	15.7246
2698	16.1732
2698.5	15.7964
2699	14.6664
2699.5	13.415
2700	12.983
2700.5	13.9199
2701	15.8459
2701.5	17.7454
2702	18.898
2702.5	19.1574
2703	18.7052
2703.5	17.7319
2704	16.652
2704.5	15.8378
2705	15.5879
2705.5	15.671
2706	15.6797
2706.5	15.417
2707	15.0694
2707.5	14.8396
2708	14.6544
2708.5	14.3973
2709	14.2525
2709.5	14.516
2710	15.1734
2710.5	15.6046
2711	15.3545
2711.5	14.5296
2712	13.862
2712.5	13.807
2713	14.3438
2713.5	14.9904
2714	15.6421
2714.5	16.468
2715	17.4506
2715.5	18.2285
2716	18.0751
2716.5	17.5132
2717	16.6543
2717.5	15.7075
2718	14.865
2718.5	14.3768
2719	14.2364
2719.5	14.2548
2720	14.2407
2720.5	14.3378
2721	14.9142
2721.5	16.065
2722	17.2258
2722.5	17.7888
2723	17.4066
2723.5	16.4191
2724	15.3913
2724.5	14.6302
2725	14.2011
2725.5	13.8525
2726	13.6074
2726.5	13.4607
2727	13.3879
2727.5	13.4423
2728	13.7519
2728.5	14.2437
2729	14.6137
2729.5	14.6226
2730	14.4343
2730.5	14.6359
2731	15.4953
2731.5	16.5664
2732	16.9986
2732.5	16.3358
2733	15.3331
2733.5	15.0865
2734	15.9585
2734.5	17.0992
2735	17.0776
2735.5	15.5732
2736	13.5617
2736.5	12.4963
2737	13.1783
2737.5	14.8928
2738	16.4234
2738.5	16.9337
2739	16.3107
2739.5	15.1263
2740	14.1081
2740.5	13.6759
2741	13.8256
2741.5	14.1314
2742	14.1339
2742.5	13.881
2743	13.8632
2743.5	14.5622
2744	15.8152
2744.5	16.8075
2745	16.8952
2745.5	16.0352
2746	14.7767
2746.5	13.8131
2747	13.4859
2747.5	13.8972
2748	15.0049
2748.5	16.5116
2749	17.7417
2749.5	18.0504
2750	17.2074
2750.5	15.6472
2751	14.36
2751.5	14.0435
2752	14.7523
2752.5	15.9447
2753	16.7444
2753.5	16.6223
2754	15.6856
2754.5	14.4915
2755	13.6943
2755.5	13.6322
2756	14.1119
2756.5	14.7989
2757	15.4355
2757.5	15.9268
2758	16.3408
2758.5	16.8278
2759	17.5096
2759.5	18.3319
2760	18.9187
2760.5	18.8429
2761	18.0667
2761.5	17.0535
2762	16.496
2762.5	16.7699
2763	17.5362
2763.5	18.2307
2764	18.4809
2764.5	18.282
2765	17.9047
2765.5	17.6013
2766	17.478
2766.5	17.5009
2767	17.4967
2767.5	17.2636
2768	16.7887
2768.5	16.2796
2769	15.9964
2769.5	15.9709
2770	15.895
2770.5	15.4952
2771	14.8017
2771.5	14.1341
2772	13.8568
2772.5	14.102
2773	14.966
2773.5	16.6939
2774	19.5928
2774.5	23.5417
2775	27.5996
2775.5	30.6081
2776	31.8742
2776.5	31.6719
2777	31.1273
2777.5	31.0019
2778	31.0028
2778.5	30.1128
2779	27.4212
2779.5	23.2392
2780	18.8883
2780.5	15.6808
2781	14.2742
2781.5	14.4879
2782	15.4272
2782.5	16.2342
2783	16.4056
2783.5	15.884
2784	15.0027
2784.5	14.1995
2785	13.6077
2785.5	13.1602
2786	12.906
2786.5	13.2514
2787	14.5249
2787.5	16.4444
2788	18.1817
2788.5	18.9569
2789	18.6693
2789.5	18.0907
2790	17.8432
2790.5	17.9304
2791	17.8658
2791.5	17.2037
2792	16.1799
2792.5	15.4397
2793	15.5321
2793.5	16.5012
2794	17.7406
2794.5	18.3512
2795	17.9095
2795.5	16.6996
2796	15.4758
2796.5	14.8638
2797	14.6907
2797.5	14.3919
2798	13.7206
2798.5	13.0465
2799	13.0246
2799.5	13.6671
2800	14.2446
2800.5	14.0229
2801	12.9893
2801.5	12.035
2802	12.1515
2802.5	13.3641
2803	14.8151
2803.5	15.5129
2804	15.1776
2804.5	14.5825
2805	14.625
2805.5	15.4649
2806	16.5021
2806.5	16.9585
2807	16.6322
2807.5	15.9815
2808	15.4293
2808.5	15.0468
2809	14.6614
2809.5	14.1897
2810	13.7587
2810.5	13.5069
2811	13.5338
2811.5	13.9964
2812	15.1039
2812.5	16.7099
2813	18.2295
2813.5	18.9853
2814	18.742
2814.5	17.9302
2815	17.237
2815.5	16.8511
2816	16.4863
2816.5	15.8142
2817	14.8551
2817.5	14.0304
2818	13.7656
2818.5	14.2355
2819	15.2914
2819.5	16.4865
2820	17.2286
2820.5	17.2677
2821	16.8139
2821.5	16.2941
2822	15.9559
2822.5	15.7177
2823	15.5003
2823.5	15.5433
2824	16.1123
2824.5	17.0285
2825	17.5763
2825.5	17.1787
2826	16.173
2826.5	15.4548
2827	15.7206
2827.5	16.8823
2828	18.0768
2828.5	18.4821
2829	17.9951
2829.5	17.2193
2830	17.0323
2830.5	17.9295
2831	19.3292
2831.5	20.0471
2832	19.3069
2832.5	17.4285
2833	15.6843
2833.5	15.2624
2834	16.0432
2834.5	17.0742
2835	17.5258
2835.5	17.2881
2836	16.798
2836.5	16.4127
2837	16.1472
2837.5	15.9827
2838	16.0291
2838.5	16.3621
2839	16.7802
2839.5	16.9669
2840	16.8907
2840.5	16.843
2841	17.1183
2841.5	17.6373
2842	17.9486
2842.5	17.811
2843	17.5182
2843.5	17.672
2844	18.5871
2844.5	19.8094
2845	20.4514
2845.5	20.1616
2846	19.401
2846.5	18.9275
2847	18.9637
2847.5	18.9057
2848	18.2144
2848.5	17.1464
2849	16.4275
2849.5	16.3882
2850	16.4965
2850.5	16.0045
2851	15.0048
2851.5	14.3262
2852	14.7282
2852.5	16.2115
2853	17.9657
2853.5	18.9598
2854	18.6163
2854.5	17.0378
2855	15.0893
2855.5	14.0867
2856	14.8864
2856.5	16.7735
2857	18.243
2857.5	18.3244
2858	17.4562
2858.5	16.9855
2859	17.5604
2859.5	18.3411
2860	18.2892
2860.5	17.3828
2861	16.6661
2861.5	17.1498
2862	18.5472
2862.5	19.7142
2863	19.8616
2863.5	19.0699
2864	17.9962
2864.5	17.2476
2865	16.9848
2865.5	17.1396
2866	17.6608
2866.5	18.4512
2867	19.2111
2867.5	19.4405
2868	18.8781
2868.5	17.7269
2869	16.3815
2869.5	14.99
2870	13.3491
2870.5	11.4045
2871	9.91376
2871.5	9.96851
2872	11.924
2872.5	14.8376
2873	17.0994
2873.5	17.7405
2874	17.364
2874.5	16.9967
2875	16.9572
2875.5	16.8074
2876	16.1493
2876.5	15.2463
2877	14.6299
2877.5	14.25
2878	13.594
2878.5	12.4349
2879	11.2944
2879.5	11.0862
2880	12.051
2880.5	13.4433
2881	14.2655
2881.5	14.0637
2882	13.2189
2882.5	12.5662
2883	12.6238
2883.5	13.153
2884	13.5823
2884.5	13.6014
2885	13.4665
2885.5	13.7259
2886	14.5158
2886.5	15.1883
2887	15.0119
2887.5	13.9954
2888	13.092
2888.5	13.4215
2889	15.0439
2889.5	16.4728
2890	16.2208
2890.5	14.1907
2891	11.8633
2891.5	11.0411
2892	12.2729
2892.5	14.2924
2893	15.6567
2893.5	15.9834
2894	15.7934
2894.5	15.5768
2895	15.232
2895.5	14.506
2896	13.7303
2896.5	13.5325
2897	14.1437
2897.5	15.1586
2898	15.9624
2898.5	16.2358
2899	16.0346
2899.5	15.4594
2900	14.7195
2900.5	14.2623
2901	14.5233
2901.5	15.3979
2902	16.0461
2902.5	15.711
2903	14.4197
2903.5	12.8748
2904	11.8102
2904.5	11.4768
2905	11.6536
2905.5	11.9119
2906	11.8866
2906.5	11.3538
2907	10.4206
2907.5	9.61914
2908	9.63734
2908.5	10.7012
2909	12.234
2909.5	13.4424
2910	13.9345
2910.5	13.9368
2911	13.9487
2911.5	14.2031
2912	14.435
2912.5	14.2914
2913	13.779
2913.5	13.29
2914	13.2295
2914.5	13.6241
2915	14.1304
2915.5	14.5031
2916	14.8768
2916.5	15.434
2917	15.9856
2917.5	16.0309
2918	15.3209
2918.5	14.3122
2919	13.7523
2919.5	13.8114
2920	14.0037
2920.5	13.8245
2921	13.3606
2921.5	13.166
2922	13.5163
2922.5	13.9676
2923	13.961
2923.5	13.4049
2924	12.6572
2924.5	12.0462
2925	11.6102
2925.5	11.4108
2926	11.8247
2926.5	13.1309
2927	14.8923
2927.5	16.0573
2928	15.9097
2928.5	14.9218
2929	14.4128
2929.5	14.8836
2930	15.4293
2930.5	14.8374
2931	13.0889
2931.5	11.6191
2932	11.9638
2932.5	14.055
2933	16.0885
2933.5	16.467
2934	14.9743
2934.5	12.682
2935	10.9257
2935.5	10.386
2936	10.8894
2936.5	11.7192
2937	12.3423
2937.5	12.6493
2938	12.8563
2938.5	13.1412
2939	13.4046
2939.5	13.4531
2940	13.4026
2940.5	13.5374
2941	13.8403
2941.5	13.928
2942	13.5556
2942.5	13.0155
2943	12.759
2943.5	12.5568
2944	11.635
2944.5	9.81348
2945	8.07321
2945.5	7.80388
2946	9.48061
2946.5	12.1869
2947	14.3953
2947.5	15.2507
2948	14.8119
2948.5	13.6533
2949	12.5567
2949.5	12.2159
2950	12.7876
2950.5	13.6461
2951	13.9774
2951.5	13.845
2952	14.0693
2952.5	15.0903
2953	16.2027
2953.5	16.2136
2954	14.8587
2954.5	13.3029
2955	12.843
2955.5	13.4909
2956	14.2897
2956.5	14.4645
2957	14.0549
2957.5	13.5728
2958	13.4089
2958.5	13.7053
2959	14.4573
2959.5	15.4408
2960	16.1169
2960.5	16.0097
2961	15.2474
2961.5	14.5478
2962	14.507
2962.5	14.8915
2963	14.9421
2963.5	14.2714
2964	13.1999
2964.5	12.4023
2965	12.3304
2965.5	12.9232
2966	13.6924
2966.5	14.0454
2967	13.7905
2967.5	13.3663
2968	13.5706
2968.5	14.8066
2969	16.5053
2969.5	17.4601
2970	16.9397
2970.5	15.601
2971	14.7472
2971.5	14.8586
2972	15.2181
2972.5	14.8468
2973	13.6753
2973.5	12.6383
2974	12.6249
2974.5	13.4314
2975	14.073
2975.5	13.9639
2976	13.3567
2976.5	12.9035
2977	13.0007
2977.5	13.5911
2978	14.3767
2978.5	14.981
2979	15.0321
2979.5	14.3794
2980	13.3595
2980.5	12.6593
2981	12.7084
2981.5	13.1994
2982	13.3364
2982.5	12.6388
2983	11.5568
2983.5	11.0102
2984	11.5705
2984.5	13.0366
2985	14.5964
2985.5	15.386
2986	15.0873
2986.5	14.1884
2987	13.6227
2987.5	13.7944
2988	14.1221
2988.5	13.631
2989	12.0035
2989.5	9.99679
2990	8.75501
2990.5	8.78205
2991	9.71556
2991.5	11.0233
2992	12.6047
2992.5	14.3968
2993	15.8168
2993.5	16.0231
2994	14.8109
2994.5	13.057
2995	12.046
2995.5	12.3086
2996	13.1382
2996.5	13.5644
2997	13.3052
2997.5	12.7426
2998	12.2593
2998.5	11.8625
2999	11.5089
2999.5	11.5373
3000	12.4291
3000.5	13.9463
3001	15.0726
3001.5	15.0191
3002	14.111
3002.5	13.5072
3003	14.0213
3003.5	15.3817
3004	16.6944
3004.5	17.3727
3005	17.3604
3005.5	16.5419
3006	14.6487
3006.5	11.9547
3007	9.6273
3007.5	8.95974
3008	10.1356
3008.5	11.9626
3009	12.9424
3009.5	12.5807
3010	11.628
3010.5	11.0467
3011	11.2816
3011.5	12.1937
3012	13.4233
3012.5	14.7065
3013	15.9028
3013.5	16.8046
3014	16.962
3014.5	15.9448
3015	13.862
3015.5	11.5851
3016	10.2972
3016.5	10.6322
3017	12.1889
3017.5	13.8603
3018	14.6273
3018.5	14.1292
3019	12.7408
3019.5	11.3141
3020	10.6536
3020.5	11.0775
3021	12.19
3021.5	13.1726
3022	13.4286
3022.5	12.968
3023	12.166
3023.5	11.2554
3024	10.211
3024.5	9.13849
3025	8.49021
3025.5	8.75601
3026	9.97757
3026.5	11.6001
3027	12.8108
3027.5	13.0997
3028	12.6313
3028.5	12.1251
3029	12.2609
3029.5	13.0087
3030	13.748
3030.5	13.9581
3031	13.6933
3031.5	13.3515
3032	13.1235
3032.5	12.8798
3033	12.5785
3033.5	12.502
3034	12.8934
3034.5	13.4806
3035	13.7409
3035.5	13.4785
3036	12.8756
3036.5	12.1068
3037	11.2366
3037.5	10.5774
3038	10.7828
3038.5	12.1869
3039	14.0923
3039.5	15.0732
3040	14.3812
3040.5	12.6051
3041	10.9678
3041.5	10.299
3042	10.6969
3042.5	11.8226
3043	13.1462
3043.5	14.011
3044	13.9331
3044.5	13.1188
3045	12.4939
3045.5	12.7792
3046	13.7736
3046.5	14.7517
3047	15.3434
3047.5	15.7774
3048	16.2808
3048.5	16.5524
3049	16.0445
3049.5	14.6502
3050	12.8989
3050.5	11.5085
3051	10.8963
3051.5	11.1822
3052	12.2754
3052.5	13.7046
3053	14.6163
3053.5	14.3243
3054	12.9836
3054.5	11.5406
3055	10.8534
3055.5	10.933
3056	11.2003
3056.5	11.4084
3057	11.9446
3057.5	13.0392
3058	14.1154
3058.5	14.2411
3059	13.2085
3059.5	11.9194
3060	11.534
3060.5	12.2771
3061	13.1788
3061.5	13.0045
3062	11.4322
3062.5	9.44238
3063	8.54865
3063.5	9.59143
3064	12.1505
3064.5	14.8454
3065	16.3272
3065.5	16.2021
3066	15.1483
3066.5	14.2007
3067	13.9474
3067.5	14.3571
3068	15.1554
3068.5	16.0921
3069	16.8094
3069.5	16.7989
3070	15.7896
3070.5	14.1745
3071	12.8588
3071.5	12.5588
3072	13.2346
3072.5	14.1906
3073	14.6647
3073.5	14.3105
3074	13.2456
3074.5	11.8434
3075	10.5896
3075.5	10.0016
3076	10.4389
3076.5	11.811
3077	13.441
3077.5	14.3694
3078	13.983
3078.5	12.4843
3079	10.7965
3079.5	9.96445
3080	10.5023
3080.5	12.1037
3081	13.8236
3081.5	14.6124
3082	14.0467
3082.5	12.7147
3083	11.7924
3083.5	12.0949
3084	13.3351
3084.5	14.3752
3085	14.3148
3085.5	13.342
3086	12.4625
3086.5	12.4132
3087	12.9543
3087.5	13.2814
3088	13.0071
3088.5	12.5424
3089	12.4506
3089.5	12.6463
3090	12.557
3090.5	11.9203
3091	11.1706
3091.5	10.9323
3092	11.263
3092.5	11.5767
3093	11.316
3093.5	10.5759
3094	10.0088
3094.5	10.1678
3095	10.9431
3095.5	11.537
3096	10.9517
3096.5	8.79251
3097	5.63435
3097.5	2.6502
3098	0.74024
3098.5	0
3099	0.09628
3099.5	1.02209
3100	3.1761
3100.5	6.59226
3101	10.349
3101.5	13.06
3102	14.0009
3102.5	13.644
3103	13.1157
3103.5	13.2573
3104	14.0713
3104.5	14.8279
3105	14.6614
3105.5	13.3451
3106	11.7284
3106.5	11.1477
3107	12.0808
3107.5	13.4802
3108	13.7815
3108.5	12.6173
3109	11.2331
3109.5	11.077
3110	12.2689
3110.5	13.7181
3111	14.4986
3111.5	14.6242
3112	14.4447
3112.5	13.8433
3113	12.509
3113.5	10.7566
3114	9.5772
3114.5	9.76417
3115	11.1534
3115.5	12.8069
3116	13.8242
3116.5	13.9002
3117	13.2595
3117.5	12.3352
3118	11.6128
3118.5	11.5592
3119	12.3695
3119.5	13.6727
3120	14.7052
3120.5	15.0112
3121	14.9329
3121.5	15.079
3122	15.4244
3122.5	15.3083
3123	14.389
3123.5	13.2308
3124	12.6028
3124.5	12.4246
3125	11.9189
3125.5	10.8505
3126	10.0847
3126.5	10.58
3127	12.1814
3127.5	13.8975
3128	15.1895
3128.5	16.3537
3129	17.5241
3129.5	17.9753
3130	16.9549
3130.5	14.9452
3131	13.3317
3131.5	12.9247
3132	13.3486
3132.5	13.8349
3133	14.1186
3133.5	14.3576
3134	14.5757
3134.5	14.5703
3135	14.2439
3135.5	13.7418
3136	13.3177
3136.5	13.2549
3137	13.7864
3137.5	14.7902
3138	15.6402
3138.5	15.7563
3139	15.3798
3139.5	15.3975
3140	16.1578
3140.5	16.8063
3141	16.2505
3141.5	14.5655
3142	12.9121
3142.5	12.2415
3143	12.4914
3143.5	13.0355
3144	13.442
3144.5	13.5986
3145	13.4805
3145.5	13.1739
3146	12.9886
3146.5	13.2223
3147	13.8195
3147.5	14.4521
3148	14.8823
3148.5	15.0654
3149	15.017
3149.5	14.8992
3150	15.1772
3150.5	16.2208
3151	17.5668
3151.5	18.0161
3152	16.8942
3152.5	15.0332
3153	13.968
3153.5	14.25
3154	15.0927
3154.5	15.5904
3155	15.7691
3155.5	16.1528
3156	16.7393
3156.5	16.9005
3157	16.2549
3157.5	15.2545
3158	14.7509
3158.5	15.1251
3159	15.954
3159.5	16.4515
3160	16.1793
3160.5	15.4063
3161	14.8494
3161.5	15.0151
3162	15.7432
3162.5	16.4394
3163	16.7678
3163.5	16.959
3164	17.2953
3164.5	17.458
3165	16.7747
3165.5	15.2405
3166	13.9236
3166.5	13.8581
3167	14.6929
3167.5	15.0241
3168	14.177
3168.5	13.1537
3169	13.3813
3169.5	14.8631
3170	16.2262
3170.5	16.5416
3171	16.3173
3171.5	16.3654
3172	16.4152
3172.5	15.636
3173	14.2069
3173.5	13.4057
3174	13.9539
3174.5	15.0425
3175	15.4284
3175.5	14.9254
3176	14.2438
3176.5	13.7705
3177	13.2386
3177.5	12.4835
3178	11.8377
3178.5	11.692
3179	12.2046
3179.5	13.4859
3180	15.3975
3180.5	16.9485
3181	16.6408
3181.5	14.0305
3182	10.558
3182.5	8.27671
3183	8.06871
3183.5	9.54632
3184	12.161
3184.5	15.3602
3185	17.9423
3185.5	18.5948
3186	17.4964
3186.5	16.4713
3187	16.931
3187.5	18.2718
3188	18.9294
3188.5	18.4371
3189	17.5744
3189.5	16.8141
3190	15.6967
3190.5	13.9294
3191	12.2389
3191.5	11.6192
3192	12.225
3192.5	13.4435
3193	14.667
3193.5	15.5714
3194	15.9462
3194.5	15.7913
3195	15.5153
3195.5	15.5793
3196	15.8824
3196.5	15.8575
3197	15.2741
3197.5	14.6103
3198	14.4162
3198.5	14.5761
3199	14.5662
3199.5	14.3934
3200	14.8476
3200.5	16.5086
3201	18.6395
3201.5	19.5
3202	18.0295
3202.5	15.0733
3203	12.6512
3203.5	12.0019
3204	12.5814
3204.5	12.99
3205	12.5346
3205.5	11.6818
3206	11.2832
3206.5	11.7549
3207	12.9431
3207.5	14.414
3208	15.7383
3208.5	16.6538
3209	17.0499
3209.5	16.8177
3210	15.9118
3210.5	14.7326
3211	14.153
3211.5	14.6701
3212	15.6341
3212.5	15.8932
3213	15.3149
3213.5	15.0436
3214	15.8867
3214.5	17.0278
3215	17.0285
3215.5	15.8294
3216	14.9529
3216.5	15.637
3217	17.4442
3217.5	18.9844
3218	19.4357
3218.5	18.909
3219	17.7935
3219.5	16.4566
3220	15.4898
3220.5	15.501
3221	16.3298
3221.5	16.9199
3222	16.4619
3222.5	15.5339
3223	15.6188
3223.5	17.3431
3224	19.5439
3224.5	20.4212
3225	19.5035
3225.5	18.0987
3226	17.7118
3226.5	18.3697
3227	18.8106
3227.5	18.1147
3228	16.6955
3228.5	15.5885
3229	15.2578
3229.5	15.4235
3230	15.7714
3230.5	16.3432
3231	17.1654
3231.5	17.8653
3232	17.9187
3232.5	17.1782
3233	15.9713
3233.5	14.7293
3234	13.7043
3234.5	13.0661
3235	13.0409
3235.5	13.7283
3236	14.8256
3236.5	15.7701
3237	16.2544
3237.5	16.4342
3238	16.4861
3238.5	16.1504
3239	15.0484
3239.5	13.4404
3240	12.2804
3240.5	12.2884
3241	13.1976
3241.5	14.1963
3242	14.933
3242.5	15.6875
3243	16.5621
3243.5	16.9859
3244	16.3524
3244.5	14.9597
3245	13.9406
3245.5	14.156
3246	15.3124
3246.5	16.2873
3247	16.2992
3247.5	15.6824
3248	15.4524
3248.5	16.1019
3249	16.9408
3249.5	16.8124
3250	15.501
3250.5	14.2041
3251	14.3717
3251.5	16.123
3252	18.0486
3252.5	18.6409
3253	17.7269
3253.5	16.3833
3254	15.6725
3254.5	15.7841
3255	16.3481
3255.5	17.1174
3256	18.0144
3256.5	18.7732
3257	19.0954
3257.5	19.2714
3258	20.1024
3258.5	21.7679
3259	23.0561
3259.5	22.3704
3260	19.6412
3260.5	16.7391
3261	15.6377
3261.5	16.4356
3262	17.555
3262.5	17.6853
3263	17.0556
3263.5	16.8008
3264	17.5656
3264.5	18.9414
3265	19.9577
3265.5	19.8426
3266	18.5109
3266.5	16.6497
3267	15.2673
3267.5	14.8996
3268	15.213
3268.5	15.4669
3269	15.2669
3269.5	14.7188
3270	14.0168
3270.5	13.2499
3271	12.6618
3271.5	12.7412
3272	13.767
3272.5	15.3656
3273	16.7423
3273.5	17.3808
3274	17.4287
3274.5	17.4217
3275	17.73
3275.5	18.2741
3276	18.6746
3276.5	18.5945
3277	17.9435
3277.5	16.8662
3278	15.7088
3278.5	15.0394
3279	15.4365
3279.5	16.9049
3280	18.515
3280.5	19.0397
3281	18.2179
3281.5	17.1646
3282	17.2218
3282.5	18.5116
3283	19.9278
3283.5	20.4672
3284	20.1596
3284.5	19.6066
3285	19.0331
3285.5	18.2123
3286	17.1068
3286.5	16.1466
3287	15.7689
3287.5	15.9064
3288	16.0963
3288.5	16.0105
3289	15.7276
3289.5	15.5004
3290	15.4275
3290.5	15.4584
3291	15.5995
3291.5	15.9067
3292	16.2766
3292.5	16.4509
3293	16.3118
3293.5	16.0093
3294	15.7211
3294.5	15.4942
3295	15.4549
3295.5	15.9163
3296	17.0064
3296.5	18.3558
3297	19.4195
3297.5	19.9369
3298	19.8284
3298.5	19.0035
3299	17.8312
3299.5	17.4771
3300	18.8252
3300.5	20.9652
3301	21.7377
3301.5	20.4255
3302	18.7286
3302.5	18.5193
3303	19.4905
3303.5	19.9109
3304	19.083
3304.5	17.9054
3305	17.2399
3305.5	16.9339
3306	16.6321
3306.5	16.4792
3307	16.5433
3307.5	16.3816
3308	15.8153
3308.5	15.5276
3309	16.146
3309.5	17.0724
3310	16.9917
3310.5	15.5041
3311	13.6966
3311.5	13.0591
3312	14.2367
3312.5	16.7775
3313	19.546
3313.5	21.2379
3314	21.0321
3314.5	19.2524
3315	17.2701
3315.5	16.3867
3316	16.8376
3316.5	17.865
3317	18.67
3317.5	19.1041
3318	19.3801
3318.5	19.3265
3319	18.3636
3319.5	16.5018
3320	15.0915
3320.5	15.8979
3321	19.1078
3321.5	22.6699
3322	24.1086
3322.5	22.8555
3323	20.418
3323.5	18.5025
3324	17.6157
3324.5	17.457
3325	17.7811
3325.5	18.3389
3326	18.5353
3326.5	17.9708
3327	17.1474
3327.5	17.011
3328	17.7316
3328.5	18.3999
3329	18.1198
3329.5	17.1097
3330	16.5217
3330.5	17.3417
3331	19.6021
3331.5	22.4597
3332	24.7362
3332.5	25.4208
3333	24.0667
3333.5	21.1465
3334	18.0808
3334.5	16.5038
3335	16.988
3335.5	18.4099
3336	18.9389
3336.5	18.0177
3337	16.9463
3337.5	17.3498
3338	19.2246
3338.5	20.8753
3339	20.7393
3339.5	18.9864
3340	17.2676
3340.5	17.0701
3341	18.3989
3341.5	19.9422
3342	20.378
3342.5	19.4727
3343	17.9696
3343.5	16.6296
3344	15.6649
3344.5	15.0734
3345	15.0768
3345.5	15.8343
3346	17.0156
3346.5	18.058
3347	18.7962
3347.5	19.5449
3348	20.5579
3348.5	21.6081
3349	22.0912
3349.5	21.4564
3350	19.7467
3350.5	17.9324
3351	17.3847
3351.5	18.4966
3352	19.9691
3352.5	20.1237
3353	19.0019
3353.5	18.4485
3354	19.6097
3354.5	21.2252
3355	21.1685
3355.5	19.2203
3356	17.5006
3356.5	17.9988
3357	20.2403
3357.5	21.7973
3358	20.9292
3358.5	18.3692
3359	16.4456
3359.5	16.6755
3360	18.463
3360.5	20.1028
3361	20.6399
3361.5	20.3691
3362	19.7405
3362.5	18.5658
3363	16.7531
3363.5	15.1472
3364	14.8886
3364.5	15.9436
3365	16.9096
3365.5	16.6067
3366	15.4713
3366.5	14.9118
3367	15.491
3367.5	16.3539
3368	16.5606
3368.5	16.3625
3369	16.6674
3369.5	17.583
3370	18.3408
3370.5	18.427
3371	18.0799
3371.5	17.6361
3372	17.0944
3372.5	16.561
3373	16.447
3373.5	16.7896
3374	16.9677
3374.5	16.6523
3375	16.4674
3375.5	16.958
3376	17.4515
3376.5	17.087
3377	16.488
3377.5	17.0482
3378	18.6625
3378.5	19.5243
3379	18.6607
3379.5	17.4725
3380	17.8033
3380.5	19.2876
3381	19.8867
3381.5	18.8307
3382	17.7261
3382.5	18.3895
3383	20.4261
3383.5	22.0735
3384	22.4452
3384.5	22.1221
3385	21.8489
3385.5	21.6008
3386	21.176
3386.5	20.9481
3387	21.3528
3387.5	21.895
3388	21.3964
3388.5	19.4267
3389	17.0961
3389.5	16.0595
3390	17.0077
3390.5	19.315
3391	21.6654
3391.5	22.8662
3392	22.5283
3392.5	21.4233
3393	20.931
3393.5	21.6539
3394	22.7121
3394.5	22.8516
3395	22.0546
3395.5	21.3636
3396	21.1422
3396.5	20.7152
3397	19.8559
3397.5	19.6523
3398	21.1612
3398.5	23.7143
3399	25.3394
3399.5	24.7087
3400	22.1594
3400.5	19.1168
3401	17.2183
3401.5	17.5413
3402	19.7982
3402.5	22.105
3403	22.528
3403.5	21.1842
3404	20.0782
3404.5	20.5821
3405	21.9116
3405.5	22.5824
3406	22.4585
3406.5	22.3962
3407	22.4244
3407.5	21.7083
3408	20.1177
3408.5	18.5948
3409	17.8825
3409.5	17.8195
3410	18.1453
3410.5	19.1002
3411	20.6638
3411.5	21.8637
3412	21.6621
3412.5	20.453
3413	19.7242
3413.5	20.449
3414	22.1133
3414.5	23.3087
3415	23.0911
3415.5	21.7641
3416	20.4568
3416.5	19.9841
3417	20.1884
3417.5	20.4558
3418	20.6473
3418.5	20.9851
3419	21.2471
3419.5	20.82
3420	19.7296
3420.5	18.9303
3421	19.0761
3421.5	19.545
3422	19.3741
3422.5	18.7757
3423	18.721
3423.5	19.1437
3424	18.9212
3424.5	17.694
3425	16.6336
3425.5	16.8801
3426	18.0706
3426.5	19.1332
3427	19.8244
3427.5	20.5082
3428	20.9204
3428.5	20.5588
3429	20.0596
3429.5	20.8265
3430	23.0357
3430.5	25.0466
3431	25.3086
3431.5	24.0936
3432	22.7597
3432.5	21.9389
3433	21.2405
3433.5	20.4248
3434	19.8285
3434.5	19.7893
3435	20.2241
3435.5	20.7727
3436	21.0198
3436.5	20.6966
3437	20.0483
3437.5	19.8831
3438	20.7377
3438.5	22.184
3439	23.2563
3439.5	23.4595
3440	23.0467
3440.5	22.4733
3441	22.04
3441.5	21.9908
3442	22.3264
3442.5	22.3593
3443	21.1583
3443.5	18.7451
3444	16.5433
3444.5	16.2033
3445	18.0136
3445.5	20.6383
3446	22.3011
3446.5	22.1649
3447	20.9257
3447.5	20.004
3448	20.258
3448.5	21.0804
3449	21.067
3449.5	19.8671
3450	18.9975
3450.5	20.1976
3451	23.0067
3451.5	25.0196
3452	24.7556
3452.5	23.1028
3453	21.8229
3453.5	21.327
3454	20.6445
3454.5	19.2705
3455	18.1946
3455.5	18.682
3456	20.5163
3456.5	22.1276
3457	22.2049
3457.5	20.9352
3458	19.564
3458.5	19.0006
3459	19.2154
3459.5	19.8977
3460	21.0276
3460.5	22.4512
3461	23.5481
3461.5	23.976
3462	24.3149
3462.5	25.2069
3463	26.0669
3463.5	25.5481
3464	23.6521
3464.5	22.052
3465	22.0403
3465.5	22.9062
3466	22.8573
3466.5	21.247
3467	19.3534
3467.5	18.94
3468	20.1647
3468.5	21.3833
3469	20.9745
3469.5	18.9925
3470	17.0089
3470.5	16.5073
3471	17.7705
3471.5	20.1143
3472	22.3948
3472.5	23.3406
3473	22.3222
3473.5	20.3315
3474	19.3299
3474.5	19.9779
3475	20.8009
3475.5	20.3355
3476	19.3367
3476.5	19.3347
3477	20.1701
3477.5	20.4588
3478	19.8735
3478.5	19.496
3479	19.9474
3479.5	20.4722
3480	20.2091
3480.5	19.1748
3481	17.6574
3481.5	15.8892
3482	14.5956
3482.5	14.8656
3483	16.8522
3483.5	19.1587
3484	20.3402
3484.5	20.3819
3485	20.0507
3485.5	19.472
3486	18.1473
3486.5	16.3216
3487	15.5128
3487.5	16.8088
3488	19.1933
3488.5	20.4513
3489	19.4954
3489.5	17.2951
3490	15.4935
3490.5	14.8624
3491	15.3414
3491.5	16.7147
3492	18.5606
3492.5	20.1042
3493	20.9233
3493.5	21.3825
3494	21.8517
3494.5	21.9519
3495	21.2293
3495.5	19.887
3496	18.3213
3496.5	16.7358
3497	15.7555
3497.5	16.441
3498	18.667
3498.5	20.2964
3499	19.7567
3499.5	18.1631
3500	17.7516
3500.5	18.8297
3501	19.833
3501.5	20.1287
3502	20.8657
3502.5	22.4261
3503	23.3354
3503.5	22.3454
3504	20.2058
3504.5	18.4096
3505	17.1553
3505.5	15.8017
3506	14.76
3506.5	15.1819
3507	17.0236
3507.5	18.6574
3508	18.8127
3508.5	18.1266
3509	18.0685
3509.5	18.833
3510	19.4618
3510.5	19.4685
3511	19.4702
3511.5	20.073
3512	20.8273
3512.5	20.8169
3513	19.8392
3513.5	18.4506
3514	17.3238
3514.5	16.8267
3515	16.892
3515.5	16.9762
3516	16.6092
3516.5	16.1379
3517	16.4016
3517.5	17.4064
3518	17.9465
3518.5	17.1239
3519	15.845
3519.5	15.5268
3520	16.1835
3520.5	16.6204
3521	16.2001
3521.5	15.5689
3522	15.5953
3522.5	16.2289
3523	16.7074
3523.5	16.1882
3524	14.3364
3524.5	11.6582
3525	9.06385
3525.5	6.83021
3526	4.73695
3526.5	3.44206
3527	4.57225
3527.5	8.62954
3528	13.5087
3528.5	16.2792
3529	16.3522
3529.5	15.2141
3530	14.1887
3530.5	13.5573
3531	13.4498
3531.5	14.1926
3532	15.4526
3532.5	16.3311
3533	16.4112
3533.5	16.1145
3534	15.9583
3534.5	15.9757
3535	15.8722
3535.5	15.3471
3536	14.3127
3536.5	13.2252
3537	12.9359
3537.5	13.7683
3538	14.9074
3538.5	15.4217
3539	15.2711
3539.5	14.9254
3540	14.481
3540.5	13.7562
3541	13.0844
3541.5	13.2339
3542	14.5638
3542.5	16.6318
3543	18.5109
3543.5	19.2938
3544	18.666
3544.5	17.2318
3545	16.0508
3545.5	15.7394
3546	15.9925
3546.5	16.1134
3547	15.9008
3547.5	15.7942
3548	16.2825
3548.5	17.3828
3549	18.487
3549.5	18.6595
3550	17.5174
3550.5	15.7791
3551	14.6103
3551.5	14.4767
3552	14.9178
3552.5	15.5782
3553	16.7658
3553.5	18.3395
3554	18.9758
3554.5	17.6435
3555	15.5052
3555.5	15.0476
3556	16.4814
3556.5	17.3256
3557	15.8117
3557.5	13.3367
3558	12.4821
3558.5	13.3897
3559	13.9033
3559.5	13.1218
3560	12.4274
3560.5	13.3501
3561	15.4789
3561.5	16.8706
3562	16.2498
3562.5	14.0666
3563	12.0716
3563.5	11.9122
3564	13.6599
3564.5	15.4612
3565	15.5771
3565.5	14.0351
3566	12.4083
3566.5	12.0509
3567	12.682
3567.5	12.8893
3568	11.9295
3568.5	10.6615
3569	10.7927
3569.5	13.0233
3570	15.8416
3570.5	17.1193
3571	16.13
3571.5	13.9181
3572	12.0843
3572.5	11.64
3573	12.6343
3573.5	14.3302
3574	15.4573
3574.5	15.1818
3575	14.064
3575.5	13.5301
3576	14.1092
3576.5	14.9671
3577	14.9055
3577.5	13.4816
3578	11.4523
3578.5	10.3146
3579	11.1205
3579.5	13.2336
3580	14.4637
3580.5	13.2576
3581	10.8102
3581.5	9.44949
3582	10.075
3582.5	11.7124
3583	13.2463
3583.5	14.5965
3584	15.9356
3584.5	16.8435
3585	16.6195
3585.5	15.0901
3586	13.2058
3586.5	12.5021
3587	13.6412
3587.5	15.4528
3588	16.0593
3588.5	15.3155
3589	14.9771
3589.5	15.9553
3590	17.1911
3590.5	17.3835
3591	16.7109
3591.5	16.0516
3592	15.5444
3592.5	15.0005
3593	14.4598
3593.5	13.7902
3594	12.7704
3594.5	11.9578
3595	12.2307
3595.5	13.2135
3596	13.2844
3596.5	11.9842
3597	10.7074
3597.5	10.8502
3598	12.3146
3598.5	13.9696
3599	14.7656
3599.5	14.1928
3600	12.5494
3600.5	11.0814
3601	11.044
3601.5	12.1616
3602	13.2397
3602.5	13.629
3603	13.4993
3603.5	13.0513
3604	12.4648
3604.5	12.3657
3605	13.2853
3605.5	14.588
3606	14.7538
3606.5	13.3304
3607	11.522
3607.5	10.908
3608	12.0474
3608.5	14.2496
3609	16.2145
3609.5	16.8426
3610	15.6766
3610.5	13.2821
3611	11.1402
3611.5	10.5238
3612	11.4321
3612.5	12.6799
3613	13.0141
3613.5	12.3091
3614	11.5314
3614.5	11.4764
3615	12.0784
3615.5	12.7208
3616	12.9931
3616.5	12.9848
3617	13.0583
3617.5	13.6465
3618	14.9206
3618.5	16.2702
3619	16.6892
3619.5	15.9058
3620	14.8372
3620.5	14.4771
3621	14.5401
3621.5	14.2942
3622	13.9538
3622.5	14.3257
3623	15.2513
3623.5	15.7114
3624	15.4867
3624.5	15.099
3625	14.2499
3625.5	12.0274
3626	9.22152
3626.5	8.29
3627	10.3754
3627.5	13.5955
3628	15.5777
3628.5	16.3833
3629	16.9969
3629.5	16.8999
3630	14.8764
3630.5	11.8032
3631	9.99801
3631.5	10.3429
3632	11.3055
3632.5	11.3084
3633	10.9708
3633.5	11.8476
3634	13.9073
3634.5	14.95
3635	13.5085
3635.5	10.9708
3636	9.9601
3636.5	10.9344
3637	11.5446
3637.5	10.4287
3638	8.95929
3638.5	8.93356
3639	10.0491
3639.5	11.0397
3640	11.8333
3640.5	12.7077
3641	12.8704
3641.5	11.7008
3642	10.2809
3642.5	10.0564
3643	10.8431
3643.5	11.2698
3644	10.9332
3644.5	10.6616
3645	11.2594
3645.5	12.6578
3646	13.8485
3646.5	13.78
3647	12.5357
3647.5	11.5647
3648	11.7436
3648.5	11.8568
3649	10.6746
3649.5	9.37346
3650	10.1688
3650.5	12.3463
3651	12.9177
3651.5	10.7491
3652	8.32706
3652.5	8.40336
3653	10.4452
3653.5	11.8478
3654	11.1153
3654.5	9.49896
3655	9.25782
3655.5	11.0083
3656	13.1183
3656.5	13.5469
3657	12.4762
3657.5	11.5077
3658	11.2492
3658.5	10.8042
3659	10.056
3659.5	10.4417
3660	12.5108
3660.5	14.2366
3661	13.38
3661.5	10.7409
3662	9.03733
3662.5	9.64964
3663	11.2141
3663.5	11.7963
3664	10.9677
3664.5	9.51548
3665	8.28228
3665.5	7.55884
3666	7.43365
3666.5	7.9768
3667	8.79832
3667.5	8.81
3668	7.46615
3668.5	5.99511
3669	6.628
3669.5	9.34933
3670	11.6986
3670.5	11.9682
3671	11.5146
3671.5	12.5024
3672	14.3161
3672.5	14.689
3673	13.0501
3673.5	11.331
3674	10.9455
3674.5	11.3961
3675	11.5065
3675.5	10.8906
3676	9.97636
3676.5	9.4066
3677	9.62217
3677.5	10.2963
3678	10.5294
3678.5	9.92313
3679	9.05453
3679.5	8.61162
3680	8.43217
3680.5	8.12501
3681	8.067
3681.5	9.11528
3682	11.1365
3682.5	12.7346
3683	12.5699
3683.5	11.0666
3684	9.96346
3684.5	10.0855
3685	10.5375
3685.5	10.1627
3686	9.27097
3686.5	8.90245
3687	9.33784
3687.5	9.88754
3688	9.9207
3688.5	9.27914
3689	8.22931
3689.5	7.71378
3690	8.77563
3690.5	11.1474
3691	12.8869
3691.5	12.5709
3692	11.289
3692.5	11.0893
3693	12.2586
3693.5	12.9082
3694	11.8467
3694.5	10.0076
3695	9.04407
3695.5	9.17161
3696	9.44239
3696.5	9.27781
3697	8.91679
3697.5	8.81409
3698	9.25169
3698.5	10.3908
3699	11.9181
3699.5	12.8738
3700	12.6933
