#Imported=	16.12.2021 13:58:48
60	63.7976
60.5	62.3548
61	61.8102
61.5	61.8715
62	62.0902
62.5	62.242
63	62.3294
63.5	62.5289
64	63.2691
64.5	64.6845
65	66.7712
65.5	69.2991
66	71.9298
66.5	74.3688
67	76.6213
67.5	78.9588
68	81.8671
68.5	85.6128
69	90.493
69.5	96.5208
70	103.078
70.5	109.715
71	115.942
71.5	121.44
72	125.751
72.5	129.161
73	131.826
73.5	133.898
74	135.711
74.5	137.504
75	139.494
75.5	141.724
76	144.167
76.5	146.63
77	148.798
77.5	150.076
78	150.31
78.5	149.311
79	147.063
79.5	144.087
80	141.109
80.5	138.958
81	138.026
81.5	138.671
82	140.431
82.5	142.604
83	144.166
83.5	144.679
84	143.974
84.5	142.357
85	140.62
85.5	139.635
86	139.713
86.5	140.708
87	142.276
87.5	143.659
88	144.2
88.5	143.563
89	142.006
89.5	139.725
90	137.096
90.5	134.478
91	132.127
91.5	130.145
92	128.62
92.5	127.745
93	127.501
93.5	127.844
94	128.502
94.5	129.136
95	129.425
95.5	129.158
96	128.313
96.5	127.017
97	125.554
97.5	124.092
98	122.784
98.5	121.729
99	121.077
99.5	120.974
100	121.481
100.5	122.714
101	124.447
101.5	126.252
102	127.464
102.5	127.793
103	127.061
103.5	125.397
104	123.435
104.5	121.929
105	121.357
105.5	121.773
106	123.133
106.5	124.837
107	126.26
107.5	126.822
108	126.473
108.5	125.194
109	123.238
109.5	121.079
110	119.233
110.5	118.006
111	117.49
111.5	117.746
112	118.368
112.5	118.898
113	118.849
113.5	118.125
114	116.749
114.5	115.094
115	113.729
115.5	113.272
116	113.755
116.5	115.015
117	116.7
117.5	118.2
118	118.942
118.5	118.723
119	117.758
119.5	116.282
120	114.74
120.5	113.535
121	113.049
121.5	113.168
122	113.783
122.5	114.685
123	115.575
123.5	116.181
124	116.433
124.5	116.416
125	116.238
125.5	116.06
126	115.978
126.5	116.007
127	116.041
127.5	116.005
128	115.866
128.5	115.672
129	115.523
129.5	115.501
130	115.598
130.5	115.775
131	115.954
131.5	116.096
132	116.222
132.5	116.386
133	116.593
133.5	116.757
134	116.747
134.5	116.334
135	115.475
135.5	114.345
136	113.206
136.5	112.346
137	111.987
137.5	112.227
138	112.785
138.5	113.381
139	113.795
139.5	113.967
140	113.926
140.5	113.876
141	113.949
141.5	114.182
142	114.491
142.5	114.805
143	115.103
143.5	115.481
144	116.125
144.5	117.099
145	118.343
145.5	119.672
146	120.725
146.5	121.175
147	120.898
147.5	120.121
148	119.093
148.5	118.171
149	117.617
149.5	117.507
150	117.599
150.5	117.68
151	117.544
151.5	117.169
152	116.641
152.5	116.195
153	115.974
153.5	116.079
154	116.449
154.5	116.969
155	117.481
155.5	117.848
156	117.97
156.5	117.724
157	117.091
157.5	115.986
158	114.446
158.5	112.743
159	111.191
159.5	110.108
160	109.737
160.5	110.386
161	111.835
161.5	113.77
162	115.846
162.5	117.775
163	119.361
163.5	120.593
164	121.585
164.5	122.417
165	123.109
165.5	123.557
166	123.561
166.5	123.042
167	122.021
167.5	120.815
168	119.782
168.5	119.32
169	119.555
169.5	120.423
170	121.579
170.5	122.52
171	122.928
171.5	122.622
172	121.758
172.5	120.483
173	119.075
173.5	117.671
174	116.321
174.5	115.057
175	113.96
175.5	113.249
176	112.997
176.5	113.158
177	113.481
177.5	113.628
178	113.249
178.5	112.288
179	111.05
179.5	110.108
180	109.814
180.5	110.331
181	111.495
181.5	112.719
182	113.387
182.5	113.309
183	112.725
183.5	112.082
184	111.898
184.5	112.484
185	113.766
185.5	115.062
186	115.802
186.5	115.563
187	114.426
187.5	112.664
188	111.018
188.5	109.986
189	109.923
189.5	110.537
190	111.49
190.5	112.265
191	112.48
191.5	112.035
192	111.135
192.5	110.091
193	109.198
193.5	108.627
194	108.418
194.5	108.513
195	108.783
195.5	109.214
196	109.816
196.5	110.56
197	111.381
197.5	112.111
198	112.652
198.5	112.963
199	113.199
199.5	113.543
200	114.198
200.5	115.053
201	115.801
201.5	116.066
202	115.686
202.5	114.633
203	113.395
203.5	112.591
204	112.786
204.5	113.794
205	115.255
205.5	116.493
206	116.952
206.5	116.29
207	115.044
207.5	113.877
208	113.503
208.5	114.106
209	115.572
209.5	117.398
210	118.854
210.5	119.543
211	119.422
211.5	118.8
212	118.042
212.5	117.573
213	117.586
213.5	118.118
214	118.901
214.5	119.71
215	120.26
215.5	120.379
216	119.914
216.5	119.043
217	118.037
217.5	117.207
218	116.765
218.5	116.785
219	117.199
219.5	117.621
220	117.772
220.5	117.493
221	116.856
221.5	115.997
222	115.172
222.5	114.567
223	114.311
223.5	114.357
224	114.716
224.5	115.413
225	116.378
225.5	117.55
226	118.701
226.5	119.646
227	120.21
227.5	120.447
228	120.498
228.5	120.587
229	120.852
229.5	121.216
230	121.438
230.5	121.307
231	120.651
231.5	119.615
232	118.572
232.5	118.066
233	118.274
233.5	119.196
234	120.595
234.5	121.981
235	122.89
235.5	123.059
236	122.707
236.5	122.148
237	121.847
237.5	122.153
238	123.443
238.5	125.552
239	128.154
239.5	130.704
240	132.725
240.5	133.751
241	133.688
241.5	132.753
242	131.376
242.5	130.27
243	129.85
243.5	130.372
244	131.525
244.5	132.903
245	133.867
245.5	134.018
246	133.215
246.5	131.818
247	130.262
247.5	129.062
248	128.464
248.5	128.568
249	129.081
249.5	129.591
250	129.775
250.5	129.477
251	128.738
251.5	127.644
252	126.446
252.5	125.304
253	124.311
253.5	123.467
254	122.793
254.5	122.31
255	122.03
255.5	122
256	122.167
256.5	122.473
257	122.879
257.5	123.327
258	123.796
258.5	124.254
259	124.637
259.5	124.824
260	124.723
260.5	124.348
261	123.8
261.5	123.378
262	123.48
262.5	124.503
263	126.295
263.5	128.635
264	131.02
264.5	132.939
265	133.875
265.5	133.702
266	132.733
266.5	131.294
267	129.833
267.5	128.588
268	127.69
268.5	127.056
269	126.619
269.5	126.29
270	126.051
270.5	125.952
271	126.007
271.5	126.226
272	126.628
272.5	127.164
273	127.805
273.5	128.512
274	129.225
274.5	129.867
275	130.37
275.5	130.69
276	130.748
276.5	130.597
277	130.23
277.5	129.602
278	128.745
278.5	127.687
279	126.589
279.5	125.744
280	125.584
280.5	126.297
281	127.888
281.5	130.275
282	132.884
282.5	135.186
283	136.537
283.5	136.921
284	136.448
284.5	135.613
285	134.926
285.5	134.892
286	135.596
286.5	136.905
287	138.379
287.5	139.59
288	140.308
288.5	140.569
289	140.683
289.5	141.06
290	142.034
290.5	143.593
291	145.473
291.5	147.15
292	148.166
292.5	148.11
293	147.053
293.5	145.053
294	142.527
294.5	139.863
295	137.305
295.5	134.984
296	132.98
296.5	131.421
297	130.308
297.5	129.696
298	129.504
298.5	129.556
299	129.738
299.5	129.96
300	130.226
300.5	130.637
301	131.244
301.5	131.983
302	132.635
302.5	132.964
303	132.726
303.5	131.881
304	130.626
304.5	129.289
305	128.286
305.5	127.818
306	128.003
306.5	128.576
307	129.292
307.5	129.834
308	129.994
308.5	129.638
309	128.938
309.5	128.135
310	127.529
310.5	127.316
311	127.603
311.5	128.391
312	129.411
312.5	130.4
313	131.162
313.5	131.666
314	131.916
314.5	132.005
315	131.964
315.5	131.699
316	131.167
316.5	130.393
317	129.555
317.5	128.921
318	128.771
318.5	129.176
319	129.961
319.5	130.784
320	131.303
320.5	131.467
321	131.499
321.5	131.809
322	132.773
322.5	134.506
323	136.69
323.5	138.748
324	140.201
324.5	140.969
325	141.232
325.5	141.568
326	142.421
326.5	144.031
327	146.067
327.5	147.927
328	149.088
328.5	149.482
329	149.329
329.5	149.293
330	149.95
330.5	151.817
331	154.579
331.5	157.601
332	160.037
332.5	161.369
333	161.157
333.5	159.62
334	157.206
334.5	154.394
335	151.807
335.5	149.796
336	148.591
336.5	148.057
337	148.066
337.5	148.277
338	148.319
338.5	147.757
339	146.471
339.5	144.634
340	142.554
340.5	140.674
341	139.317
341.5	138.614
342	138.344
342.5	138.19
343	137.763
343.5	136.939
344	135.725
344.5	134.386
345	133.137
345.5	132.16
346	131.442
346.5	130.945
347	130.597
347.5	130.4
348	130.491
348.5	130.931
349	131.695
349.5	132.633
350	133.403
350.5	133.617
351	133.026
351.5	131.851
352	130.404
352.5	129.165
353	128.448
353.5	128.464
354	128.926
354.5	129.462
355	129.65
355.5	129.463
356	129.082
356.5	128.884
357	129.138
357.5	129.993
358	131.19
358.5	132.325
359	132.871
359.5	132.804
360	132.243
360.5	131.513
361	130.965
361.5	130.822
362	131.054
362.5	131.447
363	131.718
363.5	131.739
364	131.549
364.5	131.324
365	131.296
365.5	131.663
366	132.494
366.5	133.628
367	134.788
367.5	135.624
368	135.954
368.5	135.616
369	134.855
369.5	133.903
370	133.063
370.5	132.526
371	132.404
371.5	132.582
372	132.876
372.5	133.133
373	133.239
373.5	133.126
374	132.705
374.5	132.025
375	131.142
375.5	130.255
376	129.592
376.5	129.361
377	129.54
377.5	129.928
378	130.177
378.5	129.981
379	129.179
379.5	127.829
380	126.413
380.5	125.364
381	124.967
381.5	125.181
382	125.851
382.5	126.566
383	127.001
383.5	126.83
384	126.121
384.5	125.054
385	123.902
385.5	122.922
386	122.296
386.5	122.011
387	121.897
387.5	121.694
388	121.177
388.5	120.322
389	119.358
389.5	118.676
390	118.692
390.5	119.646
391	121.403
391.5	123.745
392	126.157
392.5	128.208
393	129.508
393.5	130.12
394	130.075
394.5	129.488
395	128.613
395.5	127.626
396	126.706
396.5	125.944
397	125.344
397.5	124.753
398	124.06
398.5	123.233
399	122.422
399.5	121.871
400	121.821
400.5	122.281
401	123.14
401.5	124.018
402	124.656
402.5	124.951
403	125.115
403.5	125.368
404	125.872
404.5	126.536
405	127.14
405.5	127.431
406	127.399
406.5	127.263
407	127.333
407.5	127.735
408	128.372
408.5	128.863
409	128.849
409.5	128.182
410	127.195
410.5	126.517
411	126.658
411.5	127.666
412	129.273
412.5	130.717
413	131.369
413.5	130.739
414	129.102
414.5	126.878
415	124.81
415.5	123.382
416	122.946
416.5	123.386
417	124.528
417.5	126.216
418	128.059
418.5	129.712
419	130.72
419.5	130.819
420	129.883
420.5	128.278
421	126.529
421.5	125.238
422	124.679
422.5	124.884
423	125.67
423.5	126.637
424	127.64
424.5	128.808
425	130.362
425.5	132.476
426	134.872
426.5	137.03
427	138.053
427.5	137.591
428	135.476
428.5	132.118
429	128.64
429.5	126.174
430	125.413
430.5	126.387
431	128.987
431.5	132.278
432	135.489
432.5	137.805
433	138.973
433.5	138.83
434	137.707
434.5	136.184
435	134.742
435.5	133.804
436	133.597
436.5	134.424
437	136.074
437.5	138.398
438	141.069
438.5	143.569
439	145.372
439.5	146.149
440	145.905
440.5	144.678
441	142.982
441.5	141.244
442	139.876
442.5	138.966
443	138.467
443.5	138.138
444	137.736
444.5	137.152
445	136.447
445.5	135.749
446	135.238
446.5	134.987
447	135.022
447.5	135.305
448	135.677
448.5	135.964
449	135.998
449.5	135.709
450	135.036
450.5	134.115
451	133.105
451.5	132.215
452	131.579
452.5	131.293
453	131.375
453.5	131.713
454	132.202
454.5	132.705
455	133.107
455.5	133.27
456	133.179
456.5	132.847
457	132.352
457.5	131.845
458	131.441
458.5	131.192
459	131.05
459.5	130.983
460	130.983
460.5	131.095
461	131.426
461.5	131.96
462	132.634
462.5	133.278
463	133.72
463.5	133.809
464	133.613
464.5	133.281
465	132.939
465.5	132.644
466	132.355
466.5	131.974
467	131.456
467.5	130.81
468	130.122
468.5	129.485
469	128.926
469.5	128.372
470	127.748
470.5	127.007
471	126.233
471.5	125.543
472	125.07
472.5	124.81
473	124.691
473.5	124.542
474	124.235
474.5	123.739
475	123.21
475.5	122.828
476	122.803
476.5	123.134
477	123.77
477.5	124.525
478	125.173
478.5	125.481
479	125.34
479.5	124.768
480	123.849
480.5	122.857
481	122.017
481.5	121.538
482	121.394
482.5	121.461
483	121.454
483.5	121.156
484	120.47
484.5	119.689
485	119.271
485.5	119.788
486	121.202
486.5	123.257
487	125.287
487.5	126.623
488	126.703
488.5	125.604
489	123.814
489.5	121.983
490	120.72
490.5	120.286
491	120.628
491.5	121.35
492	122.203
492.5	122.988
493	123.614
493.5	123.958
494	123.936
494.5	123.477
495	122.496
495.5	121.242
496	120.019
496.5	119.213
497	118.97
497.5	119.354
498	120.152
498.5	121.07
499	121.806
499.5	122.19
500	122.162
500.5	121.762
501	121.258
501.5	120.954
502	121.143
502.5	121.852
503	122.977
503.5	124.106
504	124.842
504.5	124.72
505	123.834
505.5	122.379
506	120.803
506.5	119.574
507	119.074
507.5	119.393
508	120.28
508.5	121.477
509	122.587
509.5	123.316
510	123.378
510.5	122.862
511	121.929
511.5	120.956
512	120.313
512.5	120.284
513	120.771
513.5	121.436
514	121.856
514.5	121.907
515	121.728
515.5	121.726
516	122.255
516.5	123.522
517	125.311
517.5	127.131
518	128.358
518.5	128.659
519	127.956
519.5	126.352
520	124.45
520.5	122.692
521	121.542
521.5	121.193
522	121.817
522.5	123.161
523	124.783
523.5	126.086
524	126.645
524.5	126.269
525	125.083
525.5	123.732
526	122.833
526.5	122.766
527	123.454
527.5	124.65
528	125.832
528.5	126.621
529	126.682
529.5	126.155
530	125.217
530.5	124.224
531	123.548
531.5	123.567
532	124.346
532.5	125.626
533	126.955
533.5	127.772
534	127.682
534.5	126.489
535	124.685
535.5	122.859
536	121.713
536.5	121.561
537	122.512
537.5	124.035
538	125.503
538.5	126.239
539	126.145
539.5	125.286
540	123.962
540.5	122.589
541	121.427
541.5	120.541
542	119.836
542.5	119.205
543	118.6
543.5	118.121
544	118.036
544.5	118.485
545	119.489
545.5	120.79
546	121.991
546.5	122.722
547	122.91
547.5	122.733
548	122.508
548.5	122.531
549	122.893
549.5	123.46
550	123.937
550.5	124.091
551	123.893
551.5	123.528
552	123.21
552.5	123.038
553	122.98
553.5	122.928
554	122.797
554.5	122.562
555	122.236
555.5	121.825
556	121.248
556.5	120.443
557	119.444
557.5	118.424
558	117.699
558.5	117.524
559	118.019
559.5	118.911
560	119.898
560.5	120.641
561	120.977
561.5	120.789
562	120.165
562.5	119.168
563	117.801
563.5	116.257
564	114.79
564.5	113.84
565	113.719
565.5	114.636
566	116.266
566.5	118.062
567	119.349
567.5	119.784
568	119.298
568.5	118.08
569	116.69
569.5	115.576
570	115.079
570.5	115.236
571	116.037
571.5	117.173
572	118.304
572.5	118.983
573	119.045
573.5	118.447
574	117.406
574.5	116.361
575	115.679
575.5	115.455
576	115.465
576.5	115.298
577	114.679
577.5	113.64
578	112.604
578.5	112.141
579	112.668
579.5	114.071
580	115.609
580.5	116.428
581	116.153
581.5	115.019
582	113.712
582.5	113.086
583	113.61
583.5	115.24
584	117.218
584.5	118.796
585	119.498
585.5	119.424
586	118.926
586.5	118.538
587	118.479
587.5	118.65
588	118.714
588.5	118.479
589	118
589.5	117.564
590	117.514
590.5	118.001
591	118.951
591.5	120.205
592	121.464
592.5	122.543
593	123.289
593.5	123.688
594	123.662
594.5	123.193
595	122.369
595.5	121.326
596	120.338
596.5	119.624
597	119.432
597.5	119.724
598	120.485
598.5	121.653
599	123.114
599.5	124.875
600	126.901
600.5	129.118
601	131.404
601.5	133.564
602	135.444
602.5	136.951
603	138.238
603.5	139.505
604	140.92
604.5	142.431
605	143.74
605.5	144.462
606	144.351
606.5	143.251
607	141.674
607.5	140.11
608	139.032
608.5	138.457
609	138.078
609.5	137.319
610	135.816
610.5	133.443
611	130.776
611.5	128.492
612	127.263
612.5	127.011
613	127.452
613.5	128.008
614	128.244
614.5	127.992
615	127.516
615.5	127.189
616	127.473
616.5	128.406
617	129.894
617.5	131.595
618	133.049
618.5	133.801
619	133.598
619.5	132.487
620	130.533
620.5	128.206
621	125.908
621.5	124.056
622	122.811
622.5	122.33
623	122.634
623.5	123.516
624	124.775
624.5	126
625	126.807
625.5	126.704
626	125.716
626.5	123.992
627	121.962
627.5	120.199
628	119.189
628.5	119.145
629	119.936
629.5	121.442
630	123.273
630.5	125.143
631	126.692
631.5	127.66
632	127.762
632.5	126.887
633	125.371
633.5	123.679
634	122.451
634.5	122.092
635	122.919
635.5	124.518
636	126.45
636.5	128.186
637	129.422
637.5	130.006
638	129.997
638.5	129.576
639	128.815
639.5	127.868
640	126.846
640.5	125.856
641	124.956
641.5	124.149
642	123.411
642.5	122.737
643	122.231
643.5	122.027
644	122.169
644.5	122.584
645	122.92
645.5	122.814
646	121.93
646.5	120.466
647	118.801
647.5	117.531
648	117.011
648.5	117.41
649	118.356
649.5	119.402
650	120.183
650.5	120.667
651	120.949
651.5	121.162
652	121.353
652.5	121.452
653	121.391
653.5	121.203
654	121.019
654.5	120.985
655	121.144
655.5	121.412
656	121.609
656.5	121.628
657	121.511
657.5	121.432
658	121.56
658.5	121.883
659	122.23
659.5	122.314
660	122.071
660.5	121.627
661	121.315
661.5	121.397
662	121.963
662.5	122.752
663	123.346
663.5	123.294
664	122.568
664.5	121.41
665	120.302
665.5	119.691
666	119.81
666.5	120.538
667	121.403
667.5	121.882
668	121.639
668.5	120.675
669	119.14
669.5	117.516
670	116.138
670.5	115.248
671	114.759
671.5	114.555
672	114.488
672.5	114.495
673	114.613
673.5	114.847
674	115.132
674.5	115.283
675	115.136
675.5	114.576
676	113.629
676.5	112.52
677	111.474
677.5	110.666
678	110.139
678.5	109.93
679	109.969
679.5	110.249
680	110.767
680.5	111.375
681	111.842
681.5	111.866
682	111.321
682.5	110.192
683	108.86
683.5	107.763
684	107.416
684.5	107.84
685	108.968
685.5	110.546
686	112.199
686.5	113.629
687	114.6
687.5	114.996
688	114.633
688.5	113.678
689	112.365
689.5	111.086
690	110.232
690.5	110.114
691	110.818
691.5	112.084
692	113.611
692.5	114.959
693	115.81
693.5	115.802
694	115.071
694.5	113.817
695	112.463
695.5	111.44
696	111.007
696.5	111.016
697	111.021
697.5	110.516
698	109.418
698.5	108.006
699	106.9
699.5	106.549
700	107.112
700.5	108.25
701	109.304
701.5	109.664
702	109.111
702.5	107.785
703	105.867
703.5	103.75
704	101.674
704.5	99.9446
705	98.8163
705.5	98.6502
706	99.5645
706.5	101.261
707	103.288
707.5	105.024
708	106.144
708.5	106.551
709	106.672
709.5	106.818
710	107.116
710.5	107.378
711	107.261
711.5	106.587
712	105.517
712.5	104.455
713	103.839
713.5	103.874
714	104.518
714.5	105.326
715	105.911
715.5	106.038
716	105.796
716.5	105.396
717	105.089
717.5	104.939
718	104.842
718.5	104.634
719	104.314
719.5	104.159
720	104.536
720.5	105.778
721	107.695
721.5	109.654
722	110.697
722.5	110.349
723	108.655
723.5	106.219
724	104.117
724.5	103.095
725	103.292
725.5	104.099
726	104.788
726.5	104.866
727	104.377
727.5	103.717
728	103.412
728.5	103.711
729	104.554
729.5	105.545
730	106.369
730.5	106.848
731	106.995
731.5	106.852
732	106.587
732.5	106.341
733	106.275
733.5	106.399
734	106.606
734.5	106.614
735	106.203
735.5	105.273
736	104.126
736.5	103.199
737	102.991
737.5	103.437
738	104.213
738.5	104.751
739	104.731
739.5	104.184
740	103.604
740.5	103.506
741	104.235
741.5	105.483
742	106.727
742.5	107.338
743	107.224
743.5	106.539
744	105.665
744.5	104.877
745	104.13
745.5	103.144
746	101.733
746.5	99.933
747	98.2468
747.5	97.2382
748	97.4743
748.5	98.7868
749	100.858
749.5	103.047
750	104.825
750.5	105.802
751	105.993
751.5	105.513
752	104.407
752.5	102.99
753	101.537
753.5	100.469
754	100.068
754.5	100.537
755	101.619
755.5	102.79
756	103.369
756.5	103.024
757	101.742
757.5	99.836
758	97.9977
758.5	96.8069
759	96.6432
759.5	97.4108
760	98.936
760.5	100.694
761	102.212
761.5	102.928
762	102.753
762.5	101.72
763	100.184
763.5	98.7782
764	98.0816
764.5	98.3417
765	99.3109
765.5	100.497
766	101.275
766.5	101.351
767	100.778
767.5	100.176
768	100.162
768.5	101.171
769	103.033
769.5	105.367
770	107.514
770.5	109.018
771	109.433
771.5	108.894
772	107.496
772.5	105.435
773	103.181
773.5	101.239
774	100.135
774.5	100.041
775	100.932
775.5	102.116
776	102.917
776.5	102.728
777	101.795
777.5	100.653
778	100.055
778.5	100.27
779	101.107
779.5	101.825
780	101.852
780.5	100.952
781	99.771
781.5	99.0435
782	99.4237
782.5	100.669
783	102.178
783.5	103.096
784	103.036
784.5	101.993
785	100.637
785.5	99.5739
786	99.2965
786.5	99.6574
787	100.434
787.5	101.314
788	102.052
788.5	102.424
789	102.231
789.5	101.38
790	99.8554
790.5	98.193
791	97.0553
791.5	97.2255
792	98.6173
792.5	100.749
793	102.589
793.5	103.391
794	102.863
794.5	101.725
795	100.843
795.5	100.965
796	101.802
796.5	102.743
797	103.071
797.5	102.747
798	102.227
798.5	102.211
799	102.905
799.5	103.938
800	104.47
800.5	103.999
801	102.561
801.5	101.072
802	100.326
802.5	100.586
803	101.227
803.5	101.32
804	100.357
804.5	98.6498
805	97.2054
805.5	96.9865
806	98.3748
806.5	100.963
807	103.556
807.5	105.147
808	105.333
808.5	104.5
809	103.212
809.5	102.097
810	101.368
810.5	101.014
811	100.799
811.5	100.626
812	100.484
812.5	100.375
813	100.232
813.5	99.9144
814	99.3204
814.5	98.4013
815	97.3814
815.5	96.5485
816	96.2843
816.5	96.6873
817	97.7772
817.5	99.2864
818	100.824
818.5	102.022
819	102.728
819.5	102.964
820	102.771
820.5	102.327
821	101.664
821.5	100.814
822	99.919
822.5	99.2435
823	99.0863
823.5	99.5663
824	100.683
824.5	102.003
825	103.13
825.5	103.716
826	103.818
826.5	103.577
827	103.213
827.5	102.859
828	102.546
828.5	102.304
829	102.216
829.5	102.456
830	102.969
830.5	103.571
831	103.89
831.5	103.698
832	102.952
832.5	101.997
833	101.273
833.5	101.162
834	101.56
834.5	102.153
835	102.486
835.5	102.35
836	101.753
836.5	100.985
837	100.411
837.5	100.363
838	100.901
838.5	101.873
839	102.971
839.5	103.741
840	103.801
840.5	102.9
841	101.351
841.5	99.6178
842	98.3486
842.5	97.9208
843	98.5657
843.5	99.8962
844	101.474
844.5	102.804
845	103.577
845.5	103.525
846	102.488
846.5	100.659
847	98.3283
847.5	96.1566
848	94.7275
848.5	94.582
849	95.3327
849.5	96.3653
850	96.8502
850.5	96.4831
851	95.4409
851.5	94.4815
852	94.3123
852.5	95.4581
853	97.602
853.5	100.188
854	102.575
854.5	104.404
855	105.526
855.5	105.934
856	105.793
856.5	105.121
857	104.063
857.5	102.81
858	101.545
858.5	100.399
859	99.416
859.5	98.6376
860	98.0997
860.5	97.9675
861	98.3805
861.5	99.2663
862	100.451
862.5	101.576
863	102.402
863.5	102.796
864	102.947
864.5	102.968
865	102.827
865.5	102.358
866	101.311
866.5	99.7365
867	98.0312
867.5	96.8757
868	96.6926
868.5	97.5058
869	98.882
869.5	99.9799
870	100.234
870.5	99.6306
871	98.7822
871.5	98.4177
872	98.8621
872.5	99.8559
873	100.724
873.5	100.896
874	100.261
874.5	99.2744
875	98.6829
875.5	99.0243
876	100.233
876.5	101.755
877	102.926
877.5	103.39
878	103.152
878.5	102.379
879	101.441
879.5	100.536
880	99.8437
880.5	99.508
881	99.7605
881.5	100.605
882	101.806
882.5	102.905
883	103.45
883.5	103.228
884	102.359
884.5	101.401
885	100.842
885.5	100.888
886	101.285
886.5	101.542
887	101.242
887.5	100.327
888	99.0984
888.5	98.1751
889	97.9843
889.5	98.5359
890	99.2467
890.5	99.3862
891	98.5555
891.5	97.0082
892	95.5226
892.5	94.9853
893	95.8295
893.5	97.9133
894	100.23
894.5	101.891
895	102.409
895.5	102.058
896	101.346
896.5	100.884
897	100.922
897.5	101.559
898	102.561
898.5	103.802
899	105.054
899.5	105.956
900	105.971
900.5	104.819
901	102.74
901.5	100.383
902	98.7239
902.5	98.3845
903	99.5847
903.5	101.476
904	103.203
904.5	104.011
905	103.824
905.5	102.86
906	101.723
906.5	100.809
907	100.325
907.5	100.082
908	99.881
908.5	99.5634
909	99.1676
909.5	98.8916
910	99.0053
910.5	99.636
911	100.809
911.5	102.156
912	103.254
912.5	103.6
913	103.167
913.5	102.101
914	100.879
914.5	100.042
915	100.075
915.5	101.02
916	102.565
916.5	104.138
917	105.061
917.5	104.865
918	103.407
918.5	101.37
919	99.604
919.5	98.957
920	99.5698
920.5	101.162
921	102.785
921.5	103.739
922	103.613
922.5	102.911
923	102.205
923.5	102.014
924	102.342
924.5	102.937
925	103.424
925.5	103.679
926	103.806
926.5	104.027
927	104.405
927.5	104.785
928	104.934
928.5	104.716
929	104.268
929.5	103.893
930	103.887
930.5	104.238
931	104.693
931.5	104.786
932	104.266
932.5	103.084
933	101.547
933.5	100.222
934	99.6815
934.5	100.147
935	101.378
935.5	102.893
936	104.034
936.5	104.461
937	104.174
937.5	103.705
938	103.504
938.5	103.766
939	104.233
939.5	104.451
940	104.137
940.5	103.401
941	102.701
941.5	102.533
942	103.134
942.5	104.395
943	105.857
943.5	107.205
944	108.32
944.5	109.243
945	109.898
945.5	110.137
946	109.793
946.5	108.85
947	107.822
947.5	107.309
948	107.776
948.5	109.04
949	110.616
949.5	111.825
950	112.362
950.5	112.17
951	111.638
951.5	110.898
952	109.829
952.5	108.343
953	106.509
953.5	104.775
954	103.627
954.5	103.463
955	104.01
955.5	104.827
956	105.518
956.5	106.064
957	106.705
957.5	107.678
958	108.837
958.5	109.698
959	109.739
959.5	108.835
960	107.173
960.5	105.525
961	104.517
961.5	104.643
962	105.69
962.5	107.354
963	109.082
963.5	110.404
964	110.909
964.5	110.645
965	109.876
965.5	109.026
966	108.526
966.5	108.601
967	109.258
967.5	110.277
968	111.625
968.5	113.356
969	115.499
969.5	117.889
970	119.916
970.5	120.867
971	120.005
971.5	117.728
972	114.773
972.5	112.384
973	111.385
973.5	112.199
974	114.132
974.5	116.27
975	117.673
975.5	118.129
976	117.822
976.5	117.272
977	116.983
977.5	117.244
978	118.044
978.5	119.206
979	120.614
979.5	122.136
980	123.725
980.5	125.338
981	126.897
981.5	128.32
982	129.563
982.5	130.713
983	131.942
983.5	133.435
984	135.25
984.5	137.303
985	139.272
985.5	140.89
986	142.064
986.5	143.135
987	144.627
987.5	146.921
988	149.851
988.5	152.76
989	154.731
989.5	155.233
990	154.229
990.5	152.928
991	152.567
991.5	154.09
992	157.121
992.5	160.633
993	163.139
993.5	163.897
994	162.777
994.5	161.065
995	159.833
995.5	159.766
996	160.358
996.5	160.642
997	159.546
997.5	156.865
998	152.797
998.5	148.343
999	144.34
999.5	141.578
1000	139.995
1000.5	139.425
1001	139.431
1001.5	139.489
1002	139.294
1002.5	138.803
1003	138.155
1003.5	137.451
1004	136.648
1004.5	135.556
1005	133.964
1005.5	132.079
1006	130.347
1006.5	129.354
1007	129.203
1007.5	129.587
1008	129.738
1008.5	129.146
1009	127.643
1009.5	125.941
1010	124.749
1010.5	124.608
1011	125.278
1011.5	126.294
1012	127.083
1012.5	127.447
1013	127.474
1013.5	127.497
1014	127.693
1014.5	128.075
1015	128.489
1015.5	128.826
1016	129.045
1016.5	129.149
1017	129.052
1017.5	128.677
1018	128.016
1018.5	127.161
1019	126.394
1019.5	125.96
1020	126.025
1020.5	126.442
1021	127.022
1021.5	127.549
1022	127.984
1022.5	128.518
1023	129.457
1023.5	131.04
1024	133.379
1024.5	135.981
1025	138.19
1025.5	139.26
1026	138.989
1026.5	137.367
1027	135.06
1027.5	132.785
1028	131.227
1028.5	130.526
1029	130.633
1029.5	131.369
1030	132.377
1030.5	133.419
1031	134.213
1031.5	134.53
1032	134.057
1032.5	132.824
1033	131.03
1033.5	128.993
1034	127.06
1034.5	125.35
1035	123.786
1035.5	122.18
1036	120.421
1036.5	118.595
1037	116.921
1037.5	115.731
1038	115.113
1038.5	115.053
1039	115.415
1039.5	115.874
1040	116.164
1040.5	116.05
1041	115.47
1041.5	114.41
1042	113.087
1042.5	111.746
1043	110.703
1043.5	110.114
1044	110.096
1044.5	110.663
1045	111.571
1045.5	112.5
1046	112.971
1046.5	112.614
1047	111.077
1047.5	108.789
1048	106.451
1048.5	105.169
1049	105.37
1049.5	106.981
1050	109.106
1050.5	110.621
1051	110.629
1051.5	109.254
1052	107.214
1052.5	105.466
1053	104.545
1053.5	104.46
1054	104.763
1054.5	104.853
1055	104.384
1055.5	103.402
1056	102.231
1056.5	101.26
1057	100.744
1057.5	100.772
1058	101.344
1058.5	102.125
1059	102.804
1059.5	103.086
1060	102.95
1060.5	102.504
1061	102.016
1061.5	101.651
1062	101.462
1062.5	101.373
1063	101.386
1063.5	101.592
1064	101.975
1064.5	102.352
1065	102.339
1065.5	101.674
1066	100.26
1066.5	98.572
1067	97.155
1067.5	96.567
1068	96.7175
1068.5	97.3717
1069	98.1747
1069.5	98.9251
1070	99.6198
1070.5	100.277
1071	100.799
1071.5	100.96
1072	100.786
1072.5	100.502
1073	100.527
1073.5	101.024
1074	101.84
1074.5	102.464
1075	102.511
1075.5	101.932
1076	101.318
1076.5	101.297
1077	102.385
1077.5	103.992
1078	105.299
1078.5	105.42
1079	104.308
1079.5	102.354
1080	100.489
1080.5	99.3927
1081	99.4758
1081.5	100.33
1082	101.494
1082.5	102.54
1083	103.328
1083.5	103.891
1084	104.36
1084.5	104.808
1085	105.196
1085.5	105.445
1086	105.485
1086.5	105.255
1087	104.896
1087.5	104.621
1088	104.745
1088.5	105.385
1089	106.489
1089.5	107.643
1090	108.335
1090.5	108.088
1091	107.047
1091.5	105.555
1092	104.062
1092.5	102.864
1093	102.055
1093.5	101.621
1094	101.52
1094.5	101.865
1095	102.629
1095.5	103.619
1096	104.475
1096.5	104.918
1097	104.923
1097.5	104.686
1098	104.463
1098.5	104.262
1099	103.874
1099.5	103.14
1100	102.116
1100.5	101.25
1101	100.979
1101.5	101.629
1102	102.758
1102.5	103.756
1103	103.98
1103.5	103.358
1104	102.087
1104.5	100.747
1105	99.8372
1105.5	99.8721
1106	100.836
1106.5	102.569
1107	104.6
1107.5	106.2
1108	106.676
1108.5	105.734
1109	103.876
1109.5	101.818
1110	100.244
1110.5	99.3022
1111	98.7163
1111.5	97.9372
1112	96.7682
1112.5	95.4843
1113	94.6137
1113.5	94.5766
1114	95.2168
1114.5	95.9773
1115	96.2486
1115.5	95.9354
1116	95.2764
1116.5	94.7023
1117	94.4744
1117.5	94.6244
1118	94.9864
1118.5	95.3873
1119	95.7766
1119.5	96.1564
1120	96.4799
1120.5	96.5636
1121	96.3262
1121.5	95.788
1122	95.2008
1122.5	94.9434
1123	95.4109
1123.5	96.7071
1124	98.5585
1124.5	100.453
1125	101.733
1125.5	101.931
1126	100.771
1126.5	98.9034
1127	96.9591
1127.5	95.6073
1128	95.0307
1128.5	95.1251
1129	95.3978
1129.5	95.4826
1130	95.2133
1130.5	94.7987
1131	94.463
1131.5	94.3604
1132	94.4088
1132.5	94.4995
1133	94.5415
1133.5	94.5086
1134	94.3554
1134.5	94.0425
1135	93.5541
1135.5	92.9759
1136	92.5467
1136.5	92.5155
1137	92.9568
1137.5	93.5973
1138	94.096
1138.5	94.2322
1139	94.071
1139.5	93.8528
1140	93.8128
1140.5	93.9547
1141	94.0513
1141.5	93.8745
1142	93.3704
1142.5	92.81
1143	92.4934
1143.5	92.5999
1144	92.9666
1144.5	93.3677
1145	93.6659
1145.5	93.9691
1146	94.4746
1146.5	95.3017
1147	96.2828
1147.5	97.1285
1148	97.6508
1148.5	97.9062
1149	98.032
1149.5	98.114
1150	98.0157
1150.5	97.4247
1151	96.3216
1151.5	94.9228
1152	93.7816
1152.5	93.3275
1153	93.7018
1153.5	94.4817
1154	95.2327
1154.5	95.6846
1155	95.9993
1155.5	96.417
1156	97.0524
1156.5	97.6855
1157	97.953
1157.5	97.6957
1158	97.2069
1158.5	97.0055
1159	97.3738
1159.5	98.1792
1160	98.8633
1160.5	98.8785
1161	97.9838
1161.5	96.5004
1162	95.1103
1162.5	94.4348
1163	94.4677
1163.5	94.8163
1164	94.9614
1164.5	94.6877
1165	94.1133
1165.5	93.6076
1166	93.4162
1166.5	93.4678
1167	93.2972
1167.5	92.4586
1168	90.7663
1168.5	88.7928
1169	87.3086
1169.5	87.2514
1170	88.5565
1170.5	90.758
1171	92.7936
1171.5	93.7815
1172	93.1853
1172.5	91.538
1173	89.7356
1173.5	88.6928
1174	88.6941
1174.5	89.6663
1175	91.2137
1175.5	92.6664
1176	93.4183
1176.5	93.0105
1177	91.47
1177.5	89.1787
1178	87.0957
1178.5	86.0372
1179	86.7265
1179.5	88.5711
1180	90.736
1180.5	92.1121
1181	92.2517
1181.5	91.1775
1182	89.6796
1182.5	88.4221
1183	87.8252
1183.5	87.8207
1184	88.3226
1184.5	89.283
1185	90.4593
1185.5	91.4947
1186	91.8452
1186.5	91.2764
1187	89.9189
1187.5	88.4882
1188	87.6056
1188.5	87.7073
1189	88.3333
1189.5	88.9159
1190	88.8872
1190.5	88.2314
1191	87.2614
1191.5	86.5234
1192	86.341
1192.5	86.954
1193	88.1622
1193.5	89.6898
1194	91.084
1194.5	91.9229
1195	91.8925
1195.5	91.0753
1196	90.0263
1196.5	89.2592
1197	88.973
1197.5	88.9649
1198	88.7763
1198.5	88.1077
1199	86.9522
1199.5	85.6152
1200	84.5081
1200.5	83.8663
1201	83.6892
1201.5	83.8483
1202	84.2884
1202.5	84.8675
1203	85.4243
1203.5	85.6778
1204	85.4698
1204.5	84.7802
1205	83.8763
1205.5	83.173
1206	83.1324
1206.5	83.9699
1207	85.6181
1207.5	87.8687
1208	90.0687
1208.5	91.5381
1209	91.6348
1209.5	90.5129
1210	88.5676
1210.5	86.6898
1211	85.625
1211.5	85.8834
1212	87.0712
1212.5	88.5166
1213	89.4177
1213.5	89.6205
1214	89.3464
1214.5	89.1245
1215	89.3194
1215.5	89.9683
1216	90.6681
1216.5	90.9684
1217	90.4106
1217.5	89.1664
1218	87.4668
1218.5	85.5658
1219	83.7159
1219.5	82.152
1220	81.1783
1220.5	80.9703
1221	81.6561
1221.5	82.7258
1222	83.5443
1222.5	83.5132
1223	82.8745
1223.5	82.2291
1224	82.4312
1224.5	83.6965
1225	85.7123
1225.5	87.5171
1226	88.4815
1226.5	88.4604
1227	88.1248
1227.5	88.0395
1228	88.4377
1228.5	88.8884
1229	88.8091
1229.5	87.8318
1230	86.3357
1230.5	84.9327
1231	84.1555
1231.5	84.0856
1232	84.5098
1232.5	84.8934
1233	84.9609
1233.5	84.7191
1234	84.4907
1234.5	84.514
1235	84.7741
1235.5	85.0339
1236	84.9963
1236.5	84.6283
1237	84.1248
1237.5	83.8705
1238	84.0038
1238.5	84.4217
1239	84.8115
1239.5	84.9623
1240	84.9008
1240.5	84.925
1241	85.2819
1241.5	86.0697
1242	86.9229
1242.5	87.5135
1243	87.6087
1243.5	87.3314
1244	86.8251
1244.5	86.2183
1245	85.5286
1245.5	84.7456
1246	84.0502
1246.5	83.7367
1247	84.2304
1247.5	85.4222
1248	86.9731
1248.5	88.1577
1249	88.3656
1249.5	87.2035
1250	85.1289
1250.5	82.8729
1251	81.2307
1251.5	80.47
1252	80.4757
1252.5	80.8329
1253	81.0507
1253.5	81.0169
1254	81.0209
1254.5	81.4516
1255	82.6673
1255.5	84.5109
1256	86.5459
1256.5	88.0374
1257	88.5268
1257.5	87.9178
1258	86.6165
1258.5	85.3936
1259	84.8758
1259.5	85.1582
1260	85.7836
1260.5	86.0277
1261	85.5613
1261.5	84.6814
1262	84.1013
1262.5	84.2422
1263	84.96
1263.5	85.42
1264	84.8602
1264.5	82.9535
1265	80.7671
1265.5	79.5325
1266	80.5579
1266.5	83.3971
1267	87.0701
1267.5	89.8988
1268	90.7061
1268.5	89.051
1269	85.9419
1269.5	82.8435
1270	81.2437
1270.5	81.5382
1271	83.3137
1271.5	85.4868
1272	86.7936
1272.5	86.7452
1273	85.7429
1273.5	84.7453
1274	84.5616
1274.5	85.3228
1275	86.6045
1275.5	87.7279
1276	88.2659
1276.5	88.1344
1277	87.4345
1277.5	86.4779
1278	85.4981
1278.5	84.7575
1279	84.4309
1279.5	84.6047
1280	85.0833
1280.5	85.7414
1281	86.7093
1281.5	88.2298
1282	90.6027
1282.5	93.7453
1283	96.8781
1283.5	98.9206
1284	99.1706
1284.5	97.6281
1285	94.509
1285.5	90.8139
1286	87.2418
1286.5	84.4532
1287	82.6139
1287.5	81.9184
1288	82.2625
1288.5	83.2213
1289	84.346
1289.5	85.1609
1290	85.4586
1290.5	85.1572
1291	84.4525
1291.5	83.4198
1292	82.2156
1292.5	81.1397
1293	80.6136
1293.5	80.8682
1294	81.6608
1294.5	82.5172
1295	82.9328
1295.5	82.7469
1296	82.131
1296.5	81.5397
1297	81.1991
1297.5	81.0499
1298	80.9676
1298.5	81.0732
1299	81.641
1299.5	82.8048
1300	84.324
1300.5	85.3374
1301	85.1307
1301.5	83.4844
1302	81.2521
1302.5	79.5593
1303	79.3216
1303.5	80.5442
1304	82.4616
1304.5	83.8704
1305	84.159
1305.5	83.2444
1306	81.9708
1306.5	81.0671
1307	80.9525
1307.5	81.2489
1308	81.3386
1308.5	80.7823
1309	79.6545
1309.5	78.4577
1310	77.8576
1310.5	78.1977
1311	79.2936
1311.5	80.5274
1312	81.4756
1312.5	82.0587
1313	82.5248
1313.5	83.1571
1314	83.9488
1314.5	84.651
1315	84.9095
1315.5	84.6876
1316	84.0534
1316.5	83.1802
1317	82.2257
1317.5	81.2777
1318	80.4749
1318.5	79.9859
1319	80.0359
1319.5	80.4959
1320	81.1345
1320.5	81.6359
1321	81.9065
1321.5	81.967
1322	81.8173
1322.5	81.331
1323	80.2194
1323.5	78.5968
1324	77.0162
1324.5	76.4592
1325	77.2511
1325.5	79.2473
1326	81.5608
1326.5	83.1347
1327	83.3192
1327.5	82.4955
1328	81.3641
1328.5	80.4699
1329	79.8915
1329.5	79.4671
1330	79.0977
1330.5	78.9221
1331	79.1893
1331.5	79.9224
1332	80.7836
1332.5	81.2782
1333	81.0976
1333.5	80.3186
1334	79.2575
1334.5	78.3344
1335	77.7765
1335.5	77.6847
1336	77.9434
1336.5	78.4637
1337	79.0636
1337.5	79.595
1338	79.9139
1338.5	79.9876
1339	79.8181
1339.5	79.4225
1340	78.9693
1340.5	78.6653
1341	78.7594
1341.5	79.3017
1342	80.1571
1342.5	80.8434
1343	80.9503
1343.5	80.2811
1344	79.3049
1344.5	78.5282
1345	78.3913
1345.5	78.7974
1346	79.432
1346.5	79.9237
1347	80.1636
1347.5	80.1189
1348	79.8021
1348.5	79.1613
1349	78.2513
1349.5	77.5518
1350	77.6127
1350.5	78.7193
1351	80.3722
1351.5	81.6604
1352	81.7348
1352.5	80.6893
1353	79.2055
1353.5	78.191
1354	77.9102
1354.5	77.9337
1355	77.5028
1355.5	76.4262
1356	75.3516
1356.5	75.0803
1357	76.1249
1357.5	77.8533
1358	79.2154
1358.5	79.1758
1359	77.9992
1359.5	76.2904
1360	74.8763
1360.5	74.1119
1361	74.013
1361.5	74.2662
1362	74.7388
1362.5	75.5127
1363	76.5029
1363.5	77.474
1364	78.0137
1364.5	78.0797
1365	77.9068
1365.5	77.9293
1366	78.3567
1366.5	79.1016
1367	79.7306
1367.5	79.9501
1368	79.6695
1368.5	79.1862
1369	78.6983
1369.5	78.3028
1370	77.9837
1370.5	77.7923
1371	77.8391
1371.5	78.1393
1372	78.5033
1372.5	78.5077
1373	77.7915
1373.5	76.3319
1374	74.7242
1374.5	73.5895
1375	73.3775
1375.5	73.9538
1376	74.9691
1376.5	75.9429
1377	76.7537
1377.5	77.5
1378	78.3033
1378.5	79.0595
1379	79.402
1379.5	79.1897
1380	78.5314
1380.5	77.9602
1381	77.9891
1381.5	78.9492
1382	80.2716
1382.5	81.1646
1383	80.8363
1383.5	79.5661
1384	78.2495
1384.5	78.5934
1385	81.5236
1385.5	87.3406
1386	94.6236
1386.5	101.433
1387	105.275
1387.5	105.307
1388	101.836
1388.5	95.9315
1389	89.5043
1389.5	83.8538
1390	79.7996
1390.5	77.3072
1391	76.1514
1391.5	75.7001
1392	75.4972
1392.5	75.2124
1393	74.7878
1393.5	74.4181
1394	74.4029
1394.5	74.7952
1395	75.4311
1395.5	75.8991
1396	75.9402
1396.5	75.6353
1397	75.4557
1397.5	75.7715
1398	76.7184
1398.5	77.8735
1399	78.7358
1399.5	79.0167
1400	78.8476
1400.5	78.457
1401	78.0662
1401.5	77.6636
1402	77.0837
1402.5	76.3265
1403	75.5523
1403.5	75.0783
1404	75.0738
1404.5	75.4914
1405	75.9286
1405.5	76.0127
1406	75.4686
1406.5	74.5434
1407	73.7038
1407.5	73.5267
1408	74.031
1408.5	74.9127
1409	75.4881
1409.5	75.2262
1410	73.9717
1410.5	72.3966
1411	71.2172
1411.5	71.0967
1412	71.7714
1412.5	72.656
1413	72.9905
1413.5	72.6628
1414	72.0455
1414.5	71.8783
1415	72.5956
1415.5	74.0609
1416	75.3994
1416.5	75.9487
1417	75.3657
1417.5	74.27
1418	73.3553
1418.5	73.0145
1419	72.977
1419.5	72.775
1420	72.1787
1420.5	71.4382
1421	71.0983
1421.5	71.2698
1422	71.7054
1422.5	71.9721
1423	71.9836
1423.5	72.1152
1424	72.798
1424.5	73.93
1425	74.9038
1425.5	75.0166
1426	74.0856
1426.5	72.5819
1427	71.31
1427.5	70.6332
1428	70.4804
1428.5	70.5461
1429	70.8592
1429.5	71.6141
1430	72.7628
1430.5	73.7292
1431	73.6411
1431.5	72.107
1432	69.6727
1432.5	67.6886
1433	67.3104
1433.5	68.8344
1434	71.3165
1434.5	73.538
1435	74.8459
1435.5	75.3527
1436	75.5452
1436.5	75.9134
1437	76.3471
1437.5	76.3141
1438	75.4598
1438.5	73.7109
1439	71.706
1439.5	70.2893
1440	70.2241
1440.5	71.3088
1441	72.9606
1441.5	74.2241
1442	74.6045
1442.5	74.1436
1443	73.3202
1443.5	72.5622
1444	71.869
1444.5	70.8832
1445	69.4246
1445.5	67.674
1446	66.2589
1446.5	65.7689
1447	66.4575
1447.5	67.8081
1448	69.3506
1448.5	70.6045
1449	71.2943
1449.5	71.1443
1450	70.3355
1450.5	69.1757
1451	68.251
1451.5	68.0664
1452	68.7843
1452.5	69.9033
1453	70.723
1453.5	70.751
1454	70.1582
1454.5	69.5238
1455	69.5128
1455.5	70.2106
1456	71.4616
1456.5	72.9134
1457	74.1557
1457.5	74.8403
1458	74.7109
1458.5	73.7573
1459	72.0871
1459.5	70.3539
1460	69.1935
1460.5	69.1865
1461	70.123
1461.5	71.6445
1462	73.0616
1462.5	73.8514
1463	73.6521
1463.5	72.5622
1464	70.957
1464.5	69.3935
1465	68.332
1465.5	67.9285
1466	68.0949
1466.5	68.4405
1467	68.7203
1467.5	68.8871
1468	69.0485
1468.5	69.3465
1469	69.8764
1469.5	70.7016
1470	71.9255
1470.5	73.4557
1471	75.1926
1471.5	76.9962
1472	78.8306
1472.5	80.7939
1473	82.8438
1473.5	84.6122
1474	85.0527
1474.5	83.6133
1475	80.3581
1475.5	76.0553
1476	72.1841
1476.5	69.9664
1477	69.5222
1477.5	69.9657
1478	70.4262
1478.5	70.3549
1479	69.8175
1479.5	69.2413
1480	68.9455
1480.5	68.9739
1481	69.1874
1481.5	69.3898
1482	69.4975
1482.5	69.514
1483	69.4807
1483.5	69.4493
1484	69.4583
1484.5	69.4583
1485	69.2457
1485.5	68.6361
1486	67.4903
1486.5	66.0289
1487	64.7211
1487.5	64.0063
1488	63.9336
1488.5	64.2203
1489	64.4404
1489.5	64.451
1490	64.4319
1490.5	64.7793
1491	65.6504
1491.5	66.8833
1492	68.0632
1492.5	68.9115
1493	69.3519
1493.5	69.6597
1494	70.0452
1494.5	70.475
1495	70.6814
1495.5	70.3328
1496	69.3873
1496.5	68.2707
1497	67.5472
1497.5	67.6179
1498	68.4113
1498.5	69.3414
1499	69.6717
1499.5	69.0073
1500	67.3692
1500.5	65.4831
1501	63.9875
1501.5	63.1859
1502	62.9786
1502.5	63.3458
1503	64.2108
1503.5	65.5353
1504	67.1024
1504.5	68.3011
1505	68.4629
1505.5	67.4722
1506	66.0324
1506.5	64.9967
1507	64.9274
1507.5	65.5834
1508	66.2428
1508.5	66.3799
1509	66.0054
1509.5	65.5792
1510	65.5182
1510.5	65.7768
1511	65.9701
1511.5	65.6929
1512	64.9438
1512.5	64.1708
1513	63.7212
1513.5	63.8428
1514	64.3182
1514.5	64.8333
1515	65.0588
1515.5	64.9339
1516	64.621
1516.5	64.459
1517	64.6754
1517.5	65.2067
1518	65.7575
1518.5	66.0985
1519	66.2175
1519.5	66.375
1520	66.7982
1520.5	67.5904
1521	68.6147
1521.5	69.4842
1522	69.7072
1522.5	69.069
1523	67.5935
1523.5	65.5474
1524	63.4787
1524.5	61.888
1525	61.0825
1525.5	61.2381
1526	62.3448
1526.5	63.9374
1527	65.4745
1527.5	66.4685
1528	66.6007
1528.5	66.1988
1529	65.895
1529.5	66.0799
1530	66.7091
1530.5	66.9823
1531	66.1529
1531.5	64.0957
1532	61.3216
1532.5	59.0162
1533	58.117
1533.5	58.6456
1534	60.1222
1534.5	61.7886
1535	62.974
1535.5	63.5962
1536	63.7881
1536.5	63.7256
1537	63.5388
1537.5	63.2727
1538	62.9336
1538.5	62.5281
1539	62.1042
1539.5	61.8037
1540	61.8021
1540.5	62.227
1541	63.0756
1541.5	64.0576
1542	64.7544
1542.5	64.8642
1543	64.2784
1543.5	63.2559
1544	62.214
1544.5	61.5805
1545	61.6038
1545.5	62.2052
1546	63.0669
1546.5	63.7394
1547	63.8565
1547.5	63.3474
1548	62.3937
1548.5	61.2266
1549	60.0518
1549.5	58.996
1550	58.1836
1550.5	57.7958
1551	58.0382
1551.5	58.8921
1552	59.9872
1552.5	61.0133
1553	61.8162
1553.5	62.508
1554	63.3119
1554.5	64.1672
1555	64.7964
1555.5	64.8197
1556	64.198
1556.5	63.3487
1557	62.6423
1557.5	62.2329
1558	61.904
1558.5	61.3388
1559	60.5277
1559.5	59.7108
1560	59.2285
1560.5	59.2087
1561	59.5211
1561.5	60.0436
1562	60.8046
1562.5	61.8523
1563	63.0891
1563.5	64.1795
1564	64.7645
1564.5	64.8085
1565	64.558
1565.5	64.3487
1566	64.2888
1566.5	64.1937
1567	63.9128
1567.5	63.532
1568	63.4429
1568.5	63.9269
1569	64.7963
1569.5	65.5898
1570	65.7613
1570.5	65.1652
1571	64.3427
1571.5	63.8348
1572	63.9552
1572.5	64.5668
1573	64.9908
1573.5	64.8301
1574	64.0959
1574.5	63.2073
1575	62.7732
1575.5	62.8959
1576	63.2109
1576.5	63.1848
1577	62.5644
1577.5	61.7024
1578	61.2404
1578.5	61.5172
1579	62.2358
1579.5	62.6708
1580	62.2368
1580.5	61.0536
1581	59.8187
1581.5	59.1558
1582	59.2228
1582.5	59.7312
1583	60.203
1583.5	60.5554
1584	60.9712
1584.5	61.6445
1585	62.5692
1585.5	63.3922
1586	63.8193
1586.5	63.6802
1587	62.9305
1587.5	61.7483
1588	60.5726
1588.5	59.8356
1589	59.8637
1589.5	60.5992
1590	61.4635
1590.5	61.9223
1591	61.8999
1591.5	61.8258
1592	62.19
1592.5	62.9256
1593	63.2769
1593.5	62.352
1594	60.1636
1594.5	57.5098
1595	55.6688
1595.5	55.5281
1596	56.7172
1596.5	58.3601
1597	59.6572
1597.5	60.1968
1598	60.2862
1598.5	60.2882
1599	60.2977
1599.5	60.1902
1600	59.7908
1600.5	59.2732
1601	59.0176
1601.5	59.3817
1602	60.4762
1602.5	61.8277
1603	62.7061
1603.5	62.5883
1604	61.3248
1604.5	59.4081
1605	57.451
1605.5	55.9634
1606	55.1567
1606.5	55.041
1607	55.6149
1607.5	56.8447
1608	58.4463
1608.5	59.705
1609	60.1009
1609.5	59.565
1610	58.5961
1610.5	58.2654
1611	59.015
1611.5	60.5052
1612	61.9025
1612.5	62.2501
1613	61.3508
1613.5	59.8425
1614	58.5005
1614.5	57.8106
1615	57.6071
1615.5	57.448
1616	57.0381
1616.5	56.5347
1617	56.3419
1617.5	56.6617
1618	57.3683
1618.5	58.0304
1619	58.3217
1619.5	58.302
1620	58.1536
1620.5	57.9784
1621	57.6321
1621.5	57.0345
1622	56.4249
1622.5	56.2848
1623	57.126
1623.5	58.8232
1624	60.7047
1624.5	62.0393
1625	62.363
1625.5	61.7619
1626	60.4962
1626.5	58.8605
1627	57.2839
1627.5	56.3228
1628	56.3858
1628.5	57.4765
1629	58.9536
1629.5	59.7039
1630	59.4043
1630.5	58.4893
1631	57.8111
1631.5	58.0465
1632	58.8658
1632.5	59.6058
1633	59.9913
1633.5	60.3142
1634	61.0075
1634.5	61.9166
1635	62.2673
1635.5	61.3515
1636	59.4763
1636.5	57.6009
1637	56.7089
1637.5	57.0803
1638	57.8433
1638.5	58.2348
1639	58.0313
1639.5	57.5349
1640	57.2547
1640.5	57.2323
1641	57.2857
1641.5	57.3662
1642	57.7277
1642.5	58.6115
1643	59.8192
1643.5	60.6712
1644	60.4006
1644.5	58.9502
1645	56.8146
1645.5	54.8598
1646	53.9298
1646.5	54.1886
1647	55.3929
1647.5	57.0789
1648	58.6075
1648.5	59.2453
1649	58.7597
1649.5	57.3494
1650	55.6258
1650.5	54.4229
1651	54.1784
1651.5	54.6788
1652	55.2401
1652.5	55.1995
1653	54.4404
1653.5	53.292
1654	52.3654
1654.5	52.2364
1655	52.8701
1655.5	53.9289
1656	54.9418
1656.5	55.4826
1657	55.4993
1657.5	55.3033
1658	55.1734
1658.5	55.2248
1659	55.3637
1659.5	55.5128
1660	55.7979
1660.5	56.4229
1661	57.3103
1661.5	57.9753
1662	57.8934
1662.5	56.8821
1663	55.6405
1663.5	55.1518
1664	55.7644
1664.5	57.0958
1665	58.1923
1665.5	58.3509
1666	57.7749
1666.5	57.0302
1667	56.4518
1667.5	55.861
1668	54.9729
1668.5	53.8725
1669	53.1666
1669.5	53.3247
1670	54.138
1670.5	55.0146
1671	55.3799
1671.5	55.1986
1672	55.0468
1672.5	55.2408
1673	55.6738
1673.5	55.8942
1674	55.6422
1674.5	55.1201
1675	54.8202
1675.5	55.0947
1676	55.7744
1676.5	56.4286
1677	56.6016
1677.5	55.972
1678	54.8035
1678.5	53.5471
1679	52.6216
1679.5	52.2571
1680	52.277
1680.5	52.2229
1681	51.8007
1681.5	51.0793
1682	50.4612
1682.5	50.2902
1683	50.6003
1683.5	51.0898
1684	51.2587
1684.5	50.8926
1685	50.0325
1685.5	48.9226
1686	48.0214
1686.5	47.9403
1687	49.0258
1687.5	51.1955
1688	53.8469
1688.5	55.9531
1689	56.7705
1689.5	56.0518
1690	54.2667
1690.5	52.2437
1691	50.6011
1691.5	49.7172
1692	49.8202
1692.5	50.9558
1693	52.6371
1693.5	54.1367
1694	54.7895
1694.5	54.2734
1695	53.0958
1695.5	52.002
1696	51.6151
1696.5	51.9759
1697	52.6265
1697.5	53.1855
1698	53.5033
1698.5	53.6637
1699	53.8775
1699.5	54.2376
1700	54.6931
1700.5	55.0291
1701	54.8496
1701.5	53.8287
1702	51.9178
1702.5	49.703
1703	48.2923
1703.5	48.4025
1704	50.0114
1704.5	52.3423
1705	54.0673
1705.5	54.3969
1706	53.6022
1706.5	52.417
1707	51.5878
1707.5	51.3158
1708	51.3467
1708.5	51.3545
1709	51.2525
1709.5	51.2037
1710	51.2769
1710.5	51.3401
1711	51.1289
1711.5	50.5028
1712	49.7491
1712.5	49.3545
1713	49.7159
1713.5	50.8954
1714	52.4299
1714.5	53.7302
1715	54.2724
1715.5	53.94
1716	53.2148
1716.5	52.6025
1717	52.4489
1717.5	52.7792
1718	53.209
1718.5	53.354
1719	53.1215
1719.5	52.6857
1720	52.3107
1720.5	52.0742
1721	51.8939
1721.5	51.6871
1722	51.5975
1722.5	51.8436
1723	52.4395
1723.5	53.0924
1724	53.2746
1724.5	52.748
1725	51.7151
1725.5	50.6812
1726	50.0011
1726.5	49.5709
1727	49.171
1727.5	48.7668
1728	48.6985
1728.5	49.4006
1729	50.7743
1729.5	52.3142
1730	53.3488
1730.5	53.5257
1731	53.0265
1731.5	52.2261
1732	51.4185
1732.5	50.6182
1733	49.7741
1733.5	48.99
1734	48.5378
1734.5	48.7445
1735	49.5771
1735.5	50.6157
1736	51.23
1736.5	50.8338
1737	49.4936
1737.5	47.7867
1738	46.5748
1738.5	46.7028
1739	48.0599
1739.5	49.8132
1740	51.1341
1740.5	51.5606
1741	51.3275
1741.5	50.9723
1742	50.812
1742.5	50.7745
1743	50.6102
1743.5	50.3107
1744	50.0728
1744.5	50.1265
1745	50.5853
1745.5	51.3574
1746	52.3344
1746.5	53.3618
1747	54.1014
1747.5	54.1281
1748	53.2273
1748.5	51.6175
1749	50.0447
1749.5	49.3604
1750	49.6341
1750.5	50.3557
1751	50.767
1751.5	50.4327
1752	49.5798
1752.5	48.7195
1753	48.3112
1753.5	48.34
1754	48.455
1754.5	48.3391
1755	47.8242
1755.5	46.9512
1756	46.0127
1756.5	45.3678
1757	45.281
1757.5	45.7717
1758	46.4469
1758.5	46.8663
1759	46.784
1759.5	46.3255
1760	45.9941
1760.5	46.1043
1761	46.5243
1761.5	46.8453
1762	46.7607
1762.5	46.4237
1763	46.2411
1763.5	46.585
1764	47.4465
1764.5	48.3716
1765	49.0237
1765.5	49.2787
1766	49.2052
1766.5	48.9869
1767	48.7589
1767.5	48.6529
1768	48.7543
1768.5	48.8885
1769	48.7152
1769.5	47.9606
1770	46.6871
1770.5	45.4803
1771	44.908
1771.5	45.0625
1772	45.369
1772.5	45.1428
1773	44.3475
1773.5	43.4757
1774	43.1586
1774.5	43.6466
1775	44.5205
1775.5	45.3085
1776	45.8892
1776.5	46.5034
1777	47.3274
1777.5	48.216
1778	48.8257
1778.5	48.8501
1779	48.4434
1779.5	48.0912
1780	48.2469
1780.5	49.0937
1781	50.275
1781.5	51.136
1782	51.0928
1782.5	49.9263
1783	48.1445
1783.5	46.6405
1784	45.8665
1784.5	45.6867
1785	45.5082
1785.5	44.9314
1786	44.0553
1786.5	43.2845
1787	43.0159
1787.5	43.1657
1788	43.5871
1788.5	44.3093
1789	45.5429
1789.5	47.2926
1790	49.2234
1790.5	50.7994
1791	51.4542
1791.5	51.0346
1792	49.7877
1792.5	48.1192
1793	46.6026
1793.5	45.8485
1794	46.0173
1794.5	46.7543
1795	47.2746
1795.5	46.8182
1796	45.5537
1796.5	44.0966
1797	43.0811
1797.5	42.844
1798	43.2045
1798.5	43.9553
1799	44.9343
1799.5	45.8578
1800	46.2564
1800.5	45.8969
1801	45.0324
1801.5	44.3958
1802	44.6575
1802.5	45.725
1803	46.9751
1803.5	47.7331
1804	47.9809
1804.5	48.1587
1805	48.4079
1805.5	48.4217
1806	47.7152
1806.5	46.4215
1807	45.1614
1807.5	44.5737
1808	44.6866
1808.5	44.7301
1809	44.2658
1809.5	43.4979
1810	43.1875
1810.5	43.8654
1811	45.2743
1811.5	46.6662
1812	47.2582
1812.5	46.9681
1813	46.2449
1813.5	45.4342
1814	44.628
1814.5	43.7793
1815	43.0285
1815.5	42.7291
1816	43.2271
1816.5	44.5365
1817	46.0031
1817.5	47.0316
1818	47.3148
1818.5	46.9301
1819	46.2753
1819.5	45.5497
1820	44.6875
1820.5	43.438
1821	41.7617
1821.5	40.0617
1822	38.9205
1822.5	38.8646
1823	39.9288
1823.5	41.6087
1824	43.269
1824.5	44.383
1825	44.7894
1825.5	44.7576
1826	44.5771
1826.5	44.349
1827	43.9591
1827.5	43.3079
1828	42.4911
1828.5	41.8313
1829	41.8155
1829.5	42.6344
1830	44.0624
1830.5	45.5342
1831	46.4808
1831.5	46.7575
1832	46.6177
1832.5	46.3662
1833	46.1173
1833.5	45.7222
1834	45.083
1834.5	44.3564
1835	43.8482
1835.5	43.5801
1836	43.1632
1836.5	42.3219
1837	41.2821
1837.5	40.8916
1838	41.6724
1838.5	43.2112
1839	44.3139
1839.5	43.6887
1840	41.8507
1840.5	40.277
1841	40.1824
1841.5	41.5796
1842	42.9478
1842.5	42.911
1843	41.222
1843.5	38.8592
1844	37.328
1844.5	37.1197
1845	37.7233
1845.5	38.4093
1846	38.8478
1846.5	39.2931
1847	40.0632
1847.5	41.2324
1848	42.538
1848.5	43.5877
1849	44.1682
1849.5	44.2904
1850	44.1332
1850.5	43.9038
1851	43.6529
1851.5	43.2938
1852	42.6838
1852.5	41.8415
1853	41.0071
1853.5	40.4897
1854	40.5114
1854.5	40.9946
1855	41.6472
1855.5	42.2382
1856	42.6252
1856.5	42.7728
1857	42.804
1857.5	42.9322
1858	43.3737
1858.5	44.133
1859	44.7103
1859.5	44.4549
1860	43.1208
1860.5	41.2222
1861	39.8996
1861.5	39.8234
1862	40.7753
1862.5	41.6693
1863	41.3338
1863.5	39.6864
1864	37.618
1864.5	36.4869
1865	36.9857
1865.5	38.4403
1866	39.8004
1866.5	40.2554
1867	39.7258
1867.5	38.8917
1868	38.3819
1868.5	38.5133
1869	39.2557
1869.5	40.306
1870	41.4275
1870.5	42.3688
1871	42.7644
1871.5	42.351
1872	41.224
1872.5	39.8828
1873	39.0954
1873.5	39.31
1874	40.158
1874.5	40.7886
1875	40.3817
1875.5	38.9748
1876	37.726
1876.5	37.7185
1877	39.3009
1877.5	41.655
1878	43.3431
1878.5	43.552
1879	42.4001
1879.5	40.8445
1880	39.8949
1880.5	39.7341
1881	39.8274
1881.5	39.3013
1882	37.888
1882.5	36.1297
1883	34.9587
1883.5	35.2429
1884	36.9931
1884.5	39.2813
1885	40.9598
1885.5	41.2225
1886	40.2431
1886.5	39.0856
1887	38.706
1887.5	39.3968
1888	40.6587
1888.5	41.6261
1889	41.7624
1889.5	40.9565
1890	39.5272
1890.5	38.1866
1891	37.5508
1891.5	37.94
1892	39.1845
1892.5	40.5085
1893	41.2162
1893.5	41.1261
1894	40.5565
1894.5	40.043
1895	39.8141
1895.5	39.7977
1896	39.8082
1896.5	39.7179
1897	39.5139
1897.5	39.2185
1898	38.9081
1898.5	38.7949
1899	39.1015
1899.5	39.8254
1900	40.6967
1900.5	41.2535
1901	41.2089
1901.5	40.5759
1902	39.592
1902.5	38.6633
1903	38.2369
1903.5	38.5299
1904	39.3981
1904.5	40.2568
1905	40.3147
1905.5	39.3613
1906	37.8848
1906.5	36.6913
1907	36.3466
1907.5	36.6663
1908	37.2038
1908.5	37.6037
1909	37.7665
1909.5	37.7584
1910	37.5813
1910.5	37.2608
1911	37.0143
1911.5	37.1817
1912	37.8604
1912.5	38.7777
1913	39.4846
1913.5	39.771
1914	39.7947
1914.5	39.7834
1915	39.7999
1915.5	39.669
1916	39.2535
1916.5	38.6291
1917	38.0596
1917.5	37.8157
1918	37.8539
1918.5	37.881
1919	37.5375
1919.5	36.6766
1920	35.6725
1920.5	35.0545
1921	35.1918
1921.5	36.0145
1922	36.9072
1922.5	37.3603
1923	37.2388
1923.5	36.7598
1924	36.1937
1924.5	35.5261
1925	34.6547
1925.5	33.7182
1926	33.2598
1926.5	33.6446
1927	34.764
1927.5	36.0986
1928	37.0379
1928.5	37.3844
1929	37.1985
1929.5	36.5948
1930	35.7034
1930.5	34.9116
1931	34.7519
1931.5	35.5891
1932	37.1599
1932.5	38.3227
1933	38.0496
1933.5	36.2152
1934	33.7519
1934.5	32.1021
1935	31.9085
1935.5	32.8782
1936	34.1144
1936.5	34.7595
1937	34.7145
1937.5	34.3853
1938	34.3156
1938.5	34.8091
1939	35.613
1939.5	36.2485
1940	36.278
1940.5	35.5622
1941	34.5925
1941.5	33.9494
1942	33.9621
1942.5	34.5077
1943	35.0516
1943.5	35.2734
1944	35.2815
1944.5	35.5619
1945	36.538
1945.5	38.0763
1946	39.6251
1946.5	40.4914
1947	40.3064
1947.5	39.3708
1948	38.2306
1948.5	37.3837
1949	36.9877
1949.5	36.7218
1950	36.2488
1950.5	35.4221
1951	34.4038
1951.5	33.5807
1952	33.2205
1952.5	33.378
1953	33.9079
1953.5	34.5527
1954	35.1851
1954.5	35.8068
1955	36.4572
1955.5	37.0317
1956	37.2159
1956.5	36.6239
1957	35.0324
1957.5	32.788
1958	30.8479
1958.5	30.0916
1959	30.8912
1959.5	32.7211
1960	34.3225
1960.5	34.8149
1961	34.0829
1961.5	32.8798
1962	32.2672
1962.5	32.6444
1963	33.7246
1963.5	34.8397
1964	35.5908
1964.5	36.1483
1965	36.8475
1965.5	37.7721
1966	38.4995
1966.5	38.528
1967	37.7153
1967.5	36.3757
1968	35.113
1968.5	34.3482
1969	34.1774
1969.5	34.4297
1970	34.7347
1970.5	34.7534
1971	34.411
1971.5	33.9246
1972	33.7172
1972.5	33.9741
1973	34.4786
1973.5	34.8319
1974	34.7757
1974.5	34.5011
1975	34.3182
1975.5	34.3126
1976	34.326
1976.5	34.2929
1977	34.5219
1977.5	35.3518
1978	36.7321
1978.5	37.9865
1979	38.4274
1979.5	37.9232
1980	36.9122
1980.5	36.1052
1981	35.833
1981.5	35.9827
1982	36.2365
1982.5	36.2376
1983	35.7872
1983.5	34.9107
1984	33.9037
1984.5	33.3315
1985	33.603
1985.5	34.4921
1986	35.2966
1986.5	35.2675
1987	34.3817
1987.5	33.4725
1988	33.358
1988.5	34.2452
1989	35.4803
1989.5	36.2104
1990	36.1304
1990.5	35.487
1991	34.7827
1991.5	34.2785
1992	33.9568
1992.5	33.807
1993	34.0096
1993.5	34.7165
1994	35.7903
1994.5	36.8116
1995	37.259
1995.5	36.931
1996	36.0278
1996.5	34.8797
1997	33.7937
1997.5	32.9686
1998	32.4701
1998.5	32.2986
1999	32.4014
1999.5	32.7231
2000	33.2408
2000.5	33.9263
2001	34.612
2001.5	34.9272
2002	34.6729
2002.5	34.009
2003	33.3749
2003.5	33.2196
2004	33.5542
2004.5	34.1269
2005	34.7582
2005.5	35.4798
2006	36.3529
2006.5	37.1935
2007	37.6661
2007.5	37.5108
2008	36.7756
2008.5	35.6982
2009	34.422
2009.5	33.0554
2010	31.8683
2010.5	31.2078
2011	31.1904
2011.5	31.5483
2012	31.7821
2012.5	31.7885
2013	31.9779
2013.5	32.8252
2014	34.2917
2014.5	35.5316
2015	35.7523
2015.5	34.7646
2016	33.1496
2016.5	31.9868
2017	31.9203
2017.5	32.9371
2018	34.4504
2018.5	35.5863
2019	35.9034
2019.5	35.5298
2020	34.9911
2020.5	34.8369
2021	35.0578
2021.5	35.2565
2022	35.0202
2022.5	34.2408
2023	33.2605
2023.5	32.3667
2024	31.6523
2024.5	31.1094
2025	30.8345
2025.5	30.9911
2026	31.5419
2026.5	32.054
2027	31.8814
2027.5	30.854
2028	29.3966
2028.5	28.3148
2029	28.2353
2029.5	28.9908
2030	30.0457
2030.5	30.9156
2031	31.5192
2031.5	32.1308
2032	32.8709
2032.5	33.5631
2033	33.792
2033.5	33.3611
2034	32.3897
2034.5	31.2009
2035	30.218
2035.5	29.8386
2036	30.3136
2036.5	31.6387
2037	33.3599
2037.5	34.5353
2038	34.509
2038.5	33.3623
2039	31.9462
2039.5	31.3732
2040	31.827
2040.5	32.6348
2041	32.8765
2041.5	32.1738
2042	31.2178
2042.5	30.7907
2043	31.159
2043.5	31.8254
2044	31.9947
2044.5	31.442
2045	30.5708
2045.5	30.1905
2046	30.8467
2046.5	32.3797
2047	34.1347
2047.5	35.2559
2048	35.2728
2048.5	34.4974
2049	33.5708
2049.5	33.0279
2050	32.873
2050.5	32.6884
2051	32.2609
2051.5	31.7829
2052	31.723
2052.5	32.1551
2053	32.6712
2053.5	32.6645
2054	31.7035
2054.5	30.1022
2055	28.5905
2055.5	27.9571
2056	28.6817
2056.5	30.3159
2057	31.862
2057.5	32.5043
2058	32.1631
2058.5	31.7323
2059	31.9918
2059.5	32.8074
2060	33.2634
2060.5	32.5721
2061	31.3034
2061.5	30.6442
2062	31.3459
2062.5	32.8759
2063	33.7618
2063.5	33.3049
2064	31.9568
2064.5	30.9683
2065	31.0588
2065.5	31.8337
2066	32.3925
2066.5	31.9958
2067	30.7409
2067.5	29.2625
2068	28.1668
2068.5	27.805
2069	28.138
2069.5	28.8626
2070	29.6602
2070.5	30.2096
2071	30.1921
2071.5	29.5219
2072	28.3989
2072.5	27.3601
2073	27.1764
2073.5	28.0352
2074	29.4492
2074.5	30.5577
2075	30.7092
2075.5	30.2671
2076	30.0661
2076.5	30.6256
2077	31.6733
2077.5	32.2637
2078	31.8696
2078.5	30.7215
2079	29.5843
2079.5	29.1291
2080	29.3016
2080.5	29.6716
2081	29.8112
2081.5	29.5667
2082	29.0972
2082.5	28.5708
2083	28.0991
2083.5	27.7652
2084	27.6349
2084.5	27.7822
2085	28.2495
2085.5	28.9855
2086	29.6987
2086.5	29.9719
2087	29.4644
2087.5	28.1777
2088	26.7534
2088.5	25.9691
2089	26.1788
2089.5	27.0563
2090	27.6927
2090.5	27.5012
2091	26.5905
2091.5	25.6
2092	25.2934
2092.5	25.8374
2093	26.9291
2093.5	28.0384
2094	28.6234
2094.5	28.5378
2095	27.9904
2095.5	27.4309
2096	27.3871
2096.5	28.0524
2097	29.2027
2097.5	30.3952
2098	31.1484
2098.5	31.2227
2099	30.7381
2099.5	29.9593
2100	29.1037
2100.5	28.1277
2101	26.8754
2101.5	25.4966
2102	24.648
2102.5	25.25
2103	27.1768
2103.5	29.3322
2104	30.3734
2104.5	29.7927
2105	28.7966
2105.5	28.6329
2106	29.5695
2106.5	30.7485
2107	31.2553
2107.5	31.1698
2108	30.953
2108.5	30.6359
2109	29.71
2109.5	28.2475
2110	27.1806
2110.5	27.5674
2111	29.2107
2111.5	30.5321
2112	30.3795
2112.5	28.9194
2113	27.5809
2113.5	27.4226
2114	28.3373
2114.5	29.6124
2115	30.6005
2115.5	31.1022
2116	31.032
2116.5	30.3288
2117	29.163
2117.5	28.0768
2118	27.4531
2118.5	27.3031
2119	27.424
2119.5	27.706
2120	28.1458
2120.5	28.6152
2121	28.8928
2121.5	29.037
2122	29.4715
2122.5	30.3731
2123	31.2882
2123.5	31.2691
2124	30.1729
2124.5	28.7327
2125	27.8731
2125.5	27.9061
2126	28.1985
2126.5	28.2768
2127	28.2072
2127.5	28.296
2128	28.386
2128.5	27.9748
2129	26.9031
2129.5	25.7037
2130	25.2417
2130.5	25.6709
2131	26.4726
2131.5	26.9442
2132	26.7619
2132.5	26.1657
2133	25.4638
2133.5	24.9463
2134	25.0243
2134.5	25.9561
2135	27.5618
2135.5	29.0959
2136	29.5345
2136.5	28.7102
2137	27.3686
2137.5	26.4286
2138	26.2462
2138.5	26.3031
2139	26.2148
2139.5	26.2983
2140	27.2678
2140.5	29.1371
2141	30.7398
2141.5	30.8496
2142	29.1889
2142.5	26.9995
2143	25.8815
2143.5	26.3486
2144	27.8096
2144.5	29.1778
2145	29.9651
2145.5	30.3022
2146	30.3434
2146.5	29.8847
2147	28.6872
2147.5	26.9632
2148	25.375
2148.5	24.6953
2149	25.0859
2149.5	26.027
2150	26.8797
2150.5	27.2693
2151	27.2943
2151.5	27.187
2152	26.9216
2152.5	26.2959
2153	25.3254
2153.5	24.5656
2154	24.6101
2154.5	25.5908
2155	26.9084
2155.5	27.7252
2156	27.8693
2156.5	27.7934
2157	28.1273
2157.5	28.8908
2158	29.5695
2158.5	29.663
2159	29.0104
2159.5	27.9058
2160	26.754
2160.5	25.9273
2161	25.7717
2161.5	26.3425
2162	27.0789
2162.5	27.1954
2163	26.2459
2163.5	24.7693
2164	23.9799
2164.5	24.469
2165	25.7797
2165.5	26.718
2166	26.8315
2166.5	26.7572
2167	27.3831
2167.5	28.9016
2168	30.3261
2168.5	30.7355
2169	30.0126
2169.5	28.8029
2170	27.8024
2170.5	26.9934
2171	26.0246
2171.5	24.764
2172	23.6509
2172.5	23.2415
2173	23.6902
2173.5	24.6313
2174	25.2968
2174.5	25.1715
2175	24.3305
2175.5	23.3827
2176	23.1903
2176.5	23.9407
2177	25.0668
2177.5	25.7634
2178	25.6483
2178.5	25.2963
2179	25.4283
2179.5	26.2286
2180	27.304
2180.5	28.1507
2181	28.7007
2181.5	29.073
2182	29.2756
2182.5	29.2007
2183	28.951
2183.5	28.7466
2184	28.6128
2184.5	28.1368
2185	26.9933
2185.5	25.4276
2186	24.1409
2186.5	23.7843
2187	24.1392
2187.5	24.6221
2188	24.8796
2188.5	25.0499
2189	25.4521
2189.5	26.0022
2190	26.2798
2190.5	25.8741
2191	24.9421
2191.5	24.142
2192	24.1035
2192.5	25.0224
2193	26.2671
2193.5	26.7871
2194	26.0396
2194.5	24.4152
2195	23.2287
2195.5	23.4106
2196	24.7187
2196.5	26.0805
2197	26.3951
2197.5	25.7044
2198	24.6792
2198.5	23.7906
2199	22.9318
2199.5	21.7998
2200	20.6369
2200.5	20.1097
2201	20.7808
2201.5	22.3325
2202	23.9402
2202.5	25.1131
2203	25.9361
2203.5	26.8276
2204	27.7908
2204.5	28.3356
2205	27.9313
2205.5	26.5165
2206	24.804
2206.5	23.3955
2207	22.4827
2207.5	21.9176
2208	21.6451
2208.5	21.9351
2209	22.9835
2209.5	24.4727
2210	25.5019
2210.5	25.4951
2211	24.665
2211.5	23.8412
2212	23.8159
2212.5	24.5641
2213	25.5437
2213.5	26.1258
2214	26.0072
2214.5	25.4214
2215	24.7107
2215.5	24.1495
2216	23.8705
2216.5	23.8013
2217	23.8165
2217.5	23.7967
2218	23.7238
2218.5	23.7584
2219	24.0613
2219.5	24.5746
2220	24.9102
2220.5	24.6876
2221	24.067
2221.5	23.6299
2222	23.9179
2222.5	24.7238
2223	25.2138
2223.5	24.8752
2224	24.0042
2224.5	23.6263
2225	24.2783
2225.5	25.5715
2226	26.6109
2226.5	26.6651
2227	25.9816
2227.5	25.197
2228	24.8854
2228.5	25.3065
2229	26.2194
2229.5	27.1139
2230	27.4144
2230.5	26.7503
2231	25.4489
2231.5	24.2602
2232	23.7062
2232.5	23.7307
2233	23.7521
2233.5	23.4972
2234	23.3353
2234.5	23.9305
2235	25.512
2235.5	27.1998
2236	27.8671
2236.5	26.9058
2237	24.6381
2237.5	22.2777
2238	20.7323
2238.5	20.3796
2239	21.1223
2239.5	22.4397
2240	23.7938
2240.5	24.7122
2241	24.8898
2241.5	24.4581
2242	23.8417
2242.5	23.3955
2243	23.281
2243.5	23.5004
2244	24.057
2244.5	24.9368
2245	25.9645
2245.5	26.7983
2246	27.2674
2246.5	27.4224
2247	27.3326
2247.5	26.8446
2248	25.7918
2248.5	24.3091
2249	22.8691
2249.5	22.0183
2250	21.7945
2250.5	21.7773
2251	21.6103
2251.5	21.2694
2252	21.077
2252.5	21.2848
2253	21.8804
2253.5	22.6099
2254	23.1283
2254.5	23.3016
2255	23.1991
2255.5	22.9678
2256	22.668
2256.5	22.2401
2257	21.6733
2257.5	21.1132
2258	20.812
2258.5	20.8697
2259	21.233
2259.5	21.8149
2260	22.5455
2260.5	23.2605
2261	23.7068
2261.5	23.7218
2262	23.4397
2262.5	23.3034
2263	23.5171
2263.5	23.8026
2264	23.633
2264.5	22.7953
2265	21.726
2265.5	20.9216
2266	20.5466
2266.5	20.362
2267	20.1758
2267.5	20.1616
2268	20.5633
2268.5	21.3075
2269	21.9336
2269.5	22.2189
2270	22.2987
2270.5	22.2633
2271	21.7667
2271.5	20.5548
2272	19.0925
2272.5	18.5533
2273	19.6451
2273.5	21.44
2274	22.4111
2274.5	21.7832
2275	20.5919
2275.5	20.5183
2276	21.8297
2276.5	23.4239
2277	23.8985
2277.5	23.3191
2278	22.5705
2278.5	22.2992
2279	22.3097
2279.5	21.9948
2280	21.3763
2280.5	21.0789
2281	21.7924
2281.5	23.2802
2282	24.5323
2282.5	24.6812
2283	23.5283
2283.5	21.8019
2284	20.3647
2284.5	19.5627
2285	19.3092
2285.5	19.4653
2286	20.0326
2286.5	20.9029
2287	21.6369
2287.5	21.7805
2288	21.6966
2288.5	22.0556
2289	23.0333
2289.5	23.7936
2290	23.3116
2290.5	21.7492
2291	20.2997
2291.5	20.237
2292	21.4162
2292.5	22.5662
2293	22.7239
2293.5	21.8399
2294	20.5765
2294.5	19.4107
2295	18.4316
2295.5	17.6591
2296	17.2704
2296.5	17.3716
2297	17.854
2297.5	18.4261
2298	18.7698
2298.5	18.8404
2299	18.8069
2299.5	18.9491
2300	19.5134
2300.5	20.3682
2301	21.0834
2301.5	21.2731
2302	20.9721
2302.5	20.8344
2303	21.4035
2303.5	22.4812
2304	23.1876
2304.5	22.6818
2305	21.2602
2305.5	19.9667
2306	19.8261
2306.5	20.9273
2307	22.1423
2307.5	22.478
2308	21.7356
2308.5	20.7047
2309	20.2023
2309.5	20.2213
2310	20.2413
2310.5	19.8244
2311	19.2454
2311.5	19.03
2312	19.2912
2312.5	19.4828
2313	18.9123
2313.5	17.867
2314	17.3012
2314.5	18.0181
2315	19.6052
2315.5	20.6887
2316	20.441
2316.5	19.2496
2317	18.5506
2317.5	19.1181
2318	20.4139
2318.5	21.3324
2319	21.2913
2319.5	20.8138
2320	20.4576
2320.5	20.3093
2321	20.1068
2321.5	19.8513
2322	19.8961
2322.5	20.4516
2323	21.2267
2323.5	21.6954
2324	21.7721
2324.5	21.7344
2325	21.8667
2325.5	22.133
2326	22.2866
2326.5	22.1794
2327	21.7828
2327.5	21.1282
2328	20.394
2328.5	19.865
2329	19.7629
2329.5	19.9433
2330	19.9005
2330.5	19.4916
2331	19.1713
2331.5	19.6884
2332	20.9484
2332.5	22.0161
2333	22.1947
2333.5	21.6873
2334	21.4547
2334.5	21.8499
2335	22.3701
2335.5	22.3124
2336	21.7071
2336.5	21.3389
2337	21.6469
2337.5	22.4819
2338	23.3468
2338.5	23.7811
2339	23.3453
2339.5	21.712
2340	19.3245
2340.5	18.1257
2341	19.7519
2341.5	23.9542
2342	28.1172
2342.5	29.1325
2343	26.5964
2343.5	22.4817
2344	19.5345
2344.5	18.9247
2345	19.585
2345.5	20.2226
2346	20.3385
2346.5	20.1533
2347	19.9149
2347.5	19.6848
2348	19.6151
2348.5	20.054
2349	21.0079
2349.5	21.9741
2350	22.2965
2350.5	21.6117
2351	20.3823
2351.5	19.3379
2352	18.9774
2352.5	19.2515
2353	19.5244
2353.5	19.3765
2354	19.0154
2354.5	19.0974
2355	20.0756
2355.5	21.5727
2356	22.813
2356.5	23.1222
2357	22.3812
2357.5	21.1622
2358	20.0537
2358.5	19.4224
2359	19.3148
2359.5	19.3687
2360	19.2728
2360.5	18.9858
2361	18.8066
2361.5	18.9631
2362	19.2357
2362.5	19.2597
2363	18.927
2363.5	18.6134
2364	18.6628
2364.5	19.0674
2365	19.5629
2365.5	19.9448
2366	20.2004
2366.5	20.2742
2367	20.0775
2367.5	19.7322
2368	19.6022
2368.5	19.8334
2369	20.1069
2369.5	19.7617
2370	18.717
2370.5	17.4729
2371	16.6831
2371.5	16.716
2372	17.3072
2372.5	18.0472
2373	18.6768
2373.5	19.1313
2374	19.4019
2374.5	19.4137
2375	19.1065
2375.5	18.5918
2376	18.2464
2376.5	18.3769
2377	18.9266
2377.5	19.5121
2378	19.7872
2378.5	19.8194
2379	19.793
2379.5	19.7145
2380	19.3533
2380.5	18.6765
2381	17.9538
2381.5	17.4021
2382	16.9532
2382.5	16.4784
2383	16.2399
2383.5	16.7003
2384	17.9833
2384.5	19.2964
2385	19.8585
2385.5	19.6403
2386	19.2845
2386.5	19.3834
2387	19.7084
2387.5	19.7611
2388	19.457
2388.5	19.3278
2389	19.5822
2389.5	19.7502
2390	19.2188
2390.5	18.0208
2391	17.1281
2391.5	17.1602
2392	17.7376
2392.5	17.902
2393	17.3151
2393.5	16.5529
2394	16.2662
2394.5	16.5539
2395	16.9255
2395.5	17.157
2396	17.3824
2396.5	17.6677
2397	17.7646
2397.5	17.5505
2398	17.2886
2398.5	17.3745
2399	17.7998
2399.5	18.1637
2400	18.2871
2400.5	18.2833
2401	18.2931
2401.5	18.2027
2402	17.9014
2402.5	17.5276
2403	17.3252
2403.5	17.2987
2404	17.2994
2404.5	17.3211
2405	17.5474
2405.5	18.0388
2406	18.5486
2406.5	18.8497
2407	18.8906
2407.5	18.721
2408	18.3201
2408.5	17.6804
2409	17.0356
2409.5	16.844
2410	17.2961
2410.5	18.2814
2411	19.5277
2411.5	20.6737
2412	21.2458
2412.5	20.9274
2413	19.8192
2413.5	18.5956
2414	18.0408
2414.5	18.1697
2415	18.378
2415.5	18.0742
2416	17.508
2416.5	17.2565
2417	17.3683
2417.5	17.2622
2418	16.3847
2418.5	15.2562
2419	14.9092
2419.5	15.8703
2420	17.5637
2420.5	18.7148
2421	18.6964
2421.5	17.7556
2422	16.8312
2422.5	16.655
2423	17.2398
2423.5	18.1382
2424	18.729
2424.5	18.7243
2425	18.3901
2425.5	18.1703
2426	18.2406
2426.5	18.357
2427	18.3292
2427.5	18.312
2428	18.5768
2428.5	18.9628
2429	18.9854
2429.5	18.5783
2430	18.2217
2430.5	18.4546
2431	18.854
2431.5	18.563
2432	17.3764
2432.5	16.2157
2433	16.2426
2433.5	17.4569
2434	18.8547
2434.5	19.2525
2435	18.7751
2435.5	18.3598
2436	18.5991
2436.5	19.2146
2437	19.2194
2437.5	18.1195
2438	16.4034
2438.5	15.0433
2439	14.8094
2439.5	15.4612
2440	16.2654
2440.5	16.4729
2441	15.83
2441.5	14.8182
2442	13.9401
2442.5	13.4436
2443	13.2148
2443.5	12.9738
2444	12.7539
2444.5	12.8557
2445	13.5695
2445.5	14.7604
2446	15.994
2446.5	16.8929
2447	17.2953
2447.5	17.2072
2448	16.7599
2448.5	16.1927
2449	15.8031
2449.5	15.6434
2450	15.3146
2450.5	14.6099
2451	13.8858
2451.5	14.0363
2452	15.3705
2452.5	17.2429
2453	18.5737
2453.5	18.7108
2454	18.0812
2454.5	17.5017
2455	17.5485
2455.5	18.2119
2456	18.7353
2456.5	18.4761
2457	17.4559
2457.5	16.4983
2458	16.6612
2458.5	17.7166
2459	18.4653
2459.5	17.928
2460	16.3805
2460.5	15.1481
2461	14.9356
2461.5	15.3715
2462	15.7078
2462.5	15.7943
2463	15.8192
2463.5	15.7884
2464	15.6307
2464.5	15.8572
2465	17.0757
2465.5	19.0853
2466	20.5306
2466.5	19.9736
2467	17.9011
2467.5	16.0894
2468	15.9874
2468.5	17.356
2469	18.5954
2469.5	18.5662
2470	17.3945
2470.5	16.1573
2471	15.6337
2471.5	15.7146
2472	15.7489
2472.5	15.1918
2473	14.5102
2473.5	14.4564
2474	15.2546
2474.5	16.1604
2475	16.0584
2475.5	15.0496
2476	14.1386
2476.5	14.2285
2477	15.0117
2477.5	15.47
2478	15.1631
2478.5	14.5699
2479	14.2951
2479.5	14.1734
2480	13.6969
2480.5	12.701
2481	11.818
2481.5	11.7854
2482	12.8354
2482.5	14.69
2483	16.6686
2483.5	17.984
2484	18.2641
2484.5	17.5922
2485	16.477
2485.5	15.5331
2486	14.9059
2486.5	14.3941
2487	13.9052
2487.5	13.7854
2488	14.4434
2488.5	15.8022
2489	17.0367
2489.5	17.1073
2490	15.9548
2490.5	14.4101
2491	13.6687
2491.5	14.3552
2492	15.6661
2492.5	16.5537
2493	16.3572
2493.5	15.2154
2494	14.1439
2494.5	13.8908
2495	14.5714
2495.5	15.688
2496	16.5149
2496.5	16.8183
2497	16.8213
2497.5	16.7958
2498	16.8027
2498.5	16.7888
2499	16.7782
2499.5	16.7905
2500	16.6568
2500.5	16.1881
2501	15.4415
2501.5	14.7564
2502	14.5445
2502.5	14.8483
2503	15.5141
2503.5	16.2978
2504	16.9169
2504.5	17.2771
2505	17.5167
2505.5	17.7712
2506	17.8764
2506.5	17.3597
2507	16.2139
2507.5	14.9811
2508	14.3161
2508.5	14.2756
2509	14.3464
2509.5	14.3117
2510	14.4491
2510.5	15.0773
2511	15.9581
2511.5	16.6475
2512	16.8721
2512.5	16.5105
2513	15.6317
2513.5	14.602
2514	14.2291
2514.5	15.1676
2515	16.696
2515.5	17.4223
2516	16.4806
2516.5	14.317
2517	12.6302
2517.5	12.3909
2518	13.5808
2518.5	15.4294
2519	16.6537
2519.5	16.4832
2520	14.9965
2520.5	13.1068
2521	12.103
2521.5	12.3021
2522	13.1079
2522.5	13.8973
2523	14.4357
2523.5	14.7442
2524	14.7366
2524.5	14.4674
2525	14.3086
2525.5	14.5296
2526	14.8165
2526.5	14.689
2527	14.204
2527.5	14.0188
2528	14.4146
2528.5	15.0181
2529	15.2921
2529.5	15.2729
2530	15.3189
2530.5	15.4358
2531	15.2335
2531.5	14.4142
2532	13.1989
2532.5	11.8947
2533	10.7596
2533.5	10.1503
2534	10.3788
2534.5	11.5229
2535	13.2801
2535.5	15.0435
2536	16.2019
2536.5	16.3739
2537	15.3481
2537.5	13.3427
2538	11.4825
2538.5	10.8773
2539	11.6776
2539.5	12.9498
2540	13.2862
2540.5	12.4725
2541	11.4552
2541.5	11.3276
2542	12.5366
2542.5	14.3115
2543	15.595
2543.5	15.6904
2544	14.5782
2544.5	13.2528
2545	12.7956
2545.5	13.5592
2546	14.9584
2546.5	15.9831
2547	16.2898
2547.5	16.1107
2548	15.5304
2548.5	14.2235
2549	12.3588
2549.5	11.0716
2550	11.7171
2550.5	14.3061
2551	17.0722
2551.5	18.2674
2552	17.3972
2552.5	15.4427
2553	13.7487
2553.5	13.0233
2554	13.4424
2554.5	14.4321
2555	14.8621
2555.5	14.0438
2556	12.3875
2556.5	11.4881
2557	12.2158
2557.5	13.6102
2558	14.0902
2558.5	12.9883
2559	11.6805
2559.5	11.2569
2560	11.3686
2560.5	10.8106
2561	9.4141
2561.5	8.60818
2562	9.42022
2562.5	11.4985
2563	13.2555
2563.5	14.0509
2564	14.4908
2564.5	15.3042
2565	16.3836
2565.5	16.9014
2566	16.6245
2566.5	15.9034
2567	15.1611
2567.5	14.408
2568	13.6357
2568.5	13.1669
2569	13.4202
2569.5	14.1769
2570	14.7046
2570.5	14.7243
2571	14.6403
2571.5	15.0875
2572	15.6612
2572.5	15.4945
2573	14.2124
2573.5	12.6734
2574	12.1475
2574.5	12.6529
2575	13.2692
2575.5	13.0868
2576	12.5141
2576.5	12.3442
2577	12.6513
2577.5	12.7309
2578	12.1717
2578.5	11.7359
2579	12.3711
2579.5	14.3184
2580	16.4536
2580.5	17.3972
2581	16.7014
2581.5	14.9138
2582	13.3283
2582.5	12.7245
2583	12.9784
2583.5	13.5693
2584	14.0746
2584.5	14.4108
2585	14.4501
2585.5	13.9912
2586	13.1624
2586.5	12.7511
2587	13.2349
2587.5	14.3778
2588	15.4421
2588.5	15.8852
2589	15.6586
2589.5	14.7063
2590	13.1259
2590.5	11.8391
2591	11.828
2591.5	12.9567
2592	13.901
2592.5	13.2025
2593	11.5895
2593.5	10.425
2594	10.4338
2594.5	11.2215
2595	11.9801
2595.5	12.5363
2596	12.8176
2596.5	12.6367
2597	12.3398
2597.5	12.5614
2598	13.3996
2598.5	13.9382
2599	13.3206
2599.5	12.1667
2600	11.6459
2600.5	12.2784
2601	13.0854
2601.5	13.1721
2602	12.5976
2602.5	11.9754
2603	11.7765
2603.5	12.0471
2604	12.8436
2604.5	14.0816
2605	15.0793
2605.5	15.0383
2606	13.8814
2606.5	12.3986
2607	11.7848
2607.5	12.2822
2608	13.0967
2608.5	13.1667
2609	12.1958
2609.5	11.2929
2610	11.814
2610.5	14.0925
2611	16.7005
2611.5	17.4909
2612	15.9705
2612.5	13.4619
2613	11.9448
2613.5	12.1159
2614	12.695
2614.5	12.4685
2615	11.5201
2615.5	10.9397
2616	11.187
2616.5	11.5783
2617	11.3869
2617.5	10.8095
2618	10.7611
2618.5	11.5386
2619	12.6319
2619.5	13.4378
2620	13.7644
2620.5	13.7098
2621	13.3381
2621.5	12.7698
2622	12.3336
2622.5	12.2083
2623	12.2901
2623.5	12.4635
2624	12.7868
2624.5	13.1706
2625	13.2574
2625.5	12.7453
2626	11.6166
2626.5	10.873
2627	10.7693
2627.5	11.2204
2628	11.7533
2628.5	12.124
2629	12.1388
2629.5	11.9128
2630	11.5636
2630.5	11.2908
2631	11.078
2631.5	10.9251
2632	10.7975
2632.5	10.7116
2633	10.7654
2633.5	10.8836
2634	11.1025
2634.5	11.2182
2635	11.2428
2635.5	10.8302
2636	10.2541
2636.5	9.4052
2637	8.64904
2637.5	8.00732
2638	7.99752
2638.5	8.3278
2639	8.99336
2639.5	9.65631
2640	10.16
2640.5	10.2791
2641	10.2215
2641.5	10.1129
2642	10.337
2642.5	10.6698
2643	11.1226
2643.5	11.1406
2644	10.9035
2644.5	10.1377
2645	9.46758
2645.5	8.9014
2646	9.30052
2646.5	10.0524
2647	11.2395
2647.5	12.1568
2648	12.7607
2648.5	12.5159
2649	11.8408
2649.5	10.9176
2650	10.135
2650.5	9.5394
2651	9.20248
2651.5	9.01032
2652	8.87155
2652.5	8.80993
2653	8.96629
2653.5	9.26619
2654	9.87931
2654.5	10.3946
2655	10.7567
2655.5	10.72
2656	10.5522
2656.5	10.2816
2657	10.182
2657.5	10.209
2658	10.4701
2658.5	10.7834
2659	11.175
2659.5	11.6209
2660	12.0366
2660.5	12.1891
2661	11.9853
2661.5	11.4866
2662	10.8484
2662.5	10.4552
2663	10.5635
2663.5	10.9527
2664	11.3378
2664.5	10.967
2665	10.0721
2665.5	8.69183
2666	7.77016
2666.5	7.27858
2667	7.65593
2667.5	8.26059
2668	8.91737
2668.5	9.16165
2669	9.52782
2669.5	10.0202
2670	11.257
2670.5	12.5068
2671	13.5429
2671.5	13.5425
2672	12.9778
2672.5	11.5478
2673	10.4565
2673.5	9.7577
2674	10.0712
2674.5	10.6517
2675	11.526
2675.5	12.5951
2676	13.8177
2676.5	16.1432
2677	18.7849
2677.5	21.8368
2678	23.8953
2678.5	25.2614
2679	24.9357
2679.5	24.29
2680	23.4594
2680.5	23.5711
2681	23.5854
2681.5	23.4581
2682	21.7841
2682.5	19.5198
2683	16.4042
2683.5	13.9995
2684	12.0876
2684.5	11.6529
2685	11.256
2685.5	10.8842
2686	10.3042
2686.5	9.75002
2687	9.62383
2687.5	9.70288
2688	9.94144
2688.5	9.69431
2689	9.33051
2689.5	8.79165
2690	8.80828
2690.5	9.12076
2691	10.0864
2691.5	10.977
2692	11.8022
2692.5	12.1126
2693	12.2848
2693.5	12.2499
2694	11.9184
2694.5	11.3929
2695	10.2556
2695.5	9.03045
2696	7.71995
2696.5	7.15582
2697	6.96566
2697.5	7.47167
2698	8.07211
2698.5	8.69043
2699	9.04263
2699.5	9.30367
2700	9.46551
2700.5	9.33843
2701	9.09477
2701.5	8.64686
2702	8.49921
2702.5	8.54802
2703	9.31862
2703.5	10.0468
2704	10.7232
2704.5	10.6799
2705	10.3958
2705.5	9.76544
2706	9.2932
2706.5	8.92117
2707	8.85489
2707.5	8.8189
2708	8.82424
2708.5	8.8061
2709	8.79125
2709.5	8.80814
2710	8.9953
2710.5	9.29327
2711	9.87862
2711.5	10.4637
2712	11.0482
2712.5	11.5525
2713	11.9846
2713.5	12.1917
2714	11.8448
2714.5	11.0938
2715	9.58689
2715.5	8.46981
2716	8.06147
2716.5	9.01944
2717	10.3546
2717.5	11.4148
2718	11.5352
2718.5	10.8876
2719	9.8908
2719.5	9.10667
2720	8.77684
2720.5	8.36026
2721	7.8843
2721.5	7.21836
2722	6.94345
2722.5	7.02605
2723	7.45146
2723.5	7.6664
2724	7.34661
2724.5	6.79572
2725	6.24595
2725.5	6.57382
2726	7.28127
2726.5	8.37687
2727	8.93851
2727.5	9.18408
2728	8.79884
2728.5	8.39737
2729	8.00811
2729.5	7.87567
2730	7.64351
2730.5	7.29732
2731	6.84925
2731.5	6.548
2732	6.72305
2732.5	7.41384
2733	8.38117
2733.5	9.3159
2734	9.85296
2734.5	9.88088
2735	9.10293
2735.5	8.17328
2736	7.27729
2736.5	7.03571
2737	7.19539
2737.5	7.54959
2738	7.53596
2738.5	6.99431
2739	6.56377
2739.5	6.41376
2740	7.28188
2740.5	8.12457
2741	8.94986
2741.5	8.45552
2742	7.92599
2742.5	7.36501
2743	7.70067
2743.5	8.30454
2744	8.96146
2744.5	9.13179
2745	8.92886
2745.5	8.50705
2746	8.30023
2746.5	8.50093
2747	9.08803
2747.5	9.75714
2748	10.1435
2748.5	10.0964
2749	9.67697
2749.5	9.01756
2750	8.52316
2750.5	8.40457
2751	8.53834
2751.5	8.74891
2752	8.80069
2752.5	8.84205
2753	8.8734
2753.5	9.24659
2754	9.73671
2754.5	10.4165
2755	10.9736
2755.5	11.4336
2756	11.4481
2756.5	11.1819
2757	10.614
2757.5	9.62472
2758	8.56919
2758.5	7.4952
2759	6.891
2759.5	6.59143
2760	7.36712
2760.5	8.28334
2761	9.36845
2761.5	9.82277
2762	10.0301
2762.5	9.81881
2763	9.90034
2763.5	10.1567
2764	10.6641
2764.5	10.8131
2765	10.4797
2765.5	9.49264
2766	8.46867
2766.5	7.8319
2767	7.79495
2767.5	8.14266
2768	8.54587
2768.5	8.68338
2769	8.41943
2769.5	7.92711
2770	7.40612
2770.5	7.02018
2771	6.62189
2771.5	6.21472
2772	5.87185
2772.5	5.80054
2773	6.18831
2773.5	7.21776
2774	8.43012
2774.5	9.56571
2775	10.1476
2775.5	10.2829
2776	9.22256
2776.5	7.96595
2777	6.45849
2777.5	5.75506
2778	5.52919
2778.5	6.5637
2779	7.49178
2779.5	8.32381
2780	7.94283
2780.5	7.36902
2781	6.6047
2781.5	6.61598
2782	7.02385
2782.5	8.10917
2783	8.99775
2783.5	9.68775
2784	9.52686
2784.5	9.08506
2785	8.20005
2785.5	7.33897
2786	6.51022
2786.5	5.94084
2787	5.52896
2787.5	5.29489
2788	5.28817
2788.5	5.27027
2789	5.11778
2789.5	5.00144
2790	4.97274
2790.5	6.32059
2791	8.14617
2791.5	10.5754
2792	11.6665
2792.5	11.9483
2793	10.4051
2793.5	8.95068
2794	7.57473
2794.5	7.47504
2795	7.3779
2795.5	7.28436
2796	6.87926
2796.5	6.46902
2797	6.32943
2797.5	6.28887
2798	6.31513
2798.5	6.45358
2799	6.83334
2799.5	7.59561
2800	8.32553
2800.5	8.88076
2801	8.65377
2801.5	8.33136
2802	7.93672
2802.5	8.32608
2803	8.66965
2803.5	8.87787
2804	8.16599
2804.5	7.11169
2805	5.82749
2805.5	5.22881
2806	5.21132
2806.5	6.14284
2807	7.14742
2807.5	8.1677
2808	9.04144
2808.5	9.83363
2809	10.4345
2809.5	10.6347
2810	10.4548
2810.5	9.49178
2811	8.4217
2811.5	7.28826
2812	6.38787
2812.5	5.61069
2813	5.04987
2813.5	4.70482
2814	4.58862
2814.5	5.15844
2815	5.98668
2815.5	7.25084
2816	8.44785
2816.5	9.53541
2817	9.48926
2817.5	8.83814
2818	7.46922
2818.5	6.48855
2819	5.95863
2819.5	6.6021
2820	7.24445
2820.5	7.83753
2821	7.08926
2821.5	6.3439
2822	5.6024
2822.5	5.84562
2823	6.23014
2823.5	6.36641
2824	5.83296
2824.5	4.8815
2825	4.69575
2825.5	5.09901
2826	6.38041
2826.5	6.8344
2827	6.73032
2827.5	5.15457
2828	3.89368
2828.5	2.85643
2829	3.38443
2829.5	3.92691
2830	4.4377
2830.5	4.68781
2831	5.00825
2831.5	6.09796
2832	7.44004
2832.5	8.98304
2833	9.47517
2833.5	9.38515
2834	8.29489
2834.5	6.66279
2835	4.88512
2835.5	3.39601
2836	2.57193
2836.5	2.34041
2837	3.34167
2837.5	4.59267
2838	6.15995
2838.5	7.55843
2839	8.82906
2839.5	9.59953
2840	10.08
2840.5	10.2715
2841	9.9746
2841.5	9.45786
2842	8.54212
2842.5	7.54777
2843	6.56193
2843.5	6.10197
2844	5.79912
2844.5	5.67137
2845	5.03199
2845.5	4.21419
2846	3.11384
2846.5	2.44784
2847	2.06816
2847.5	2.79098
2848	3.85352
2848.5	5.33975
2849	6.4742
2849.5	7.16618
2850	6.62885
2850.5	5.58712
2851	4.26839
2851.5	3.87806
2852	3.86555
2852.5	4.38116
2853	4.80592
2853.5	5.2424
2854	5.8055
2854.5	6.59024
2855	7.52257
2855.5	7.67409
2856	7.31293
2856.5	6.15339
2857	5.08418
2857.5	4.30196
2858	4.73039
2858.5	5.96248
2859	7.79507
2859.5	9.43705
2860	10.493
2860.5	10.524
2861	9.53464
2861.5	8.25877
2862	7.22963
2862.5	6.72258
2863	6.65245
2863.5	6.79448
2864	6.76556
2864.5	6.36689
2865	5.52376
2865.5	4.53049
2866	3.65402
2866.5	3.25495
2867	3.30284
2867.5	4.07563
2868	4.82712
2868.5	5.36869
2869	5.25783
2869.5	4.81904
2870	3.91904
2870.5	3.24018
2871	2.79288
2871.5	3.43824
2872	4.38254
2872.5	5.72823
2873	6.35913
2873.5	6.54762
2874	5.42172
2874.5	4.37512
2875	3.42139
2875.5	3.35523
2876	3.42969
2876.5	3.47431
2877	3.273
2877.5	2.96156
2878	3.30291
2878.5	3.89693
2879	4.82233
2879.5	5.06992
2880	5.03666
2880.5	4.51438
2881	4.53825
2881.5	4.90948
2882	5.92574
2882.5	6.61332
2883	6.81742
2883.5	6.53587
2884	6.26307
2884.5	6.53562
2885	7.03055
2885.5	7.68135
2886	7.51958
2886.5	7.09556
2887	6.26186
2887.5	5.7195
2888	5.34959
2888.5	5.41307
2889	5.58376
2889.5	5.83869
2890	6.36935
2890.5	6.94707
2891	7.58807
2891.5	7.80463
2892	7.77219
2892.5	7.09837
2893	6.34701
2893.5	5.52746
2894	5.11158
2894.5	4.8742
2895	4.94676
2895.5	5.14545
2896	5.39048
2896.5	5.6041
2897	5.76123
2897.5	5.86279
2898	5.84486
2898.5	5.83366
2899	5.87129
2899.5	6.24216
2900	6.78998
2900.5	7.62264
2901	8.0985
2901.5	8.18183
2902	7.32295
2902.5	6.41415
2903	5.75546
2903.5	5.97169
2904	6.64293
2904.5	7.3685
2905	7.53508
2905.5	7.01351
2906	6.21117
2906.5	5.56498
2907	5.59015
2907.5	5.74955
2908	5.96978
2908.5	5.53041
2909	5.10413
2909.5	4.6959
2910	4.90391
2910.5	5.26004
2911	5.64621
2911.5	5.63323
2912	5.35801
2912.5	5.01929
2913	4.93152
2913.5	5.2326
2914	5.8178
2914.5	6.45655
2915	6.98929
2915.5	7.46676
2916	7.90347
2916.5	8.15647
2917	8.14655
2917.5	7.68794
2918	6.67647
2918.5	5.54719
2919	4.73799
2919.5	4.50793
2920	4.75627
2920.5	5.07091
2921	5.03887
2921.5	4.31501
2922	3.35907
2922.5	2.46989
2923	2.64372
2923.5	3.41102
2924	4.72685
2924.5	5.8664
2925	6.77171
2925.5	7.18909
2926	7.1798
2926.5	6.91743
2927	5.98037
2927.5	4.81775
2928	3.42198
2928.5	2.77123
2929	2.57608
2929.5	3.30378
2930	4.13536
2930.5	4.97103
2931	5.19079
2931.5	5.38683
2932	5.55545
2932.5	6.03733
2933	6.47754
2933.5	6.64133
2934	6.3346
2934.5	5.77171
2935	5.22125
2935.5	4.94484
2936	5.02315
2936.5	5.46194
2937	5.98845
2937.5	6.56336
2938	7.06022
2938.5	7.50343
2939	7.53563
2939.5	7.32224
2940	6.75238
2940.5	6.03339
2941	5.36549
2941.5	5.05615
2942	5.12916
2942.5	5.4666
2943	6.04295
2943.5	6.54481
2944	6.91941
2944.5	6.97104
2945	6.87008
2945.5	6.48106
2946	5.97231
2946.5	5.37068
2947	4.83073
2947.5	4.47285
2948	4.44505
2948.5	4.94021
2949	5.64479
2949.5	6.54329
2950	7.1105
2950.5	7.39008
2951	6.92366
2951.5	6.32374
2952	5.56308
2952.5	5.08054
2953	4.75967
2953.5	4.85295
2954	5.0212
2954.5	5.26226
2955	5.17342
2955.5	4.80066
2956	3.83857
2956.5	2.62133
2957	1.36943
2957.5	0.97553
2958	1.40841
2958.5	2.73919
2959	4.62981
2959.5	6.25073
2960	6.91511
2960.5	6.51221
2961	5.55981
2961.5	4.50696
2962	4.04766
2962.5	4.30959
2963	5.36767
2963.5	6.52223
2964	7.52304
2964.5	8.05694
2965	8.30513
2965.5	7.98713
2966	7.48727
2966.5	6.73983
2967	5.6558
2967.5	4.47703
2968	3.22478
2968.5	2.33841
2969	1.69043
2969.5	2.13623
2970	2.85571
2970.5	3.99339
2971	4.92559
2971.5	5.66537
2972	5.7956
2972.5	5.70963
2973	5.46631
2973.5	5.37192
2974	5.26475
2974.5	5.12853
2975	4.59714
2975.5	3.91224
2976	3.06496
2976.5	2.61884
2977	2.49981
2977.5	3.31369
2978	4.24255
2978.5	5.28989
2979	5.89355
2979.5	6.27342
2980	6.22553
2980.5	6.10334
2981	5.91337
2981.5	5.61403
2982	5.29495
2982.5	4.95402
2983	4.89246
2983.5	4.99914
2984	5.57082
2984.5	6.07363
2985	6.50616
2985.5	6.33579
2986	5.99341
2986.5	5.40622
2987	5.0468
2987.5	4.82681
2988	5.00713
2988.5	5.17762
2989	5.33691
2989.5	5.21799
2990	5.00012
2990.5	4.62461
2991	4.27534
2991.5	3.94878
2992	3.80627
2992.5	3.74209
2993	3.77799
2993.5	3.78244
2994	3.72955
2994.5	3.50374
2995	3.26326
2995.5	3.02045
2996	3.16463
2996.5	3.47094
2997	4.00946
2997.5	4.45621
2998	4.80066
2998.5	4.82438
2999	4.83236
2999.5	4.8296
3000	5.21474
3000.5	5.67775
3001	6.25902
3001.5	6.62236
3002	6.8611
3002.5	6.8
3003	6.6824
3003.5	6.52154
3004	6.34474
3004.5	6.0905
3005	5.69688
3005.5	5.07664
3006	4.37626
3006.5	3.64938
3007	3.13445
3007.5	2.80117
3008	3.01994
3008.5	3.3906
3009	3.99181
3009.5	4.45081
3010	4.79781
3010.5	4.70977
3011	4.54289
3011.5	4.30042
3012	4.43406
3012.5	4.72114
3013	5.27488
3013.5	5.6041
3014	5.77004
3014.5	5.27237
3015	4.67648
3015.5	3.97527
3016	3.73373
3016.5	3.67436
3017	3.93093
3017.5	4.03981
3018	4.05393
3018.5	3.74612
3019	3.54911
3019.5	3.48501
3020	3.86351
3020.5	4.30956
3021	4.72106
3021.5	4.73298
3022	4.50711
3022.5	3.95264
3023	3.55144
3023.5	3.35616
3024	3.50022
3024.5	3.67904
3025	3.71539
3025.5	3.50714
3026	3.14331
3026.5	2.96944
3027	3.08834
3027.5	3.64862
3028	4.46626
3028.5	5.22949
3029	5.4665
3029.5	5.13366
3030	4.39155
3030.5	3.42206
3031	2.72051
3031.5	2.48289
3032	2.93775
3032.5	3.64771
3033	4.58225
3033.5	5.3293
3034	5.92545
3034.5	6.18051
3035	6.39058
3035.5	6.54994
3036	6.69473
3036.5	6.80805
3037	6.7481
3037.5	6.59601
3038	6.36094
3038.5	6.27171
3039	6.31518
3039.5	6.61991
3040	7.04745
3040.5	7.49803
3041	7.71307
3041.5	7.68171
3042	7.40216
3042.5	6.76247
3043	6.01383
3043.5	5.10217
3044	4.09121
3044.5	3.03146
3045	1.94302
3045.5	0.99257
3046	0.19756
3046.5	0
3047	0.10315
3047.5	0.7989
3048	1.84564
3048.5	3.08111
3049	4.36843
3049.5	5.46556
3050	6.32291
3050.5	6.56388
3051	6.52283
3051.5	5.94375
3052	5.21366
3052.5	4.40238
3053	4.04314
3053.5	4.01149
3054	4.44282
3054.5	5.25811
3055	6.12202
3055.5	6.82061
3056	7.10089
3056.5	7.09949
3057	6.43004
3057.5	5.65598
3058	4.72438
3058.5	3.94936
3059	3.28913
3059.5	2.96227
3060	2.85452
3060.5	2.91229
3061	3.19337
3061.5	3.48494
3062	3.78036
3062.5	3.93383
3063	4.00723
3063.5	3.88675
3064	3.72912
3064.5	3.54006
3065	3.42048
3065.5	3.32257
3066	3.25899
3066.5	3.13386
3067	2.96665
3067.5	2.66114
3068	2.34419
3068.5	2.01642
3069	1.91415
3069.5	1.95925
3070	2.29149
3070.5	2.8742
3071	3.57612
3071.5	4.38075
3072	5.08499
3072.5	5.683
3073	5.949
3073.5	6.07903
3074	5.96928
3074.5	5.72202
3075	5.39941
3075.5	4.96855
3076	4.51122
3076.5	4.02255
3077	3.64029
3077.5	3.38039
3078	3.43782
3078.5	3.88309
3079	4.56073
3079.5	5.65302
3080	6.67887
3080.5	7.61666
3081	8.05615
3081.5	8.26359
3082	8.02149
3082.5	7.64188
3083	7.1761
3083.5	6.78332
3084	6.39583
3084.5	6.0162
3085	5.54859
3085.5	5.0624
3086	4.59279
3086.5	4.36241
3087	4.30158
3087.5	4.80971
3088	5.42617
3088.5	6.20414
3089	6.80228
3089.5	7.25476
3090	7.237
3090.5	6.98322
3091	6.54194
3091.5	5.97933
3092	5.43219
3092.5	4.92591
3093	4.55711
3093.5	4.27716
3094	4.258
3094.5	4.41753
3095	4.73593
3095.5	5.20023
3096	5.58409
3096.5	5.76978
3097	5.58537
3097.5	5.2168
3098	4.55696
3098.5	3.96974
3099	3.45472
3099.5	3.33377
3100	3.32062
3100.5	3.45903
3101	3.50574
3101.5	3.49267
3102	3.27502
3102.5	3.14626
3103	3.11633
3103.5	3.54922
3104	4.1845
3104.5	5.19086
3105	6.13554
3105.5	7.0167
3106	7.3173
3106.5	7.27457
3107	6.80456
3107.5	5.96971
3108	5.08544
3108.5	4.26687
3109	3.71254
3109.5	3.32826
3110	3.53532
3110.5	3.93928
3111	4.61784
3111.5	5.51433
3112	6.44314
3112.5	7.30224
3113	7.91261
3113.5	8.35772
3114	8.28311
3114.5	8.05012
3115	7.57293
3115.5	7.08808
3116	6.64392
3116.5	6.39678
3117	6.34527
3117.5	6.4396
3118	6.70411
3118.5	6.97608
3119	7.25106
3119.5	7.3852
3120	7.4279
3120.5	7.21091
3121	6.78698
3121.5	6.19024
3122	5.26786
3122.5	4.32266
3123	3.37385
3123.5	2.71464
3124	2.25758
3124.5	2.47363
3125	3.00062
3125.5	3.8181
3126	4.80079
3126.5	5.67596
3127	6.2706
3127.5	6.46556
3128	6.45362
3128.5	6.09923
3129	5.8117
3129.5	5.59401
3130	5.72164
3130.5	5.97926
3131	6.4563
3131.5	6.83143
3132	7.12401
3132.5	6.95658
3133	6.5522
3133.5	5.87088
3134	5.05734
3134.5	4.29484
3135	3.75248
3135.5	3.54932
3136	3.55172
3136.5	4.00897
3137	4.54869
3137.5	5.19632
3138	5.72067
3138.5	6.13577
3139	6.25806
3139.5	6.16998
3140	5.94927
3140.5	5.57053
3141	5.22759
3141.5	4.93719
3142	4.81
3142.5	4.76511
3143	4.89221
3143.5	5.08133
3144	5.31384
3144.5	5.60066
3145	5.91393
3145.5	6.26929
3146	6.65614
3146.5	7.03239
3147	7.3087
3147.5	7.39413
3148	7.32991
3148.5	6.81341
3149	6.17983
3149.5	5.36791
3150	4.65597
3150.5	4.0589
3151	3.96358
3151.5	4.14728
3152	4.57588
3152.5	5.18394
3153	5.70028
3153.5	5.99314
3154	5.87288
3154.5	5.54932
3155	4.90868
3155.5	4.31346
3156	3.76284
3156.5	3.68022
3157	3.79876
3157.5	4.27504
3158	4.96748
3158.5	5.75325
3159	6.48596
3159.5	7.08374
3160	7.53339
3160.5	7.72863
3161	7.81746
3161.5	7.71604
3162	7.4814
3162.5	7.16831
3163	6.68476
3163.5	6.14137
3164	5.52449
3164.5	4.8951
3165	4.30366
3165.5	3.84151
3166	3.55349
3166.5	3.37638
3167	3.5499
3167.5	3.81225
3168	4.19685
3168.5	4.60681
3169	4.98473
3169.5	5.22019
3170	5.23547
3170.5	5.10642
3171	4.66511
3171.5	4.15251
3172	3.53048
3172.5	2.98934
3173	2.53587
3173.5	2.37891
3174	2.46997
3174.5	2.74351
3175	3.36714
3175.5	4.03963
3176	4.77866
3176.5	5.4306
3177	6.02098
3177.5	6.42449
3178	6.71251
3178.5	6.90533
3179	6.96471
3179.5	6.96955
3180	6.88308
3180.5	6.66337
3181	6.36783
3181.5	5.88539
3182	5.34218
3182.5	4.74293
3183	4.20651
3183.5	3.75088
3184	3.46276
3184.5	3.37808
3185	3.39299
3185.5	3.53542
3186	3.66307
3186.5	3.77549
3187	3.79547
3187.5	3.79252
3188	3.76114
3188.5	3.78375
3189	3.84009
3189.5	4.00043
3190	4.15234
3190.5	4.29454
3191	4.26824
3191.5	4.1674
3192	3.92843
3192.5	3.67525
3193	3.42341
3193.5	3.37855
3194	3.49653
3194.5	3.82483
3195	4.31723
3195.5	4.8205
3196	5.24621
3196.5	5.47436
3197	5.57666
3197.5	5.35757
3198	5.09332
3198.5	4.76368
3199	4.53284
3199.5	4.36291
3200	4.3421
3200.5	4.33403
3201	4.33476
3201.5	4.12936
3202	3.82968
3202.5	3.38123
3203	2.85775
3203.5	2.34703
3204	2.00591
3204.5	1.93564
3205	2.07496
3205.5	2.66991
3206	3.38003
3206.5	4.26513
3207	5.11205
3207.5	5.9024
3208	6.42772
3208.5	6.68825
3209	6.71938
3209.5	6.4138
3210	6.00439
3210.5	5.43149
3211	4.83668
3211.5	4.24496
3212	3.74423
3212.5	3.32035
3213	2.97096
3213.5	2.73195
3214	2.53617
3214.5	2.41452
3215	2.35119
3215.5	2.32522
3216	2.41999
3216.5	2.58078
3217	2.81314
3217.5	3.13443
3218	3.46742
3218.5	3.79748
3219	4.05262
3219.5	4.25823
3220	4.27571
3220.5	4.23751
3221	4.13178
3221.5	4.00349
3222	3.88587
3222.5	3.81485
3223	3.7858
3223.5	3.78152
3224	3.79889
3224.5	3.81227
3225	3.82023
3225.5	3.86331
3226	3.94344
3226.5	4.13177
3227	4.41924
3227.5	4.77093
3228	5.18114
3228.5	5.51753
3229	5.7414
3229.5	5.61638
3230	5.31065
3230.5	4.61585
3231	3.78391
3231.5	2.85238
3232	2.10104
3232.5	1.54327
3233	1.30937
3233.5	1.59415
3234	2.12772
3234.5	3.13012
3235	4.23112
3235.5	5.41235
3236	6.41544
3236.5	7.26728
3237	7.84559
3237.5	8.07211
3238	8.10932
3238.5	7.72647
3239	7.21134
3239.5	6.57578
3240	5.8848
3240.5	5.24386
3241	4.72403
3241.5	4.42413
3242	4.25419
3242.5	4.42822
3243	4.70515
3243.5	5.08686
3244	5.45288
3244.5	5.74112
3245	5.83847
3245.5	5.74992
3246	5.5607
3246.5	5.21081
3247	4.86969
3247.5	4.53857
3248	4.32096
3248.5	4.15084
3249	4.06578
3249.5	3.97684
3250	3.8823
3250.5	3.71321
3251	3.53577
3251.5	3.34768
3252	3.29248
3252.5	3.32834
3253	3.58248
3253.5	4.02232
3254	4.57558
3254.5	5.18465
3255	5.70919
3255.5	6.11291
3256	6.16313
3256.5	6.05995
3257	5.68414
3257.5	5.2388
3258	4.74611
3258.5	4.43565
3259	4.24763
3259.5	4.25307
3260	4.46871
3260.5	4.76224
3261	5.14187
3261.5	5.45691
3262	5.72262
3262.5	5.78206
3263	5.74488
3263.5	5.54779
3264	5.25568
3264.5	4.92888
3265	4.58412
3265.5	4.288
3266	4.03348
3266.5	3.91239
3267	3.84857
3267.5	3.88263
3268	3.98958
3268.5	4.12139
3269	4.22931
3269.5	4.26378
3270	4.22798
3270.5	3.98363
3271	3.66758
3271.5	3.23497
3272	2.8033
3272.5	2.3895
3273	2.15483
3273.5	2.07147
3274	2.14996
3274.5	2.41955
3275	2.72483
3275.5	3.05429
3276	3.24241
3276.5	3.34354
3277	3.19377
3277.5	2.96963
3278	2.6565
3278.5	2.44526
3279	2.34334
3279.5	2.52416
3280	2.99683
3280.5	3.64658
3281	4.64322
3281.5	5.64147
3282	6.64185
3282.5	7.35595
3283	7.87861
3283.5	7.93213
3284	7.55492
3284.5	6.90083
3285	5.82558
3285.5	4.69546
3286	3.48283
3286.5	2.43609
3287	1.51133
3287.5	0.92691
3288	0.60427
3288.5	0.46922
3289	0.70237
3289.5	1.01915
3290	1.46278
3290.5	1.90093
3291	2.31915
3291.5	2.64178
3292	2.87794
3292.5	3.04466
3293	3.12648
3293.5	3.20151
3294	3.27231
3294.5	3.38134
3295	3.51398
3295.5	3.71251
3296	3.93053
3296.5	4.16607
3297	4.40213
3297.5	4.63015
3298	4.84063
3298.5	5.02857
3299	5.20396
3299.5	5.35065
3300	5.46907
3300.5	5.55907
3301	5.53111
3301.5	5.43091
3302	5.1867
3302.5	4.78773
3303	4.30196
3303.5	3.63949
3304	2.94677
3304.5	2.22005
3305	1.614
3305.5	1.10257
3306	0.80743
3306.5	0.75048
3307	0.83678
3307.5	1.26186
3308	1.74363
3308.5	2.29672
3309	2.79962
3309.5	3.24548
3310	3.53454
3310.5	3.64948
3311	3.65727
3311.5	3.51444
3312	3.36263
3312.5	3.19818
3313	3.10831
3313.5	3.06681
3314	3.14571
3314.5	3.26471
3315	3.41065
3315.5	3.51959
3316	3.5788
3316.5	3.55966
3317	3.39917
3317.5	3.1804
3318	2.87384
3318.5	2.5598
3319	2.24012
3319.5	1.99299
3320	1.80303
3320.5	1.71041
3321	1.74245
3321.5	1.83858
3322	2.06898
3322.5	2.38299
3323	2.76756
3323.5	3.29626
3324	3.87295
3324.5	4.52694
3325	5.19473
3325.5	5.85577
3326	6.42888
3326.5	6.88625
3327	7.23433
3327.5	7.25444
3328	7.14909
3328.5	6.83106
3329	6.36453
3329.5	5.82632
3330	5.21605
3330.5	4.63407
3331	4.08195
3331.5	3.65586
3332	3.28675
3332.5	3.02273
3333	2.83967
3333.5	2.70261
3334	2.65412
3334.5	2.649
3335	2.69511
3335.5	2.81157
3336	2.95613
3336.5	3.14924
3337	3.35468
3337.5	3.56517
3338	3.7267
3338.5	3.83296
3339	3.8661
3339.5	3.79093
3340	3.67299
3340.5	3.48468
3341	3.28718
3341.5	3.0844
3342	2.94446
3342.5	2.84562
3343	2.80777
3343.5	2.82191
3344	2.85079
3344.5	2.88603
3345	2.89782
3345.5	2.89305
3346	2.84295
3346.5	2.79662
3347	2.75808
3347.5	2.79341
3348	2.87648
3348.5	3.09043
3349	3.39678
3349.5	3.77636
3350	4.26389
3350.5	4.75626
3351	5.24756
3351.5	5.65087
3352	5.99735
3352.5	6.17737
3353	6.24181
3353.5	6.20372
3354	5.98214
3354.5	5.69424
3355	5.29668
3355.5	4.8435
3356	4.36579
3356.5	3.87005
3357	3.39083
3357.5	2.92802
3358	2.54208
3358.5	2.20811
3359	1.97923
3359.5	1.88259
3360	1.86159
3360.5	2.0127
3361	2.23615
3361.5	2.53986
3362	2.91659
3362.5	3.30463
3363	3.69335
3363.5	4.0301
3364	4.33472
3364.5	4.5474
3365	4.73137
3365.5	4.87969
3366	5.02221
3366.5	5.17391
3367	5.35913
3367.5	5.57939
3368	5.8204
3368.5	6.06593
3369	6.2724
3369.5	6.42449
3370	6.43117
3370.5	6.35912
3371	6.11393
3371.5	5.75605
3372	5.32347
3372.5	4.8019
3373	4.30546
3373.5	3.84888
3374	3.54302
3374.5	3.32319
3375	3.30817
3375.5	3.42829
3376	3.64895
3376.5	4.02474
3377	4.42379
3377.5	4.8547
3378	5.22913
3378.5	5.55992
3379	5.74754
3379.5	5.8261
3380	5.81378
3380.5	5.62579
3381	5.38342
3381.5	5.05514
3382	4.69992
3382.5	4.34333
3383	4.04847
3383.5	3.8522
3384	3.74784
3384.5	3.84184
3385	4.01308
3385.5	4.3158
3386	4.68984
3386.5	5.09269
3387	5.47985
3387.5	5.80557
3388	6.06722
3388.5	6.16437
3389	6.18872
3389.5	6.08035
3390	5.91
3390.5	5.70866
3391	5.49541
3391.5	5.29861
3392	5.12096
3392.5	4.97493
3393	4.8352
3393.5	4.69842
3394	4.542
3394.5	4.37347
3395	4.17335
3395.5	3.98115
3396	3.79928
3396.5	3.68319
3397	3.60538
3397.5	3.61359
3398	3.67179
3398.5	3.76091
3399	3.84094
3399.5	3.87104
3400	3.82802
3400.5	3.62019
3401	3.33301
3401.5	2.88767
3402	2.41398
3402.5	1.92052
3403	1.55996
3403.5	1.31399
3404	1.25306
3404.5	1.47841
3405	1.84213
3405.5	2.47554
3406	3.20715
3406.5	4.01558
3407	4.80899
3407.5	5.53471
3408	6.13599
3408.5	6.56672
3409	6.9143
3409.5	7.10942
3410	7.26494
3410.5	7.38579
3411	7.52411
3411.5	7.68105
3412	7.87436
3412.5	8.07783
3413	8.27663
3413.5	8.40581
3414	8.44108
3414.5	8.38437
3415	8.10746
3415.5	7.747
3416	7.24492
3416.5	6.67336
3417	6.07287
3417.5	5.50022
3418	4.99858
3418.5	4.57475
3419	4.34015
3419.5	4.19112
3420	4.20131
3420.5	4.31306
3421	4.47994
3421.5	4.69686
3422	4.88693
3422.5	5.04411
3423	5.09802
3423.5	5.1027
3424	5.01099
3424.5	4.8694
3425	4.6988
3425.5	4.52679
3426	4.38558
3426.5	4.28667
3427	4.28014
3427.5	4.31555
3428	4.43021
3428.5	4.56704
3429	4.71838
3429.5	4.81549
3430	4.85464
3430.5	4.80449
3431	4.61725
3431.5	4.36837
3432	4.00855
3432.5	3.61994
3433	3.2102
3433.5	2.85167
3434	2.54326
3434.5	2.31926
3435	2.21771
3435.5	2.17476
3436	2.24086
3436.5	2.33551
3437	2.45366
3437.5	2.5365
3438	2.58177
3438.5	2.55749
3439	2.4374
3439.5	2.26963
3440	2.01475
3440.5	1.74313
3441	1.4561
3441.5	1.20142
3442	0.97712
3442.5	0.81392
3443	0.73432
3443.5	0.70249
3444	0.78619
3444.5	0.93073
3445	1.13788
3445.5	1.44231
3446	1.78334
3446.5	2.18617
3447	2.62121
3447.5	3.07101
3448	3.51206
3448.5	3.91511
3449	4.27441
3449.5	4.49298
3450	4.63299
3450.5	4.60972
3451	4.44164
3451.5	4.18711
3452	3.75642
3452.5	3.28004
3453	2.74479
3453.5	2.20387
3454	1.68049
3454.5	1.22116
3455	0.85018
3455.5	0.53572
3456	0.3825
3456.5	0.29131
3457	0.28976
3457.5	0.38593
3458	0.52374
3458.5	0.73339
3459	0.98104
3459.5	1.25486
3460	1.57164
3460.5	1.89583
3461	2.23111
3461.5	2.5477
3462	2.84438
3462.5	3.07012
3463	3.21576
3463.5	3.29954
3464	3.21535
3464.5	3.06679
3465	2.81357
3465.5	2.49112
3466	2.14818
3466.5	1.82269
3467	1.57485
3467.5	1.39414
3468	1.43524
3468.5	1.57881
3469	1.90078
3469.5	2.372
3470	2.91065
3470.5	3.52121
3471	4.09378
3471.5	4.62961
3472	4.97752
3472.5	5.22379
3473	5.27758
3473.5	5.15816
3474	4.94877
3474.5	4.60398
3475	4.25685
3475.5	3.90719
3476	3.67008
3476.5	3.50514
3477	3.49235
3477.5	3.62394
3478	3.83669
3478.5	4.17905
3479	4.53611
3479.5	4.91095
3480	5.22865
3480.5	5.50424
3481	5.67994
3481.5	5.76156
3482	5.78555
3482.5	5.68967
3483	5.56067
3483.5	5.38678
3484	5.18641
3484.5	4.98015
3485	4.77381
3485.5	4.57749
3486	4.3877
3486.5	4.22195
3487	4.06856
3487.5	3.93398
3488	3.83237
3488.5	3.74908
3489	3.70801
3489.5	3.69736
3490	3.70875
3490.5	3.75442
3491	3.8005
3491.5	3.84577
3492	3.85452
3492.5	3.8382
3493	3.74838
3493.5	3.60267
3494	3.41156
3494.5	3.14523
3495	2.86601
3495.5	2.57015
3496	2.30647
3496.5	2.0676
3497	1.91751
3497.5	1.83345
3498	1.80938
3498.5	1.88187
3499	1.97759
3499.5	2.10547
3500	2.21534
