#Imported=	06.04.2022 14:40:32
#Correction:Shift=	06.04.2022 14:44:50
141.948	0
142.43	1.00732
142.912	0.380127
143.394	1.75586
143.876	0.064209
144.359	3.85645
144.841	0.536133
145.323	12.2051
145.805	31.7556
146.287	60.2837
146.769	106.044
147.251	148.508
147.733	182.892
148.215	208.04
148.698	232.287
149.18	257.096
149.662	280.32
150.144	299.015
150.626	313.484
151.108	322.59
151.59	324.172
152.072	311.902
152.555	306.191
153.037	306.013
153.519	313.454
154.001	333.348
154.483	377.94
154.965	427.503
155.447	473.049
155.929	508.634
156.411	545.581
156.894	583.661
157.376	624.324
157.858	672.998
158.34	735.312
158.822	803.797
159.304	874.198
159.786	945.883
160.268	1018.96
160.751	1090.43
161.233	1162.01
161.715	1241.75
162.197	1337.51
162.679	1441.92
163.161	1546.59
163.643	1652.25
164.125	1755.81
164.607	1852.92
165.09	1943.35
165.572	2050.57
166.054	2179.02
166.536	2318.73
167.018	2457.06
167.5	2573.09
167.982	2667.71
168.464	2751.58
168.947	2828.8
169.429	2863.29
169.911	2834.54
170.393	2756.1
170.875	2648.08
171.357	2492.32
171.839	2323.57
172.321	2175.09
172.803	2051.87
173.286	1951.07
173.768	1867.6
174.25	1803.72
174.732	1768.22
175.214	1785.39
175.696	1829.65
176.178	1864.89
176.66	1888.72
177.143	1893.38
177.625	1865.56
178.107	1807.58
178.589	1732.57
179.071	1653.17
179.553	1564.72
180.035	1455.01
180.517	1312.95
180.999	1157.73
181.482	1020.77
181.964	900.809
182.446	794.186
182.928	698.27
183.41	612.554
183.892	533.462
184.374	459.937
184.856	392.212
185.339	333.698
185.821	284.238
186.303	240.306
186.785	200.667
187.267	164.493
187.749	123.875
188.231	67.5862
188.713	4.4939
189.195	28.9165
189.678	28.2417
190.16	16.6807
190.642	25.5811
191.124	54.2375
191.606	74.9417
192.088	72.043
192.57	48.6387
193.052	31.48
193.535	20.9788
194.017	15.7449
194.499	16.9446
194.981	25.3162
195.463	29.4277
195.945	21.5713
196.427	1.87085
196.909	13.938
197.391	25.7217
197.874	33.0642
198.356	32.0886
198.838	20.7559
199.32	14.0288
199.802	23.1655
200.284	48.8264
200.766	69.8044
201.248	82.6768
201.73	92.1633
202.213	110.25
202.695	138.358
203.177	170.167
203.659	202.477
204.141	234.929
204.623	268.395
205.105	303.972
205.587	340.15
206.07	371.645
206.552	397.616
207.034	421.107
207.516	445.31
207.998	471.129
208.48	490.964
208.962	503.805
209.444	509.93
209.926	510.874
210.409	507.081
210.891	497.161
211.373	478.039
211.855	445.448
212.337	418.076
212.819	400.122
213.301	390.286
213.783	376.352
214.266	356.979
214.748	335.59
215.23	313.482
215.712	286.503
216.194	270.764
216.676	273.933
217.158	294.639
217.64	300.139
218.122	284.535
218.605	261.51
219.087	243.995
219.569	234.263
220.051	224.766
220.533	212.985
221.015	198.637
221.497	191.982
221.979	199.488
222.462	207.454
222.944	199.053
223.426	162.497
223.908	133.786
224.39	123.675
224.872	133.93
225.354	137.975
225.836	134.262
226.318	125.947
226.801	116.253
227.283	103.866
227.765	92.8633
228.247	84.9534
228.729	80.887
229.211	73.4751
229.693	58.7114
230.175	43.876
230.658	39.7165
231.14	54.3447
231.622	65.5794
232.104	65.332
232.586	50.0059
233.068	42.9712
233.55	49.1782
234.032	60.0986
234.514	61.938
234.997	44.4646
235.479	35.7288
235.961	46.2373
236.443	80.5425
236.925	109.951
237.407	136.693
237.889	157.257
238.371	164.237
238.854	147.984
239.336	134.369
239.818	132.66
240.3	146.981
240.782	157.648
241.264	163.983
241.746	168.134
242.228	173.663
242.71	179.468
243.193	185.861
243.675	192.892
244.157	199.875
244.639	212.592
245.121	233.826
245.603	259.138
246.085	281.329
246.567	301.872
247.049	312.298
247.532	308.384
248.014	281.622
248.496	271.578
248.978	281.752
249.46	305.31
249.942	330.173
250.424	358.025
250.906	387.641
251.389	415.735
251.871	435.862
252.353	476.305
252.835	543.18
253.317	625.889
253.799	703.305
254.281	768.248
254.763	841.617
255.245	933.144
255.727	1047.48
256.21	1158.78
256.692	1266.35
257.174	1369.72
257.656	1471.5
258.138	1577.64
258.62	1670.37
259.102	1751.66
259.585	1833.14
260.067	1848.72
260.549	1781.89
261.031	1661.47
261.513	1534.18
261.995	1400.1
262.477	1261.29
262.959	1117.56
263.441	964.269
263.923	822.059
264.406	683.823
264.888	560.202
265.37	471.04
265.852	424.879
266.334	387.318
266.816	345.979
267.298	300.994
267.78	252.007
268.263	195.41
268.745	139.276
269.227	98.5044
269.709	75.9392
270.191	58.5437
270.673	39.3574
271.155	16.9529
271.637	10.541
272.12	25.959
272.602	48.8225
273.084	53.2666
273.566	35.4719
274.048	19.1245
274.53	14.967
275.012	23.6162
275.494	26.0002
275.976	19.9897
276.459	11.7183
276.941	11.2139
277.423	19.3542
277.905	27.2351
278.387	30.4299
278.869	29.2769
279.351	31.7473
279.833	38.2908
280.315	47.2979
280.798	57.5322
281.28	68.9929
281.762	79.2688
282.244	89.6433
282.726	98.9524
283.208	96.4009
283.69	79.9946
284.172	59.063
284.655	42.7908
285.137	31.3635
285.619	27.22
286.101	37.3608
286.583	56.0967
287.065	55.8867
287.547	34.3364
288.029	8.01709
288.512	6.94995
288.994	11.0024
289.476	7.08716
289.958	9.91699
290.44	32.6841
290.922	40.3091
291.404	32.105
291.886	17.3547
292.368	0.882568
292.851	15.5762
293.333	24.5295
293.815	20.7668
294.297	9.75879
294.779	2.56226
295.261	0.866943
295.743	5.54956
296.225	23.9697
296.707	48.2061
297.19	54.4858
297.672	27.6089
298.154	13.148
298.636	42.4595
299.118	60.5552
299.6	67.1973
300.082	54.7783
300.564	31.6858
301.047	13.8897
301.529	7.4126
302.011	5.60474
302.493	5.57251
302.975	5.80005
303.457	2.30957
303.939	36.2429
304.421	78.5386
304.904	105.293
305.386	104.66
305.868	95.9497
306.35	89.427
306.832	86.9819
307.314	95.426
307.796	125.812
308.278	165.643
308.76	204.027
309.242	239.258
309.725	269.902
310.207	290.518
310.689	305.346
311.171	325.606
311.653	357.331
312.135	396.204
312.617	442.264
313.099	501.208
313.582	548.997
314.064	572.315
314.546	576.921
315.028	574.03
315.51	580.78
315.992	571.476
316.474	527.456
316.956	438.527
317.439	348.336
317.921	263.009
318.403	186.895
318.885	126.069
319.367	92.4783
319.849	65.3845
320.331	35.1455
320.813	1.5249
321.295	25.9131
321.778	29.8872
322.26	21.8149
322.742	10.615
323.224	2.73608
323.706	18.8096
324.188	38.5198
324.67	62.1814
325.152	85.7092
325.634	109.383
326.117	132.254
326.599	153.864
327.081	180.703
327.563	198.479
328.045	199.603
328.527	185.36
329.009	184.223
329.491	204.606
329.974	230.4
330.456	250.742
330.938	258.98
331.42	273.831
331.902	300.625
332.384	335.858
332.866	361.043
333.348	367.701
333.831	376.796
334.313	401.525
334.795	448.042
335.277	490.631
335.759	528.294
336.241	561.097
336.723	590.581
337.205	617.25
337.687	638.454
338.169	649.75
338.652	648.691
339.134	660.181
339.616	688.685
340.098	723.252
340.58	742.703
341.062	745.368
341.544	750.529
342.026	768.773
342.509	798.08
342.991	819.16
343.473	829.787
343.955	840.241
344.437	869.744
344.919	915.053
345.401	945.581
345.883	943.117
346.366	919.682
346.848	902.889
347.33	892.714
347.812	896.144
348.294	927.571
348.776	978.979
349.258	1024.6
349.74	1051.97
350.223	1076.64
350.705	1128.27
351.187	1203.39
351.669	1269.85
352.151	1298.09
352.633	1305.54
353.115	1319.75
353.597	1353.27
354.079	1383.52
354.561	1394.16
355.044	1383.54
355.526	1350.79
356.008	1281.22
356.49	1199.17
356.972	1123.14
357.454	1053.31
357.936	996.186
358.418	956.127
358.901	931.414
359.383	918.799
359.865	920.84
360.347	931.222
360.829	945.038
361.311	960.076
361.793	985.081
362.275	1035.27
362.758	1095.97
363.24	1148.85
363.722	1166.33
364.204	1193.81
364.686	1252.67
365.168	1344.23
365.65	1424.56
366.132	1479.71
366.614	1528.12
367.097	1582.74
367.579	1654.37
368.061	1718.9
368.543	1777.84
369.025	1829.62
369.507	1864.81
369.989	1879.26
370.471	1882.02
370.953	1878.4
371.436	1875.05
371.918	1849.86
372.4	1798.82
372.882	1727.4
373.364	1647.28
373.846	1557.15
374.328	1462.14
374.81	1361.24
375.293	1251.58
375.775	1160.3
376.257	1087.9
376.739	1031.31
377.221	990.56
377.703	966.664
378.185	944.281
378.667	917.425
379.15	887.575
379.632	860.88
380.114	837.188
380.596	824.641
381.078	837.391
381.56	870.177
382.042	896.977
382.524	910.48
383.006	917.866
383.488	927.036
383.971	939.018
384.453	960.653
384.935	1004.23
385.417	1058.75
385.899	1107.61
386.381	1149.09
386.863	1183.8
387.345	1208.71
387.828	1227.14
388.31	1247.16
388.792	1280.45
389.274	1311.81
389.756	1330.28
390.238	1335.01
390.72	1326.69
391.202	1305.26
391.685	1271.27
392.167	1224.94
392.649	1141.93
393.131	1069.61
393.613	1031.92
394.095	1026.24
394.577	1021.71
395.059	1008.92
395.541	995.758
396.024	987.282
396.506	994.229
396.988	993.93
397.47	975.119
397.952	946.333
398.434	934.775
398.916	957.452
399.398	979.859
399.88	991.498
400.363	994.724
400.845	979.749
401.327	943.18
401.809	890.898
402.291	828.591
402.773	753.271
403.255	677.289
403.737	603.671
404.22	532.336
404.702	461.264
405.184	389.395
405.666	319.917
406.148	253.07
406.63	188.368
407.112	133.702
407.594	123.779
408.077	112.409
408.559	99.7208
409.041	78.939
409.523	70.7655
410.005	58.8577
410.487	47.6987
410.969	43.9916
411.451	29.2327
411.933	27.3056
412.415	21.574
412.898	18.956
413.38	12.5752
413.862	8.58962
414.344	10.2514
414.826	10.2491
415.308	7.09403
415.79	10.2642
416.272	4.7575
416.755	8.63299
417.237	17.0917
417.719	18.8815
418.201	26.8458
418.683	33.759
419.165	32.5573
419.647	48.0485
420.129	57.6685
420.612	61.2359
421.094	79.0138
421.576	85.4291
422.058	97.1766
422.54	113.171
423.022	126.662
423.504	146.526
423.986	162.102
424.469	206.079
424.951	240.709
425.433	261.765
425.915	295.065
426.397	347.491
426.879	404.283
427.361	450.629
427.843	480.585
428.325	518.632
428.807	569.486
429.29	630.144
429.772	689.894
430.254	748.868
430.736	806.811
431.218	862.39
431.7	915.816
432.182	971.31
432.664	1030.31
433.147	1087.49
433.629	1132.09
434.111	1166.55
434.593	1203.63
435.075	1256.04
435.557	1310.71
436.039	1342.03
436.521	1350.79
437.004	1354.23
437.486	1372.5
437.968	1391.79
438.45	1392.25
438.932	1365.21
439.414	1324.38
439.896	1272.15
440.378	1213.21
440.86	1158.13
441.343	1119.56
441.825	1080.89
442.307	1032.06
442.789	970.095
443.271	907.035
443.753	844.306
444.235	782.955
444.717	723.096
445.199	660.247
445.682	604.715
446.164	559.44
446.646	524.059
447.128	491.099
447.61	458.194
448.092	430.236
448.574	410.101
449.056	398.231
449.539	393.047
450.021	395.885
450.503	404.079
450.985	412.804
451.467	421.754
451.949	432.106
452.431	442.818
452.913	454.772
453.396	475.909
453.878	506.689
454.36	542.597
454.842	576.92
455.324	611.92
455.806	656.51
456.288	716.724
456.77	782.092
457.252	834.638
457.734	878.041
458.217	928.849
458.699	1007.01
459.181	1092.18
459.663	1160.34
460.145	1208.33
460.627	1250
461.109	1293.24
461.591	1335.42
462.074	1372.35
462.556	1408.44
463.038	1433.47
463.52	1442.69
464.002	1436.75
464.484	1420.95
464.966	1389.92
465.448	1354.06
465.931	1318.27
466.413	1278.84
466.895	1244.52
467.377	1214.8
467.859	1188.99
468.341	1165.82
468.823	1143.84
469.305	1126.55
469.787	1112.1
470.27	1103.21
470.752	1122.01
471.234	1172.33
471.716	1234.33
472.198	1294.34
472.68	1353.48
473.162	1408.59
473.644	1458.22
474.126	1506.53
474.609	1565.03
475.091	1631.4
475.573	1689.8
476.055	1716.54
476.537	1736.92
477.019	1800.11
477.501	1907.85
477.983	2006.2
478.466	2047.15
478.948	2058.95
479.43	2077.75
479.912	2114.43
480.394	2155.56
480.876	2199.83
481.358	2243.85
481.84	2277.15
482.323	2288.04
482.805	2294.21
483.287	2307.15
483.769	2335.75
484.251	2343.5
484.733	2315.16
485.215	2270.76
485.697	2228.24
486.179	2193.33
486.661	2150.55
487.144	2098.6
487.626	2037.02
488.108	1959.82
488.59	1860.47
489.072	1764.78
489.554	1688.49
490.036	1631.4
490.518	1575.9
491.001	1522.31
491.483	1469.28
491.965	1409.61
492.447	1346.85
492.929	1303.66
493.411	1301.48
493.893	1312.09
494.375	1284.3
494.858	1224.67
495.34	1176.03
495.822	1182.39
496.304	1206.3
496.786	1203.84
497.268	1161.48
497.75	1120.68
498.232	1102.31
498.715	1098.93
499.197	1100.1
499.679	1106.47
500.161	1113.34
500.643	1116.22
501.125	1115.94
501.607	1126.14
502.089	1155.12
502.571	1188.35
503.053	1219.8
503.536	1250.92
504.018	1278.67
504.5	1302.54
504.982	1320.29
505.464	1327.67
505.946	1320.79
506.428	1327.98
506.91	1361.43
507.393	1414.9
507.875	1460.83
508.357	1498.36
508.839	1537.19
509.321	1591.22
509.803	1652.68
510.285	1698.95
510.767	1724.87
511.25	1747.07
511.732	1778.89
512.214	1818.92
512.696	1864.87
513.178	1915.29
513.66	1973.89
514.142	2051.44
514.624	2142.86
515.106	2218.31
515.589	2253.94
516.071	2279.42
516.553	2310.42
517.035	2345.28
517.517	2388.79
517.999	2459.41
518.481	2534.64
518.963	2584.28
519.445	2591.49
519.928	2602.61
520.41	2631.79
520.892	2673.55
521.374	2695.51
521.856	2696.93
522.338	2680.96
522.82	2651.23
523.302	2607.44
523.784	2537.67
524.267	2438.06
524.749	2322.29
525.231	2196.34
525.713	2063.8
526.195	1940.11
526.677	1833.18
527.159	1733.27
527.641	1629.75
528.124	1524.41
528.606	1422.4
529.088	1325.89
529.57	1235.47
530.052	1151.91
530.534	1073.25
531.016	1007.01
531.498	956.312
531.981	918.24
532.463	889.404
532.945	884.052
533.427	870.091
533.909	837.32
534.391	792.612
534.873	764.38
535.355	757.161
535.838	757.542
536.32	761.509
536.802	769.403
537.284	773.297
537.766	772.039
538.248	770.635
538.73	775.753
539.212	786.284
539.694	793.937
540.177	795.729
540.659	796.054
541.141	802.367
541.623	812.887
542.105	821.274
542.587	821.685
543.069	820.046
543.551	823.565
544.033	832.493
544.516	836.257
544.998	826.598
545.48	811.628
545.962	798.096
546.444	792.893
546.926	780.787
547.408	754.471
547.89	720.828
548.372	693.228
548.855	678.028
549.337	657.893
549.819	626.693
550.301	585.724
550.783	551.49
551.265	526.492
551.747	499.728
552.229	460.828
552.711	411.379
553.194	369.326
553.676	336.675
554.158	308.992
554.64	282.005
555.122	255.541
555.604	229.788
556.086	205.711
556.568	180.98
557.051	144.614
557.533	139.793
558.015	133.031
558.497	124.453
558.979	107.287
559.461	102.238
559.943	92.9602
560.425	83.9383
560.907	81.8737
561.39	68.2619
561.872	66.9869
562.354	61.4153
562.836	58.463
563.318	51.2543
563.8	45.9467
564.282	45.7916
564.765	43.4779
565.247	37.5186
565.729	37.3901
566.211	28.0905
566.693	27.6793
567.175	31.3574
567.657	27.8721
568.139	30.0679
568.621	30.7183
569.104	22.7586
569.586	30.9985
570.068	32.8739
570.55	28.2027
571.032	37.2457
571.514	34.4336
571.996	36.4606
572.478	42.2395
572.96	45.0214
573.443	53.6837
573.925	57.5592
574.407	61.4155
574.889	67.7596
575.371	68.769
575.853	80.9528
576.335	86.2593
576.817	95.6527
577.299	106.32
577.782	111.114
578.264	135.28
578.746	157.893
579.228	177.34
579.71	195.875
580.192	215.956
580.674	238.089
581.156	265.153
581.638	300.774
582.121	340.897
582.603	377.624
583.085	411.916
583.567	453.576
584.049	520.568
584.531	589.374
585.013	639.948
585.495	663.225
585.978	687.805
586.46	728.504
586.942	770.804
587.424	797.033
587.906	788.965
588.388	793.854
588.87	824.926
589.352	869.959
589.834	891.935
590.317	886.834
590.799	873.369
591.281	852.198
591.763	828.377
592.245	831.405
592.727	861.825
593.209	905.952
593.692	953.315
594.174	1006.1
594.656	1072.26
595.138	1155.64
595.62	1235.85
596.102	1286.35
596.584	1326.65
597.066	1384.81
597.549	1480.94
598.031	1584.26
598.513	1690.91
598.995	1798.14
599.477	1896.14
599.959	1984.52
600.441	2065.19
600.923	2137.15
601.405	2200.38
601.888	2260.42
602.37	2315.84
602.852	2370.61
603.334	2431.46
603.816	2497.23
604.298	2544.04
604.78	2567.6
605.262	2576.19
605.744	2586.1
606.227	2589.7
606.709	2566.55
607.191	2502.97
607.673	2416.11
608.155	2305.96
608.637	2181.36
609.119	2067.16
609.601	1986.87
610.083	1908.49
610.566	1814.33
611.048	1699.01
611.53	1601.29
612.012	1520.39
612.494	1459.88
612.976	1427.64
613.458	1435.47
613.94	1427.02
614.422	1394.13
614.905	1355.1
615.387	1339.37
615.869	1344.7
616.351	1343.3
616.833	1325.89
617.315	1299.16
617.797	1268.96
618.279	1237.24
618.762	1209.59
619.244	1201.66
619.726	1188.35
620.208	1147.69
620.69	1078.49
621.172	1009.33
621.654	945.088
622.136	886.571
622.619	836.24
623.101	802.358
623.583	757.348
624.065	690.916
624.547	623.706
625.029	583.005
625.511	574.04
625.993	562.559
626.476	540.749
626.958	515.789
627.44	504.653
627.922	505.49
628.404	504.007
628.886	483.108
629.368	461.212
629.85	470.235
630.332	506.133
630.815	536.663
631.297	539.402
631.779	532.937
632.261	529.9
632.743	530.151
633.225	536.513
633.707	555.728
634.189	577.839
634.671	594.601
635.154	603.311
635.636	612.867
636.118	624.769
636.6	636.795
637.082	645.274
637.564	650.174
638.046	650.66
638.528	643.688
639.01	634.56
639.493	636.651
639.975	647.677
640.457	654.45
640.939	652.256
641.421	639.997
641.903	611.658
642.385	567.032
642.867	528.588
643.349	515.403
643.832	504.866
644.314	479.901
644.796	424.444
645.278	382.83
645.76	363.044
646.242	350.217
646.724	325.658
647.206	286.862
647.689	249.823
648.171	216.311
648.653	187.946
649.135	170.64
649.617	162.895
650.099	153.194
650.581	133.406
651.063	110.458
651.545	95.1865
652.028	85.6897
652.51	72.7207
652.992	36.4761
653.474	7.51538
653.956	11.6899
654.438	59.7251
654.92	86.0291
655.403	65.3379
655.885	34.2854
656.367	16.4731
656.849	14.8345
657.331	20.9104
657.813	37.853
658.295	56.8018
658.777	61.5574
659.259	53.3235
659.742	51.7915
660.224	65.6643
660.706	83.7498
661.188	85.1853
661.67	76.2312
662.152	73.9924
662.634	94.8091
663.116	118.101
663.598	131.699
664.081	135.995
664.563	139.598
665.045	140.723
665.527	145.067
666.009	155.016
666.491	171.402
666.973	184.156
667.455	191.184
667.938	199.854
668.42	217.206
668.902	242.672
669.384	266.396
669.866	287.853
670.348	302.975
670.83	307.488
671.312	302.838
671.794	290.896
672.277	269.564
672.759	245.102
673.241	217.654
673.723	190.774
674.205	170.56
674.687	164.31
675.169	158.276
675.651	145.787
676.133	129.605
676.616	127.075
677.098	147.649
677.58	160.217
678.062	147.219
678.544	111.997
679.026	89.5881
679.508	81.0586
679.99	74.0193
680.472	50.9673
680.955	24.0867
681.437	16.863
681.919	34.4561
682.401	56.9775
682.883	78.7351
683.365	94.6733
683.847	98.6162
684.33	76.8613
684.812	62.9126
685.294	69.7288
685.776	82.833
686.258	81.5188
686.74	56.4748
687.222	43.6128
687.704	53.0942
688.186	74.9949
688.669	85.7634
689.151	85.9448
689.633	83.8616
690.115	79.8271
690.597	77.9477
691.079	87.7673
691.561	106.688
692.043	121.01
692.526	119.414
693.008	114.296
693.49	113.153
693.972	116.926
694.454	121.463
694.936	131.93
695.418	137.756
695.9	130.419
696.382	103.313
696.865	93.407
697.347	105.46
697.829	122.693
698.311	127.032
698.793	120.57
699.275	113.548
699.757	107.67
700.239	102.081
700.721	97.0525
701.204	91.481
701.686	83.4844
702.168	69.8396
702.65	56.761
703.132	44.7969
703.614	35.1497
704.096	31.021
704.578	36.2544
705.06	41.2832
705.543	45.9582
706.025	48.7188
706.507	40.3435
706.989	19.1995
707.471	0.14209
707.953	7.90039
708.435	8.42627
708.917	8.71143
709.399	8.97974
709.882	11.4199
710.364	21.6677
710.846	32.1943
711.328	35.8665
711.81	31.4497
712.292	24.8298
712.774	15.2678
713.256	5.78345
713.739	2.12549
714.221	9.96802
714.703	11.5352
715.185	4.3811
715.667	4.78198
716.149	7.56519
716.631	4.64404
717.113	6.24683
717.596	16.4878
718.078	23.9143
718.56	6.05225
719.042	23.8264
719.524	39.6985
720.006	22.8914
720.488	1.68604
720.97	13.3569
721.453	23.2839
721.935	30.6807
722.417	41.8306
722.899	42.0432
723.381	22.0859
723.863	10.2393
724.345	21.6189
724.827	9.52905
725.309	5.60156
725.792	16.7544
726.274	23.1494
726.756	19.6775
727.238	7.7124
727.72	1.93921
728.202	0.409424
728.684	6.12085
729.166	7.68628
729.648	4.31958
730.131	2.5144
730.613	7.52685
731.095	11.7217
731.577	10.6428
732.059	2.70703
732.541	3.93457
733.023	9.01953
733.505	13.4141
733.987	18.8455
734.47	24.7539
734.952	26.9265
735.434	24.8962
735.916	19.2654
736.398	7.02417
736.88	7.29273
737.362	17.437
737.844	23.4333
738.327	21.7439
738.809	3.4331
739.291	20.864
739.773	35.4673
740.255	37.7493
740.737	33.8332
741.219	21.0256
741.701	5.21387
742.183	0.749756
742.666	3.25708
743.148	9.8833
743.63	17.6218
744.112	25.6565
744.594	33.0618
745.076	39.6929
745.558	45.3377
746.041	54.396
746.523	58.1497
747.005	45.7498
747.487	21.3176
747.969	9.34814
748.451	24.8001
748.933	37.2104
749.415	33.6904
749.897	16.7542
750.38	19.2981
750.862	44.0693
751.344	66.8103
751.826	70.6946
752.308	61.5532
752.79	48.0049
753.272	31.2366
753.754	26.4287
754.237	64.0586
754.719	103.796
755.201	107.545
755.683	62.9158
756.165	32.188
756.647	34.6038
757.129	45.6912
757.611	50.7488
758.093	46.938
758.576	51.4751
759.058	66.9587
759.54	82.2703
760.022	83.0527
760.504	74.0618
760.986	71.1065
761.468	77.6841
761.95	84.7253
762.432	84.824
762.915	81.4492
763.397	78.4602
763.879	74.3176
764.361	74.7036
764.843	87.0618
765.325	100.492
765.807	101.492
766.289	86.9961
766.771	73.4348
767.254	61.2788
767.736	54.3298
768.218	64.1375
768.7	85.8621
769.182	98.8691
769.664	92.3499
770.146	82.9238
770.628	88.9878
771.11	102.04
771.593	105.554
772.075	74.5706
772.557	55.9321
773.039	67.2607
773.521	96.5498
774.003	115.348
774.485	121.829
774.968	125.915
775.45	129.584
775.932	132.909
776.414	138.857
776.896	146.074
777.378	148.968
777.86	140.396
778.342	129.617
778.824	123.524
779.307	121.683
779.789	120.595
780.271	119.134
780.753	118.548
781.235	120.219
781.717	124.567
782.199	130.748
782.681	139.52
783.164	145.327
783.646	144.529
784.128	139.146
784.61	132.684
785.092	126.523
785.574	128.383
786.056	151.672
786.538	177.638
787.02	189.816
787.503	187.67
787.985	185.62
788.467	183.102
788.949	184.766
789.431	195.193
789.913	215.654
790.395	227.021
790.877	227.984
791.359	223.932
791.842	212.723
792.324	200.368
792.806	207.427
793.288	234.523
793.77	257.73
794.252	253.646
794.734	242.628
795.216	242.214
795.698	257.34
796.181	272.592
796.663	288.064
797.145	302.806
797.627	316.004
798.109	327.568
798.591	337.603
799.073	346.179
799.555	352.892
800.037	357.915
800.52	361.003
801.002	358.826
801.484	349.74
801.966	345.782
802.448	361.355
802.93	380.795
803.412	391.737
803.894	394.435
804.377	380.906
804.859	338.478
805.341	296.337
805.823	284.201
806.305	302.102
806.787	319.328
807.269	334.642
807.751	340.303
808.234	317.205
808.716	283.665
809.198	270.05
809.68	289.991
810.162	304.836
810.644	294.097
811.126	273.045
811.608	257.01
812.091	250.454
812.573	238.232
813.055	215.066
813.537	195.864
814.019	203.967
814.501	234.087
814.983	255.388
815.465	263.17
815.947	259.652
816.43	241.367
816.912	215.492
817.394	190.374
817.876	166.821
818.358	146.823
818.84	126.731
819.322	113.435
819.804	115.898
820.286	138.776
820.769	157.013
821.251	169.26
821.733	173.445
822.215	163.454
822.697	143.399
823.179	121.828
823.661	98.419
824.143	82.0173
824.625	83.3909
825.108	92.9211
825.59	99.9585
826.072	96.8862
826.554	100.778
827.036	117.673
827.518	134.654
828	132.547
828.482	111.697
828.964	102.612
829.447	111.885
829.929	125.031
830.411	125.921
830.893	119.655
831.375	113.458
831.857	107.718
832.339	105.715
832.821	113.118
833.304	122.377
833.786	124.315
834.268	113.746
834.75	112.158
835.232	123.828
835.714	137.748
836.196	137
836.678	126.393
837.161	125.334
837.643	139.897
838.125	153.365
838.607	149.442
839.089	138.885
839.571	133.942
840.053	143.258
840.535	146.497
841.018	137.824
841.5	127.549
841.982	126.717
842.464	135.68
842.946	145.897
843.428	157.463
843.91	165.541
844.392	160.97
844.874	150.594
845.357	145.417
845.839	148.159
846.321	154.023
846.803	170.266
847.285	182.641
847.767	177.438
848.249	143.721
848.731	122.834
849.213	117.896
849.696	118.533
850.178	112.784
850.66	103.553
851.142	104.424
851.624	118.547
852.106	127.57
852.588	107.219
853.07	81.4668
853.552	74.3677
854.035	99.169
854.517	112.959
854.999	107.033
855.481	97.5869
855.963	97.3325
856.445	106.683
856.927	110.287
857.409	107.273
857.891	102.583
858.374	98.6299
858.856	97.8794
859.338	104.092
859.82	116.866
860.302	127.959
860.784	134.133
861.266	139.536
861.748	146.539
862.231	155.266
862.713	160.167
863.195	161.192
863.677	160.615
864.159	155.95
864.641	151.956
865.123	159.703
865.605	178.126
866.088	200.338
866.57	228.97
867.052	256.54
867.534	276.626
868.016	288.91
868.498	305.64
868.98	328.59
869.462	348.827
869.945	361.877
870.427	370.035
870.909	380.374
871.391	392.943
871.873	409.164
872.355	433.047
872.837	459.203
873.319	482.813
873.801	504.214
874.284	526.109
874.766	551.671
875.248	574.364
875.73	593.041
876.212	608.67
876.694	621.898
877.176	632.787
877.658	648.766
878.14	678.582
878.623	708.529
879.105	716.25
879.587	706.985
880.069	700.397
880.551	703.599
881.033	712.8
881.515	733.508
881.997	758.412
882.48	769.993
882.962	764.823
883.444	761.848
883.926	766.906
884.408	773.8
884.89	771.674
885.372	763.372
885.854	756.474
886.336	758.341
886.819	754.373
887.301	735.705
887.783	707.146
888.265	675.708
888.747	639.008
889.229	607.109
889.711	580.498
890.193	559.564
890.675	545.078
891.158	536.464
891.64	534.496
892.122	542.2
892.604	541.373
893.086	512.143
893.568	472.656
894.05	439.787
894.532	418.217
895.015	397.768
895.497	378.198
895.979	360.237
896.461	345.165
896.943	332.547
897.425	320.69
897.907	309.531
898.389	296.852
898.872	279.935
899.354	261.3
899.836	240.868
900.318	218.136
900.8	204.567
901.282	208.49
901.764	210.706
902.246	201.34
902.729	182.364
903.211	167.169
903.693	155.8
904.175	147.763
904.657	144.917
905.139	143.574
905.621	142.449
906.103	140.143
906.585	131.188
907.068	103.476
907.55	81.8088
908.032	73.5957
908.514	74.7703
908.996	73.0203
909.478	68.3232
909.96	65.0706
910.442	66.0757
910.924	67.1704
911.407	61.9771
911.889	53.4536
912.371	47.0146
912.853	43.5365
913.335	46.2051
913.817	46.5609
914.299	44.7309
914.781	33.9443
915.263	34.8999
915.746	31.2569
916.228	27.4988
916.71	30.3265
917.192	21.2361
917.674	24.1137
918.156	22.3212
918.638	22.7776
919.12	18.6067
919.602	15.9655
920.085	18.1058
920.567	17.7178
921.049	13.3118
921.531	14.3661
922.013	5.87808
922.495	5.90755
922.977	9.65492
923.459	5.86867
923.942	7.392
924.424	6.99889
924.906	-2.37524
925.388	4.07949
925.87	3.79824
926.352	-3.40082
926.834	2.74393
927.316	-3.33769
927.799	-4.95128
928.281	-3.18339
928.763	-4.78417
929.245	-0.876517
929.727	-2.12503
930.209	-3.76444
930.691	-3.28695
931.173	-8.51439
931.656	-2.93925
932.138	-4.61426
932.62	-2.57069
933.102	0.374995
933.584	-2.9235
934.066	0.546258
934.548	-6.2844
935.03	-4.35564
935.512	-3.2852
935.995	3.41187
936.477	-3.06189
936.959	-1.06796
937.441	4.57582
937.923	5.29658
938.405	8.1843
938.887	4.96075
939.369	7.62687
939.851	8.76713
940.334	15.5214
940.816	17.9806
941.298	15.2452
941.78	12.6087
942.262	20.0675
942.744	18.1068
943.226	21.3465
943.708	19.371
944.19	22.0408
944.673	24.7147
945.155	29.8071
945.637	27.8747
946.119	35.2311
946.601	50.1982
947.083	55.6038
947.565	58.1052
948.047	65.967
948.529	78.2334
949.012	92.6816
949.494	113.338
949.976	129.685
950.458	136.895
950.94	141.246
951.422	150.691
951.904	165.227
952.386	190.427
952.869	230.275
953.351	265.976
953.833	279.023
954.315	275.268
954.797	259.348
955.279	227.465
955.761	201.635
956.243	181.776
956.726	172.852
957.208	183.819
957.69	213.653
958.172	220.368
958.654	204.366
959.136	185.656
959.618	178.246
960.1	174.227
960.583	166.86
961.065	156.296
961.547	144.808
962.029	127.926
962.511	118.279
962.993	121.592
963.475	131.64
963.957	132.93
964.439	126.409
964.922	117.689
965.404	106.352
965.886	98.1787
966.368	98.4712
966.85	104.478
967.332	113.255
967.814	132.819
968.296	137.054
968.778	117.664
969.261	99.1216
969.743	111.784
970.225	146.27
970.707	165.954
971.189	168.099
971.671	175.138
972.153	204.521
972.635	241.421
973.117	277.823
973.6	312.782
974.082	341.051
974.564	358.945
975.046	383.865
975.528	424.64
976.01	475.767
976.492	528.623
976.974	582.556
977.456	636.063
977.939	683.593
978.421	735.815
978.903	806.677
979.385	878.59
979.867	925.507
980.349	941.672
980.831	969.374
981.313	1015.71
981.796	1064.27
982.278	1104.61
982.76	1132.71
983.242	1140.82
983.724	1126.86
984.206	1106.4
984.688	1082.34
985.17	1054.68
985.653	1021.71
986.135	984.078
986.617	951.54
987.099	923.786
987.581	889.273
988.063	836.584
988.545	777.918
989.027	724.315
989.51	674.422
989.992	625.074
990.474	569.386
990.956	523.396
991.438	489.995
991.92	464.705
992.402	440.446
992.884	418.593
993.366	405.756
993.849	405.023
994.331	405.783
994.813	397.755
995.295	390.558
995.777	392.744
996.259	405
996.741	424.918
997.223	455.145
997.705	480.128
998.188	481.699
998.67	475.647
999.152	503.92
999.634	557.629
1000.12	601.774
1000.6	602.335
1001.08	611.412
1001.56	659.045
1002.04	720.921
1002.53	751.44
1003.01	747.629
1003.49	757.978
1003.97	793.188
1004.46	834.663
1004.94	857.053
1005.42	875.315
1005.9	908.872
1006.38	964.401
1006.87	1020.73
1007.35	1071.99
1007.83	1127.45
1008.31	1190.67
1008.79	1262.07
1009.28	1346.28
1009.76	1443.07
1010.24	1552.82
1010.72	1681.17
1011.21	1817.2
1011.69	1942.01
1012.17	2071.1
1012.65	2245.86
1013.13	2486.12
1013.61	2718.89
1014.1	2932.27
1014.58	3139.01
1015.06	3342.97
1015.54	3553.5
1016.03	3800.72
1016.51	4099.46
1016.99	4369.67
1017.47	4556.61
1017.95	4725.5
1018.44	4913.71
1018.92	5118.66
1019.4	5327.81
1019.88	5541.23
1020.36	5715.37
1020.85	5818.81
1021.33	5876.15
1021.81	5911.86
1022.29	5920.49
1022.78	5888.7
1023.26	5808.41
1023.74	5694.08
1024.22	5540.33
1024.7	5363.4
1025.19	5190.1
1025.67	5013.17
1026.15	4808.04
1026.63	4568.09
1027.11	4331.2
1027.6	4113.21
1028.08	3912.51
1028.56	3721.12
1029.04	3539.29
1029.53	3402.74
1030.01	3318.44
1030.49	3239.31
1030.97	3138.53
1031.45	3037.69
1031.94	2956.07
1032.42	2897.51
1032.9	2870.99
1033.38	2889.49
1033.86	2927.85
1034.35	2983.66
1034.83	3055.38
1035.31	3140.1
1035.79	3238.75
1036.28	3351.2
1036.76	3478.35
1037.24	3624.25
1037.72	3803.04
1038.2	3992.31
1038.69	4172.4
1039.17	4344.48
1039.65	4536.88
1040.13	4755.13
1040.61	4962.37
1041.1	5136.78
1041.58	5302.04
1042.06	5504.71
1042.54	5719.04
1043.02	5902.67
1043.51	6061.33
1043.99	6144.91
1044.47	6134.36
1044.95	6063.34
1045.44	5962.3
1045.92	5828.49
1046.4	5605.73
1046.88	5295.61
1047.36	4939.73
1047.85	4525.75
1048.33	4112.95
1048.81	3742.9
1049.29	3410.74
1049.77	3077.58
1050.26	2731.02
1050.74	2428.65
1051.22	2187.3
1051.7	1980.6
1052.19	1773.45
1052.67	1580.5
1053.15	1431.77
1053.63	1339.92
1054.11	1260.02
1054.59	1170.55
1055.08	1102.19
1055.56	1078.39
1056.04	1091.22
1056.52	1076.34
1057.01	1039.34
1057.49	1026.04
1057.97	1087.72
1058.45	1153.77
1058.93	1174.88
1059.42	1171.75
1059.9	1184.47
1060.38	1218.5
1060.86	1254.31
1061.34	1292.6
1061.83	1323.06
1062.31	1331.08
1062.79	1327.99
1063.27	1332.79
1063.76	1345.02
1064.24	1341.04
1064.72	1306.97
1065.2	1268.18
1065.68	1233.14
1066.17	1196.33
1066.65	1144.74
1067.13	1079.32
1067.61	997.14
1068.09	884.021
1068.58	787.813
1069.06	751.734
1069.54	734.882
1070.02	696.525
1070.51	631.933
1070.99	572.888
1071.47	518.127
1071.95	471.786
1072.43	440.063
1072.92	413.785
1073.4	377.889
1073.88	339.037
1074.36	317.034
1074.84	328.508
1075.33	327.714
1075.81	309.427
1076.29	283.355
1076.77	257.252
1077.26	231.047
1077.74	209.036
1078.22	192.96
1078.7	178.785
1079.18	169.117
1079.67	156.682
1080.15	133.274
1080.63	103.224
1081.11	97.1977
1081.59	114.331
1082.08	123.397
1082.56	106.199
1083.04	88.9502
1083.52	97.1997
1084	118.714
1084.49	136.727
1084.97	144.885
1085.45	163.581
1085.93	194.854
1086.42	228.491
1086.9	257.7
1087.38	283.495
1087.86	307.752
1088.34	330.271
1088.83	350.081
1089.31	358.709
1089.79	376.81
1090.27	411.726
1090.75	451.345
1091.24	470.158
1091.72	476.968
1092.2	515.225
1092.68	592.331
1093.17	670.146
1093.65	726.392
1094.13	774.955
1094.61	822.15
1095.09	868.553
1095.57	923.967
1096.06	989.3
1096.54	1039.44
1097.02	1056.89
1097.5	1069.96
1097.99	1110.3
1098.47	1163.26
1098.95	1209.9
1099.43	1254.3
1099.91	1269.76
1100.4	1247.71
1100.88	1224.04
1101.36	1235.69
1101.84	1258.45
1102.32	1238.75
1102.81	1186.6
1103.29	1141.66
1103.77	1129.8
1104.25	1110.01
1104.73	1070.33
1105.22	1025.42
1105.7	1002.11
1106.18	992.908
1106.66	958.847
1107.15	894.757
1107.63	833.639
1108.11	792.739
1108.59	762.879
1109.07	742.864
1109.56	729.315
1110.04	711.39
1110.52	688.877
1111	664.601
1111.48	641.672
1111.97	611.428
1112.45	559.119
1112.93	499.552
1113.41	449.188
1113.9	412.598
1114.38	370.758
1114.86	322.907
1115.34	272.887
1115.82	219.023
1116.31	167.547
1116.79	129.222
1117.27	96.7353
1117.75	94.7572
1118.23	90.7045
1118.72	84.702
1119.2	69.98
1119.68	67.2356
1120.16	60.1308
1120.65	53.146
1121.13	52.9846
1121.61	41.1414
1122.09	41.493
1122.57	37.4222
1123.06	35.8358
1123.54	29.8597
1124.02	25.6488
1124.5	26.4575
1124.98	24.9731
1125.47	19.7082
1125.95	20.1356
1126.43	11.2621
1126.91	11.1428
1127.4	14.9783
1127.88	11.5165
1128.36	13.6009
1128.84	14.0055
1129.32	5.66569
1129.81	13.3925
1130.29	14.6195
1130.77	9.16536
1131.25	17.2914
1131.73	13.428
1132.22	14.2688
1132.7	18.7282
1133.18	20.0558
1133.66	27.1276
1134.15	29.2874
1134.63	31.286
1135.11	35.6389
1135.59	34.5226
1136.07	44.4464
1136.56	47.3569
1137.04	54.2213
1137.52	62.2258
1138	64.2212
1138.48	73.2357
1138.97	75.8845
1139.45	79.104
1139.93	96.7349
1140.41	127.232
1140.89	147.909
1141.38	144.869
1141.86	136.054
1142.34	124.421
1142.82	112.059
1143.31	100.801
1143.79	91.7253
1144.27	90.7639
1144.75	99.636
1145.23	108.257
1145.71	116.961
1146.2	116.753
1146.68	97.8213
1147.16	67.0808
1147.64	62.0732
1148.13	80.5051
1148.61	90.1475
1149.09	75.6304
1149.57	63.5056
1150.05	82.7092
1150.54	107.425
1151.02	108.521
1151.5	82.1587
1151.98	86.9578
1152.46	124.408
1152.95	155.678
1153.43	153.921
1153.91	143.258
1154.39	141.157
1154.88	147.773
1155.36	165.846
1155.84	203.515
1156.32	224.37
1156.8	225.445
1157.29	222.361
1157.77	227.074
1158.25	235.307
1158.73	242.83
1159.21	249.245
1159.7	253.732
1160.18	255.46
1160.66	256.681
1161.14	257.095
1161.63	258.649
1162.11	267.347
1162.59	276.967
1163.07	273.153
1163.55	256.267
1164.04	250.024
1164.52	275.844
1165	284.56
1165.48	257.034
1165.96	218.641
1166.45	218.246
1166.93	242.267
1167.41	260.508
1167.89	266.545
1168.38	273.128
1168.86	280.114
1169.34	295.135
1169.82	326.837
1170.3	364.472
1170.79	370.879
1171.27	355.981
1171.75	353.051
1172.23	375.992
1172.71	403.065
1173.2	431.996
1173.68	455.778
1174.16	465.774
1174.64	465.986
1175.13	488.927
1175.61	528.983
1176.09	554.038
1176.57	534.053
1177.05	515.833
1177.54	522.658
1178.02	537.786
1178.5	550.611
1178.98	562.453
1179.46	547.864
1179.95	508.355
1180.43	476.364
1180.91	486.592
1181.39	496.491
1181.87	478.304
1182.36	448.526
1182.84	434.854
1183.32	437.245
1183.8	422.875
1184.29	388.838
1184.77	355.182
1185.25	340.31
1185.73	325.766
1186.21	297.132
1186.69	258.862
1187.18	221.429
1187.66	184.436
1188.14	166.548
1188.62	173.995
1189.11	174.327
1189.59	124.922
1190.07	70.4937
1190.55	51.1775
1191.03	62.6587
1191.52	72.6204
1192	81.6167
1192.48	82.5181
1192.96	70.3208
1193.44	62.9324
1193.93	87.5376
1194.41	119.177
1194.89	129.02
1195.37	114.955
1195.85	116.979
1196.34	136.591
1196.82	158.631
1197.3	177.512
1197.78	195.793
1198.27	220.364
1198.75	243.888
1199.23	253.313
1199.71	242.031
1200.19	251.747
1200.68	285.011
1201.16	322.249
1201.64	355.777
1202.12	384.174
1202.6	402.757
1203.09	416.398
1203.57	433.672
1204.05	455.265
1204.53	476.654
1205.02	498.796
1205.5	514.747
1205.98	516.32
1206.46	510.697
1206.94	501.645
1207.43	492.439
1207.91	493.365
1208.39	515.09
1208.87	515.833
1209.35	490.931
1209.84	458.637
1210.32	432.456
1210.8	408.487
1211.28	378.191
1211.77	348.28
1212.25	341.492
1212.73	371.445
1213.21	371.976
1213.69	330.71
1214.18	286.614
1214.66	285.389
1215.14	296.95
1215.62	281.739
1216.1	241.699
1216.59	209.904
1217.07	187.188
1217.55	177.851
1218.03	184.09
1218.52	197.696
1219	210.152
1219.48	224.295
1219.96	247.173
1220.44	277.417
1220.93	291.619
1221.41	281.679
1221.89	287.249
1222.37	321.988
1222.85	359.645
1223.34	368.684
1223.82	362.471
1224.3	353.429
1224.78	343.059
1225.27	338.991
1225.75	340.329
1226.23	354.442
1226.71	388.507
1227.19	422.683
1227.68	434.239
1228.16	431.37
1228.64	422.852
1229.12	409.431
1229.6	390.12
1230.09	364.18
1230.57	336.374
1231.05	307.267
1231.53	279.757
1232.01	256.266
1232.5	236.858
1232.98	222.713
1233.46	214.953
1233.94	199.012
1234.43	174.114
1234.91	150.279
1235.39	130.708
1235.87	116.686
1236.35	114.204
1236.83	114.946
1237.32	106.947
1237.8	88.2354
1238.28	75.0012
1238.76	67.7532
1239.25	57.2505
1239.73	28.5998
1240.21	7.37012
1240.69	28.0457
1241.18	62.7061
1241.66	70.3179
1242.14	42.9277
1242.62	41.9299
1243.1	67.5901
1243.58	85.3525
1244.07	64.7639
1244.55	39.2849
1245.03	32.3435
1245.51	33.8562
1246	27.6797
1246.48	12.1987
1246.96	10.5972
1247.44	22.5654
1247.92	34.1821
1248.41	33.1316
1248.89	32.9297
1249.37	48.0256
1249.85	63.6519
1250.33	56.4795
1250.82	27.8723
1251.3	16.2668
1251.78	22.4546
1252.26	32.6045
1252.74	41.76
1253.23	46.2771
1253.71	43.991
1254.19	36.6064
1254.67	23.5742
1255.16	6.28223
1255.64	5.50195
1256.12	11.3049
1256.6	13.2581
1257.08	10.3042
1257.57	6.36475
1258.05	3.09619
1258.53	0.767822
1259.01	10.3154
1259.49	21.855
1259.98	17.5147
1260.46	1.95337
1260.94	13.4172
1261.42	5.53784
1261.91	16.7676
1262.39	7.35083
1262.87	5.99268
1263.35	4.19824
1263.83	28.1284
1264.32	45.1331
1264.8	53.0879
1265.28	53.4343
1265.76	41.4143
1266.24	29.3518
1266.73	17.9585
1267.21	10.5
1267.69	18.6892
1268.17	30.3457
1268.66	17.7166
1269.14	18.8081
1269.62	27.312
1270.1	10.6797
1270.58	39.3875
1271.07	47.7248
1271.55	41.3357
1272.03	12.7222
1272.51	16.9006
1272.99	18.2178
1273.48	9.35352
1273.96	30.0239
1274.44	43.2205
1274.92	44.387
1275.41	32.1025
1275.89	18.1489
1276.37	10.8975
1276.85	11.2515
1277.33	22.978
1277.81	44.0173
1278.3	66.1035
1278.78	91.5066
1279.26	91.855
1279.74	56.3132
1280.23	21.8132
1280.71	18.2478
1281.19	27.6768
1281.67	37.8203
1282.15	48.0671
1282.64	56.634
1283.12	62.9917
1283.6	76.9116
1284.08	103.258
1284.56	118.236
1285.05	89.0598
1285.53	59.9971
1286.01	60.7161
1286.49	75.853
1286.98	79.4587
1287.46	72.3188
1287.94	61.949
1288.42	47.9746
1288.9	43.3435
1289.39	55.1113
1289.87	65.095
1290.35	77.3662
1290.83	82.5063
1291.31	59.5315
1291.8	37.751
1292.28	37.7117
1292.76	66.0779
1293.24	83.3914
1293.72	86.147
1294.21	82.7253
1294.69	73.0933
1295.17	61.3848
1295.65	60.7673
1296.14	64.251
1296.62	59.9858
1297.1	44.9971
1297.58	43.636
1298.06	58.5139
1298.55	69.9839
1299.03	70.9731
1299.51	69.563
1299.99	79.9084
1300.47	88.2388
1300.96	73.8184
1301.44	42.3623
1301.92	39.6572
1302.4	64.2319
1302.89	70.5881
1303.37	40.5078
1303.85	14.3355
1304.33	27.728
1304.81	47.4446
1305.3	53.4744
1305.78	48.6443
1306.26	41.6804
1306.74	32.9439
1307.22	21.5508
1307.71	5.17651
1308.19	0.522217
1308.67	15.2439
1309.15	0
